Software Version:	3.9.2.0
Unit SN:	10000200
Spectrometer SN:	6960
Date:	3/26/2024 2:04:56 PM
Data Line Index:	25
Spectral Points:	2048
Integration time (ms):	125
Averages:	20
Delay (ms):	30000
Sequence Number:	1
Processing:	dark subtract
Laser Power (mW):	295
Laser Current (mA):	819
Laser Diode Temp (C):	25.1
Laser Case Temp (C):	27.4
System Temp (C):	27.4
Spectrometer Temp (C):	25.4
CCD Temp (C):	0.009
Secondary Temp (C):	20.006
Heatsink Temp (C):	22.653
CCDPCB Temp (C):	36.607
SecondaryPCB Temp (C):	34.473

Wavelength	RamanShift	Raw Counts	Dark Subtracted
787.061	30.1047	670.45	260.65
787.2016	32.3739	683.1	274.75
787.3422	34.6426	700.7	290
787.4828	36.9109	719.7	307.8
787.6235	39.1787	738.5	323.15
787.7642	41.4461	771.5	350.65
787.9049	43.7131	788.7	366.25
788.0456	45.9796	822.55	394.8
788.1863	48.2456	847.95	416.05
788.3271	50.5112	874.5	437.3
788.4679	52.7764	907.85	469.05
788.6087	55.0411	932.95	490.9
788.7496	57.3054	974	526.4
788.8904	59.5692	1011	562.65
789.0313	61.8326	1052.35	600.1
789.1722	64.0955	1087.95	631.4
789.3132	66.3579	1146.7	686.65
789.4541	68.6199	1209.35	746.4
789.5951	70.8815	1320.85	854.15
789.7361	73.1426	1534.15	1062.8
789.8771	75.4032	2084	1607.65
790.0181	77.6634	3480.15	2996.15
790.1592	79.9231	6928.2	6435.35
790.3003	82.1824	14939.3	14427.2
790.4414	84.4412	35281.65	34731.15
790.5825	86.6995	62068.6	61464.65
790.7237	88.9574	65535	64884
790.8648	91.2148	65535	64849.35
791.006	93.4717	65535	64824.75
791.1472	95.7282	65535	64819.95
791.2885	97.9842	65535	64806.7
791.4297	100.2398	65535	64811.65
791.571	102.4949	65535	64807.8
791.7123	104.7495	65535	64803.4
791.8536	107.0036	65535	64807.45
791.9949	109.2573	65535	64804.3
792.1363	111.5105	65535	64802.4
792.2777	113.7632	65535	64796.95
792.4191	116.0154	65535	64790.45
792.5605	118.2672	65535	64789.55
792.7019	120.5185	65535	64795.6
792.8434	122.7693	65535	64791
792.9849	125.0197	65535	64788.1
793.1264	127.2696	65535	64785.05
793.2679	129.519	65535	64783.65
793.4094	131.7679	65535	64777.25
793.551	134.0163	65535	64775.85
793.6926	136.2642	65535	64774.7
793.8342	138.5117	65535	64762.9
793.9758	140.7587	65535	64767.35
794.1175	143.0052	65535	64764.6
794.2591	145.2512	65535	64766.6
794.4008	147.4967	65535	64764.85
794.5425	149.7417	65535	64761.75
794.6842	151.9863	65535	64762.05
794.826	154.2304	65535	64750.2
794.9677	156.4739	65535	64748.9
795.1095	158.717	65535	64746.6
795.2513	160.9596	65535	64744.25
795.3931	163.2017	65535	64748.55
795.535	165.4433	65535	64740.4
795.6768	167.6844	65535	64738.65
795.8187	169.925	65535	64744.65
795.9606	172.1651	65535	64731.7
796.1025	174.4047	65535	64736.9
796.2445	176.6439	65535	64734.8
796.3864	178.8825	65535	64731
796.5284	181.1206	65535	64721.3
796.6704	183.3582	65535	64718.35
796.8124	185.5954	65535	64716
796.9544	187.832	65535	64713.6
797.0965	190.0681	65535	64714.9
797.2386	192.3037	65535	64711.65
797.3806	194.5388	65535	64704.15
797.5228	196.7734	65535	64699
797.6649	199.0075	65535	64696.65
797.807	201.2411	65535	64694.6
797.9492	203.4742	65535	64699.45
798.0914	205.7068	65535	64697.75
798.2336	207.9389	65535	64693.25
798.3758	210.1704	65535	64693.4
798.518	212.4015	65535	64688.45
798.6603	214.632	65535	64692.45
798.8025	216.862	65535	64699.95
798.9448	219.0915	65535	64707.5
799.0871	221.3205	65535	64708.8
799.2294	223.549	65535	64710.85
799.3718	225.777	65535	64712.35
799.5141	228.0044	65535	64708.15
799.6565	230.2314	65535	64709.5
799.7989	232.4578	65535	64717.1
799.9413	234.6837	65535	64704.65
800.0837	236.909	65535	64705.3
800.2262	239.1339	65535	64675.1
800.3687	241.3582	65535	64689.1
800.5111	243.582	65535	64655.85
800.6536	245.8053	65535	64669.75
800.7961	248.0281	65535	64677.85
800.9387	250.2503	65535	64671.65
801.0812	252.472	65535	64665
801.2238	254.6932	65535	64663.6
801.3664	256.9139	65535	64662.1
801.509	259.134	65535	64660.25
801.6516	261.3536	65535	64663.7
801.7942	263.5727	65535	64658.5
801.9369	265.7912	65535	64657.45
802.0795	268.0092	65535	64661.15
802.2222	270.2267	65535	64658.7
802.3649	272.4436	65535	64661.1
802.5076	274.6601	65535	64654.5
802.6504	276.8759	65535	64661.2
802.7931	279.0913	65535	64653.35
802.9359	281.3061	65535	64653.55
803.0787	283.5204	65535	64648.15
803.2215	285.7341	65535	64648.7
803.3643	287.9473	65535	64637.7
803.5071	290.16	65535	64641.1
803.6499	292.3721	65535	64645.15
803.7928	294.5837	65535	64646.55
803.9357	296.7947	65535	64647.4
804.0786	299.0052	65535	64646.4
804.2215	301.2152	65535	64645.3
804.3644	303.4246	65535	64652.7
804.5074	305.6334	65535	64655.15
804.6503	307.8418	65535	64647.4
804.7933	310.0495	65535	64642.95
804.9363	312.2568	65535	64644.85
805.0793	314.4635	65535	64643.9
805.2223	316.6696	65535	64637.05
805.3653	318.8752	65535	64630.45
805.5084	321.0802	65535	64636.05
805.6514	323.2847	65535	64634.4
805.7945	325.4887	65535	64637.55
805.9376	327.692	65535	64632.85
806.0807	329.8949	65535	64631.7
806.2238	332.0972	65535	64631.7
806.367	334.2989	65535	64624.95
806.5101	336.5001	65535	64625.9
806.6533	338.7007	65535	64627.05
806.7965	340.9008	65535	64627.45
806.9397	343.1003	65535	64628.3
807.0829	345.2992	65535	64624.15
807.2261	347.4976	65535	64623.4
807.3693	349.6955	65535	64618.55
807.5126	351.8927	65535	64617.25
807.6559	354.0895	65535	64607.75
807.7991	356.2856	65535	64615.35
807.9424	358.4812	65535	64618.15
808.0857	360.6763	65535	64617.35
808.2291	362.8707	65535	64614.8
808.3724	365.0646	65535	64610.2
808.5158	367.258	65535	64614.65
808.6591	369.4508	65535	64607.85
808.8025	371.643	65535	64610.85
808.9459	373.8346	65535	64611.85
809.0893	376.0257	65535	64605.45
809.2327	378.2162	65535	64607.3
809.3762	380.4062	65535	64601.65
809.5196	382.5956	65535	64602.4
809.6631	384.7844	65535	64609.85
809.8066	386.9726	65535	64605.45
809.9501	389.1603	65535	64603.6
810.0936	391.3474	65535	64579.55
810.2371	393.5339	65535	64608.4
810.3806	395.7199	65535	64611.35
810.5241	397.9052	65535	64614.45
810.6677	400.09	65535	64619.6
810.8113	402.2743	65535	64619
810.9548	404.4579	65535	64617.6
811.0984	406.641	65535	64615.6
811.2421	408.8235	65535	64619.4
811.3857	411.0054	65535	64620.2
811.5293	413.1868	65535	64613.95
811.673	415.3675	65535	64604.05
811.8166	417.5477	65535	64608.95
811.9603	419.7273	65535	64604.85
812.104	421.9064	65535	64604.4
812.2477	424.0848	65535	64605.25
812.3914	426.2627	65535	64604.3
812.5351	428.4399	65535	64600.35
812.6788	430.6166	65535	64600.6
812.8226	432.7928	65535	64602.5
812.9663	434.9683	65535	64601.9
813.1101	437.1432	65535	64601.8
813.2539	439.3176	65535	64605.55
813.3977	441.4914	65535	64610.2
813.5415	443.6645	65535	64602.15
813.6853	445.8371	65535	64597.9
813.8291	448.0091	65535	64605.2
813.973	450.1806	65535	64609
814.1168	452.3514	65535	64608.75
814.2607	454.5216	65535	64597.45
814.4046	456.6913	65535	64601.55
814.5485	458.8603	65535	64605.9
814.6924	461.0288	65535	64610.85
814.8363	463.1967	65535	64612.25
814.9802	465.3639	65535	64605.15
815.1241	467.5306	65535	64604.5
815.2681	469.6967	65535	64608.8
815.412	471.8622	65535	64612.4
815.556	474.0271	65535	64607.85
815.7	476.1914	65535	64596.9
815.844	478.3551	65535	64603.1
815.988	480.5182	65535	64608.85
816.132	482.6807	65535	64610.3
816.276	484.8426	65535	64622.75
816.4201	487.0039	65535	64613.4
816.5641	489.1647	65535	64602.45
816.7082	491.3248	65535	64608.15
816.8522	493.4843	65535	64610.8
816.9963	495.6432	65535	64609.45
817.1404	497.8015	65535	64595.9
817.2845	499.9592	65535	64590.8
817.4286	502.1163	65535	64595.35
817.5727	504.2728	65535	64602
817.7168	506.4287	65535	64612
817.861	508.5839	65535	64611
818.0051	510.7386	65535	64605.45
818.1493	512.8927	65535	64593.2
818.2935	515.0461	65535	64596.4
818.4377	517.199	65535	64592.75
818.5818	519.3512	65535	64594.85
818.726	521.5029	65535	64593
818.8703	523.6539	65535	64595.2
819.0145	525.8043	65535	64592.5
819.1587	527.9541	65535	64589.3
819.303	530.1033	65535	64596.6
819.4472	532.2519	65535	64595.65
819.5915	534.3999	65535	64595.25
819.7357	536.5472	65535	64598.1
819.88	538.694	65535	64598.3
820.0243	540.8401	65535	64594.2
820.1686	542.9856	65535	64581.15
820.3129	545.1305	65535	64574.55
820.4572	547.2748	65535	64572.25
820.6016	549.4185	65535	64567.8
820.7459	551.5615	65535	64572.75
820.8902	553.704	65535	64577.7
821.0346	555.8458	65535	64579.45
821.1789	557.987	65535	64584.15
821.3233	560.1276	65535	64579.45
821.4677	562.2675	65535	64576.75
821.6121	564.4069	65535	64575.5
821.7565	566.5456	65535	64583.55
821.9009	568.6837	65535	64582.3
822.0453	570.8212	65535	64592.15
822.1897	572.958	65535	64589.55
822.3342	575.0942	65535	64589.9
822.4786	577.2299	65535	64592.85
822.6231	579.3648	65535	64607.6
822.7675	581.4992	65535	64618.4
822.912	583.6329	65535	64618
823.0565	585.766	65535	64612.45
823.201	587.8985	65535	64605.8
823.3454	590.0304	65535	64582.35
823.4899	592.1616	65535	64584.25
823.6345	594.2922	65535	64582.2
823.779	596.4222	65535	64579.85
823.9235	598.5515	65535	64580.45
824.068	600.6802	65535	64579.25
824.2126	602.8083	65535	64584.5
824.3571	604.9358	65535	64580.45
824.5017	607.0626	65535	64576.95
824.6462	609.1888	65535	64573.15
824.7908	611.3144	65535	64573
824.9354	613.4393	65535	64572.2
825.08	615.5636	65535	64570.65
825.2246	617.6873	65535	64574.8
825.3692	619.8103	65535	64580.5
825.5138	621.9327	65535	64577.55
825.6584	624.0544	65535	64581.4
825.803	626.1756	65535	64582.3
825.9477	628.2961	65535	64577.55
826.0923	630.4159	65535	64572.95
826.237	632.5351	65535	64575.8
826.3816	634.6537	65535	64575.15
826.5263	636.7716	65535	64570.9
826.6709	638.8889	65535	64568.25
826.8156	641.0056	65535	64566.65
826.9603	643.1216	65535	64567.65
827.105	645.237	65535	64569.1
827.2497	647.3518	65535	64581.4
827.3944	649.4659	65535	64588.05
827.5391	651.5793	65535	64584.95
827.6838	653.6922	65535	64581.75
827.8285	655.8043	65535	64577.85
827.9733	657.9159	65535	64581.3
828.118	660.0268	65535	64584
828.2627	662.137	65535	64577.2
828.4075	664.2466	65535	64569.25
828.5522	666.3556	65535	64571.95
828.697	668.4639	65535	64577.5
828.8418	670.5716	65535	64585.95
828.9865	672.6786	65535	64575.65
829.1313	674.785	65535	64566.55
829.2761	676.8907	65535	64577.7
829.4209	678.9958	65535	64580
829.5657	681.1002	65535	64573.1
829.7105	683.204	65535	64564.5
829.8553	685.3072	65535	64570.45
830.0001	687.4097	65535	64567.6
830.1449	689.5115	65535	64568
830.2898	691.6127	65535	64571.95
830.4346	693.7132	65535	64580.55
830.5794	695.8131	65535	64560.4
830.7243	697.9123	65535	64564.65
830.8691	700.0109	65535	64562.6
831.014	702.1089	65535	64567.3
831.1588	704.2061	65535	64569.4
831.3037	706.3028	65535	64565.3
831.4486	708.3987	65535	64567.15
831.5935	710.4941	65535	64567.95
831.7383	712.5887	65535	64573.8
831.8832	714.6827	65535	64569.8
832.0281	716.7761	65535	64573.75
832.173	718.8688	65535	64576.95
832.3179	720.9608	65535	64563.25
832.4628	723.0522	65535	64554.7
832.6077	725.1429	65535	64565.4
832.7527	727.233	65535	64565.7
832.8976	729.3224	65535	64559.35
833.0425	731.4112	65535	64567.35
833.1874	733.4993	65535	64569.7
833.3324	735.5867	65535	64567.7
833.4773	737.6735	65535	64567.55
833.6222	739.7596	65535	64564.2
833.7672	741.845	65535	64567.35
833.9122	743.9298	65535	64567.9
834.0571	746.014	65535	64568
834.2021	748.0974	65535	64561.15
834.347	750.1802	65535	64560.15
834.492	752.2624	65535	64560.05
834.637	754.3439	65535	64564.7
834.782	756.4247	65535	64551.4
834.9269	758.5048	65535	64563.7
835.0719	760.5843	65535	64560.05
835.2169	762.6631	65535	64560.65
835.3619	764.7413	65535	64559.1
835.5069	766.8188	65535	64562.35
835.6519	768.8956	65535	64562.25
835.7969	770.9718	65535	64557.35
835.9419	773.0473	65535	64561.05
836.0869	775.1221	65535	64562.95
836.232	777.1962	65535	64562.6
836.377	779.2697	65535	64558.45
836.522	781.3426	65535	64544.65
836.667	783.4147	65535	64559.9
836.8121	785.4862	65535	64563.4
836.9571	787.557	65535	64560.85
837.1021	789.6271	65535	64559.2
837.2472	791.6966	65535	64561.65
837.3922	793.7654	65535	64560.95
837.5373	795.8335	65535	64560.05
837.6823	797.901	65535	64561.05
837.8274	799.9678	65535	64556.05
837.9724	802.0339	65535	64556.4
838.1175	804.0993	65535	64546.4
838.2626	806.1641	65535	64555.8
838.4076	808.2282	65535	64560
838.5527	810.2916	65535	64560.6
838.6978	812.3544	65535	64563.85
838.8428	814.4164	65535	64561.65
838.9879	816.4778	65535	64560.45
839.133	818.5385	65535	64553.8
839.2781	820.5986	65535	64555.95
839.4232	822.658	65535	64554.2
839.5682	824.7166	65535	64556.55
839.7133	826.7747	65535	64554.85
839.8584	828.832	65535	64557.4
840.0035	830.8886	65535	64555.3
840.1486	832.9446	65535	64554.15
840.2937	834.9999	65535	64560.5
840.4388	837.0545	65535	64553.7
840.5839	839.1085	65535	64556.05
840.729	841.1618	65535	64552.05
840.8741	843.2143	65535	64558.9
841.0192	845.2662	65535	64555.2
841.1643	847.3175	65535	64556.65
841.3095	849.368	65528.65	64550.5
841.4546	851.4179	65535	64557.2
841.5997	853.467	65532.1	64554.85
841.7448	855.5155	65535	64558.8
841.8899	857.5633	65528	64551.95
842.0351	859.6105	65522.55	64541.6
842.1802	861.6569	65529.55	64550.45
842.3253	863.7027	65507.4	64527.35
842.4704	865.7478	65521	64541.35
842.6156	867.7922	65520.05	64539.4
842.7607	869.8359	65526.1	64550.95
842.9058	871.8789	65506.5	64523.25
843.0509	873.9212	65522.15	64510.8
843.1961	875.9629	65526.65	64544.6
843.3412	878.0039	65521.15	64544.4
843.4863	880.0441	65518.7	64545.55
843.6315	882.0837	65513.05	64538.65
843.7766	884.1226	65510.85	64532
843.9218	886.1609	65507.4	64532.6
844.0669	888.1984	65477.1	64499.95
844.212	890.2352	65517.75	64543.45
844.3572	892.2714	65478.15	64489.6
844.5023	894.3069	65512.55	64530.35
844.6475	896.3416	65470.65	64491
844.7926	898.3757	65464.9	64483.4
844.9377	900.4091	65394.95	64411.75
845.0829	902.4418	65490.8	64503
845.228	904.4739	65442.95	64457.3
845.3732	906.5052	65451.4	64472.3
845.5183	908.5358	65411.55	64428.65
845.6635	910.5658	65395.95	64409.4
845.8086	912.595	65404.2	64421.45
845.9538	914.6236	65283.1	64299.35
846.0989	916.6515	65429.25	64449.65
846.2441	918.6786	65267.95	64285.1
846.3892	920.7051	65330.3	64348.8
846.5344	922.7309	65295.05	64315.55
846.6795	924.756	65329.2	64348.55
846.8246	926.7804	65265.75	64284.65
846.9698	928.8041	65008.8	64029.1
847.1149	930.8272	65251.3	64272.2
847.2601	932.8495	65270.35	64290.35
847.4052	934.8711	65074	64092.1
847.5504	936.892	64891.55	63907.65
847.6955	938.9123	65031.3	64048.6
847.8407	940.9318	64872.45	63889.45
847.9858	942.9506	64842.65	63863.05
848.131	944.9688	64871.1	63892.5
848.2761	946.9862	64414.65	63432.5
848.4213	949.003	64634.9	63655.7
848.5664	951.019	64215.05	63231.7
848.7115	953.0344	64310.85	63331.7
848.8567	955.0491	64224.7	63240.65
849.0018	957.063	64452	63472.75
849.147	959.0763	64498.95	63511.2
849.2921	961.0888	64109.1	63131.75
849.4373	963.1007	64387.4	63412.05
849.5824	965.1119	64397.45	63430.15
849.7275	967.1223	64073.55	63110.75
849.8727	969.1321	64454.6	63494.2
850.0178	971.1412	63984.8	63019.15
850.1629	973.1495	63829.2	62854.7
850.3081	975.1572	64073.2	63039.8
850.4532	977.1641	63839.6	62859.05
850.5983	979.1704	63806.3	62824.4
850.7435	981.1759	63851.4	62865.2
850.8886	983.1808	63571.85	62587.9
851.0337	985.1849	63616.8	62630.45
851.1788	987.1884	63727	62748.1
851.324	989.1911	63967.6	62988.55
851.4691	991.1932	63222.9	62247.5
851.6142	993.1945	63463.7	62484.45
851.7593	995.1951	63610.3	62631.05
851.9045	997.1951	63187.45	62201.35
852.0496	999.1943	63130.4	62155.25
852.1947	1001.1928	62951.95	61972.05
852.3398	1003.1906	63113.1	62136.4
852.4849	1005.1877	62496.75	61515
852.63	1007.1841	62389.6	61409.3
852.7751	1009.1798	62413.25	61438.5
852.9202	1011.1748	62374.1	61396.75
853.0653	1013.1691	62220.35	61241.25
853.2104	1015.1627	60877.9	59902.5
853.3555	1017.1556	61345.55	60371.85
853.5006	1019.1477	61530.1	60560.3
853.6457	1021.1392	60947.15	59981.75
853.7908	1023.1299	60196.8	59233.45
853.9359	1025.12	60706.2	59751.35
854.081	1027.1093	60287.65	59341.5
854.2261	1029.0979	60305.4	59365.55
854.3712	1031.0859	60278.85	59328.6
854.5163	1033.0731	59653.6	58692.7
854.6613	1035.0596	59864.95	58902
854.8064	1037.0454	59715	58748.55
854.9515	1039.0304	59340.55	58368.05
855.0965	1041.0148	58576.55	57602.7
855.2416	1042.9985	58683.45	57711.15
855.3867	1044.9814	59103.2	58135.85
855.5317	1046.9636	58339.1	57365.55
855.6768	1048.9452	58392.15	57423.05
855.8219	1050.926	58247.7	57278.6
855.9669	1052.9061	58205.35	57231.35
856.112	1054.8855	58198.35	57223.3
856.257	1056.8642	57871.4	56897.6
856.4021	1058.8421	57593.75	56616.05
856.5471	1060.8194	57597	56620.15
856.6921	1062.7959	57171.5	56199.25
856.8372	1064.7717	57525.75	56554.3
856.9822	1066.7469	57335.45	56361.25
857.1272	1068.7213	57278.35	56303.8
857.2723	1070.695	56999.9	56027.1
857.4173	1072.6679	56532.45	55556.25
857.5623	1074.6402	56813	55836.85
857.7073	1076.6117	56371.65	55389.05
857.8523	1078.5826	56335.55	55364
857.9973	1080.5527	56381.75	55404.8
858.1423	1082.5221	56092.6	55124.75
858.2873	1084.4908	56338.2	55366.8
858.4323	1086.4587	56155.95	55181
858.5773	1088.426	56210.05	55238.75
858.7223	1090.3925	56056.95	55080.15
858.8673	1092.3584	55924.25	54950.75
859.0123	1094.3235	55333.45	54360.35
859.1573	1096.2879	55208.6	54237.5
859.3022	1098.2515	55355.15	54386.15
859.4472	1100.2145	55064.15	54095.75
859.5922	1102.1767	54940.25	53967.95
859.7371	1104.1382	55189	54218.75
859.8821	1106.099	55056.75	54084.05
860.027	1108.0591	55030.6	54063.2
860.172	1110.0185	54465.95	53497.35
860.3169	1111.9771	55036.75	54065.75
860.4619	1113.9351	54548.1	53578.1
860.6068	1115.8923	53998.45	53026.65
860.7517	1117.8488	53459.65	52488.8
860.8967	1119.8045	52858.45	51891.35
861.0416	1121.7596	52953.65	51980.9
861.1865	1123.7139	52628.5	51662.1
861.3314	1125.6675	52632.2	51660.9
861.4763	1127.6204	52508	51542.25
861.6212	1129.5726	52134.65	51160.5
861.7661	1131.524	52305.7	51337.5
861.911	1133.4748	52245.65	51274.75
862.0559	1135.4248	51868.9	50896.6
862.2008	1137.3741	51812.8	50840.65
862.3457	1139.3226	51723.6	50751.7
862.4905	1141.2705	51570.15	50596.85
862.6354	1143.2176	51363.8	50390.55
862.7803	1145.164	51066.6	50092.95
862.9251	1147.1097	51083.25	50112.45
863.07	1149.0546	50902.45	49933
863.2148	1150.9989	50919.9	49950.95
863.3597	1152.9424	50544.15	49576.1
863.5045	1154.8852	50440.25	49468.8
863.6493	1156.8272	50124.95	49155.6
863.7942	1158.7686	50232.8	49255.2
863.939	1160.7092	49650.75	48680.8
864.0838	1162.6491	49503.5	48534.35
864.2286	1164.5883	49645.4	48676.4
864.3734	1166.5267	49507.9	48535.9
864.5182	1168.4644	49584.95	48615.8
864.663	1170.4014	49624.4	48652.65
864.8078	1172.3377	49837.5	48871.75
864.9526	1174.2732	50062.2	49098.1
865.0974	1176.2081	49979.6	49010.75
865.2421	1178.1421	49992.05	49022.35
865.3869	1180.0755	50320.15	49352.4
865.5317	1182.0082	50070.15	49102.6
865.6764	1183.9401	50039.75	49074.35
865.8212	1185.8713	49599.25	48640.6
865.9659	1187.8017	49327.45	48375.8
866.1106	1189.7315	49099.2	48155.7
866.2554	1191.6605	48626.4	47684.7
866.4001	1193.5888	48233.85	47284.9
866.5448	1195.5163	47996.25	47038.6
866.6895	1197.4432	47794.6	46832.95
866.8342	1199.3693	47608.7	46645.35
866.9789	1201.2947	47326.75	46358.5
867.1236	1203.2193	47257.6	46295.15
867.2683	1205.1432	47070.55	46104.05
867.413	1207.0664	46981.05	46016.9
867.5576	1208.9889	46881.9	45917.15
867.7023	1210.9106	46732.6	45768.75
867.847	1212.8316	46620.5	45659.8
867.9916	1214.7519	46552.75	45578.35
868.1363	1216.6715	46399.1	45436.3
868.2809	1218.5903	46315.85	45353.35
868.4255	1220.5084	46143.75	45179.5
868.5701	1222.4257	46076.35	45113.55
868.7148	1224.3424	45757.85	44799.15
868.8594	1226.2583	45712.35	44746.35
869.004	1228.1735	45705.7	44741.4
869.1486	1230.0879	45545.15	44582.6
869.2932	1232.0016	45588.85	44624.5
869.4377	1233.9146	45515.25	44551.45
869.5823	1235.8269	45268.85	44306.2
869.7269	1237.7384	45099.8	44137.85
869.8715	1239.6492	44687.55	43727.2
870.016	1241.5592	44597.05	43634.5
870.1606	1243.4686	44301.5	43341
870.3051	1245.3772	44225.05	43263.5
870.4496	1247.285	44063.2	43100.6
870.5941	1249.1922	43874.45	42912.85
870.7387	1251.0986	43774.7	42815.85
870.8832	1253.0042	43536.6	42577.15
871.0277	1254.9092	43523.4	42563.45
871.1722	1256.8134	43487.3	42530.4
871.3167	1258.7169	43534.25	42572.9
871.4611	1260.6196	43599.9	42640.45
871.6056	1262.5216	43691.2	42728.55
871.7501	1264.4229	43729.9	42773.5
871.8945	1266.3234	43835.45	42874.45
872.039	1268.2232	43763.55	42799.95
872.1834	1270.1223	43592.55	42626.85
872.3278	1272.0207	43537.85	42575.9
872.4723	1273.9183	43353.8	42388.55
872.6167	1275.8151	43241	42285.95
872.7611	1277.7113	43074.3	42117.05
872.9055	1279.6067	42825.1	41865.95
873.0499	1281.5014	42609.45	41648.7
873.1943	1283.3953	42447.05	41485.2
873.3386	1285.2885	42418.75	41461
873.483	1287.181	42308.3	41349.05
873.6274	1289.0727	42319.85	41362.55
873.7717	1290.9637	42225.85	41272.4
873.9161	1292.854	42326.25	41366.8
874.0604	1294.7435	42295.6	41338.2
874.2047	1296.6323	42397.25	41444.4
874.349	1298.5204	42508.3	41543.5
874.4933	1300.4077	42579.3	41623.15
874.6376	1302.2943	42601.6	41643.2
874.7819	1304.1802	42693.2	41737.9
874.9262	1306.0653	42401.9	41443.3
875.0705	1307.9497	42212.85	41253.9
875.2147	1309.8333	42024.15	41071.05
875.359	1311.7162	41885.6	40925.2
875.5032	1313.5984	41884.4	40924.1
875.6475	1315.4798	41802.25	40841.45
875.7917	1317.3605	41828.1	40864
875.9359	1319.2405	41908.1	40947.95
876.0801	1321.1197	41831.1	40869.2
876.2243	1322.9982	41539.6	40578.9
876.3685	1324.876	41565.45	40605.15
876.5127	1326.753	41297.75	40340.25
876.6569	1328.6293	41277.2	40317.3
876.801	1330.5048	41269.75	40307.6
876.9452	1332.3796	41177.05	40218.55
877.0893	1334.2537	41092.05	40109.4
877.2335	1336.127	40917.3	39958.7
877.3776	1337.9996	40778.95	39821.6
877.5217	1339.8714	40661.4	39706.55
877.6658	1341.7426	40576.9	39573.9
877.8099	1343.6129	40460	39499.95
877.954	1345.4826	40349.95	39391.55
878.0981	1347.3515	40361	39400.95
878.2422	1349.2196	40162.75	39202.6
878.3862	1351.087	40124.05	39165.3
878.5303	1352.9537	40084.35	39125.85
878.6743	1354.8197	40166.5	39201.55
878.8184	1356.6849	40270.45	39313.7
878.9624	1358.5493	40250.35	39296.55
879.1064	1360.4131	40191.35	39233.65
879.2504	1362.276	40098.15	39141.95
879.3944	1364.1383	39851.15	38892.1
879.5384	1365.9998	39508.35	38545.35
879.6823	1367.8606	39139.3	38179.3
879.8263	1369.7206	38794.65	37835.05
879.9702	1371.5799	38527.6	37566.6
880.1142	1373.4384	38176.7	37216.95
880.2581	1375.2962	38063.85	37108.5
880.402	1377.1533	37602.85	36646.7
880.5459	1379.0096	37222	36270.4
880.6898	1380.8652	36868.1	35918.75
880.8337	1382.7201	36559.3	35605
880.9776	1384.5742	36145.6	35191.05
881.1215	1386.4275	35869.15	34911.15
881.2653	1388.2802	35664.4	34704.2
881.4092	1390.132	35424.05	34462.9
881.553	1391.9832	35333.8	34376.55
881.6968	1393.8336	35062.75	34105.4
881.8406	1395.6832	34985.75	34028.45
881.9844	1397.5322	34765.85	33813.1
882.1282	1399.3803	34670.65	33713.8
882.272	1401.2278	34491.5	33536.25
882.4158	1403.0745	34412	33457.4
882.5595	1404.9204	34207.25	33254.7
882.7033	1406.7656	34230.6	33279.4
882.847	1408.6101	34079.6	33124.3
882.9908	1410.4538	33903.35	32948.85
883.1345	1412.2968	33879.5	32926.45
883.2782	1414.139	33858.35	32905.75
883.4219	1415.9805	33826.25	32877.35
883.5656	1417.8213	33807.75	32832.15
883.7092	1419.6613	33777.3	32825.9
883.8529	1421.5006	33859.6	32909.5
883.9965	1423.3391	34003.75	33049.85
884.1402	1425.1769	34192.95	33239.45
884.2838	1427.0139	34646.05	33693.95
884.4274	1428.8502	35099.7	34147.65
884.571	1430.6858	35527.4	34577.35
884.7146	1432.5206	35789.25	34838.2
884.8582	1434.3547	35997.85	35045.95
885.0018	1436.188	35952.55	35000.4
885.1453	1438.0206	35856.1	34904.25
885.2889	1439.8524	35593.85	34643.9
885.4324	1441.6835	35419.45	34469.05
885.5759	1443.5139	35238.7	34284.9
885.7194	1445.3435	35101.55	34154.05
885.8629	1447.1724	34993.45	34048.4
886.0064	1449.0005	34901.35	33949.1
886.1499	1450.8279	34760.7	33810.85
886.2933	1452.6545	34666.1	33717.85
886.4368	1454.4804	34601.8	33654.6
886.5802	1456.3056	34585.45	33630.95
886.7237	1458.13	34432.55	33484
886.8671	1459.9536	34222.95	33273.25
887.0105	1461.7766	33855	32905.55
887.1539	1463.5987	33399.8	32448.8
887.2972	1465.4202	32975.2	32025.85
887.4406	1467.2409	32531.75	31580.95
887.584	1469.0608	32310.55	31361.7
887.7273	1470.88	31998.65	31048.45
887.8706	1472.6984	31739.4	30790.65
888.0139	1474.5161	31390.75	30441.8
888.1572	1476.3331	31202	30254.45
888.3005	1478.1493	31027.65	30076.65
888.4438	1479.9648	30940.95	29993.4
888.5871	1481.7795	30787.7	29838.3
888.7303	1483.5935	30659.65	29713.65
888.8736	1485.4067	30554.25	29605.3
889.0168	1487.2192	30436.3	29490.2
889.16	1489.031	30365.9	29414.05
889.3032	1490.842	30300.45	29351.55
889.4464	1492.6522	30210.65	29261.7
889.5896	1494.4618	30060.95	29110.35
889.7327	1496.2705	30052.9	29106.1
889.8759	1498.0785	29896.55	28949.3
890.019	1499.8858	29832.05	28886.15
890.1622	1501.6924	29791.75	28846.6
890.3053	1503.4981	29713.8	28768
890.4484	1505.3032	29615.95	28666.5
890.5914	1507.1075	29564.75	28617.6
890.7345	1508.911	29494.25	28544.3
890.8776	1510.7138	29353.05	28407.55
891.0206	1512.5159	29255.5	28308.15
891.1637	1514.3172	29134.45	28186.65
891.3067	1516.1178	28989.75	28044.05
891.4497	1517.9176	28964.4	28014.5
891.5927	1519.7166	28830.3	27884.5
891.7357	1521.515	28751.45	27799.7
891.8786	1523.3126	28674.75	27732.3
892.0216	1525.1094	28553.75	27607.7
892.1645	1526.9055	28454.85	27509.35
892.3074	1528.7008	28345.05	27401.8
892.4503	1530.4954	28155.45	27206.25
892.5932	1532.2893	28090.15	27151.45
892.7361	1534.0824	27930.1	26983.6
892.879	1535.8747	27912.5	26974.8
893.0218	1537.6663	27835.2	26894.35
893.1647	1539.4572	27751	26809.3
893.3075	1541.2473	27679.95	26738.2
893.4503	1543.0367	27624.2	26687.5
893.5931	1544.8253	27487.45	26541.5
893.7359	1546.6132	27502.15	26555.6
893.8787	1548.4003	27355.9	26406
894.0214	1550.1867	27331.5	26382.85
894.1642	1551.9723	27237	26294.35
894.3069	1553.7572	27203.45	26265.9
894.4496	1555.5414	27204.9	26265.65
894.5923	1557.3247	27192.85	26259.45
894.735	1559.1074	27129.45	26196.4
894.8777	1560.8893	27112.75	26182.1
895.0204	1562.6705	27119.5	26186.25
895.163	1564.4509	27116.9	26187.15
895.3056	1566.2305	27055.6	26126.35
895.4482	1568.0094	27149.05	26221.15
895.5908	1569.7876	27173.25	26244.05
895.7334	1571.565	27088.3	26155.05
895.876	1573.3417	27105.1	26174.15
896.0186	1575.1176	27073.05	26142.45
896.1611	1576.8928	26992.1	26063.6
896.3036	1578.6672	26851.15	25930.75
896.4461	1580.4409	26674.95	25753.85
896.5886	1582.2138	26486.9	25560.5
896.7311	1583.986	26330.8	25401.55
896.8736	1585.7575	26246.45	25315.65
897.0161	1587.5282	26096	25173
897.1585	1589.2981	26035.8	25116.6
897.3009	1591.0673	25873.65	24951.2
897.4433	1592.8358	25842.35	24917.45
897.5857	1594.6035	25769.25	24842.25
897.7281	1596.3704	25711.3	24785.4
897.8705	1598.1366	25656.05	24730.05
898.0128	1599.9021	25603.1	24680.9
898.1551	1601.6668	25566.4	24640.25
898.2975	1603.4308	25565	24636.45
898.4398	1605.194	25592.85	24663.3
898.5821	1606.9564	25657.95	24740.1
898.7243	1608.7182	25688.05	24772.65
898.8666	1610.4791	25768.75	24862.6
899.0088	1612.2394	25868.35	24962.45
899.1511	1613.9988	25958.4	25042.8
899.2933	1615.7576	26138.9	25222.85
899.4355	1617.5156	26323.3	25391.4
899.5776	1619.2728	26483.05	25557.3
899.7198	1621.0293	26519.1	25595.55
899.862	1622.785	26492.4	25571.75
900.0041	1624.54	26327.2	25409.3
900.1462	1626.2942	26180	25264.2
900.2883	1628.0477	25838.5	24919.65
900.4304	1629.8005	25583.1	24660.45
900.5725	1631.5525	25356.55	24439.5
900.7145	1633.3037	25118.75	24204.75
900.8566	1635.0542	24960	24046
900.9986	1636.804	24761.5	23845.3
901.1406	1638.553	24692.9	23722.65
901.2826	1640.3013	24517.95	23601.3
901.4245	1642.0488	24428.1	23508.6
901.5665	1643.7955	24399.9	23489.25
901.7085	1645.5416	24370.35	23456.1
901.8504	1647.2868	24437.4	23522.05
901.9923	1649.0313	24446.15	23529.9
902.1342	1650.7751	24554.9	23634.3
902.2761	1652.5181	24606.6	23692.7
902.4179	1654.2604	24710.2	23797.7
902.5598	1656.0019	24955.1	24041.5
902.7016	1657.7427	25178.35	24262.7
902.8434	1659.4828	25461.15	24543.35
902.9852	1661.222	25620.5	24701.15
903.127	1662.9606	25608.8	24692.1
903.2687	1664.6984	25390.5	24471.95
903.4105	1666.4354	25015.5	24094.5
903.5522	1668.1717	24477.3	23553.1
903.6939	1669.9072	23988.55	23065.55
903.8356	1671.642	23529.45	22606.75
903.9773	1673.3761	23210.2	22291
904.119	1675.1094	22891.7	21973.3
904.2606	1676.8419	22626.55	21708.75
904.4022	1678.5737	22396.85	21477.8
904.5439	1680.3048	22229.45	21311.75
904.6855	1682.0351	22048.95	21127.85
904.827	1683.7646	21897.65	20975.7
904.9686	1685.4934	21805.25	20885.7
905.1101	1687.2215	21648.65	20731.7
905.2517	1688.9488	21507.7	20593
905.3932	1690.6754	21467.05	20551.2
905.5347	1692.4012	21406.5	20486.8
905.6761	1694.1263	21326.15	20408.75
905.8176	1695.8506	21240.3	20322.35
905.9591	1697.5742	21163.2	20249.25
906.1005	1699.297	21044.55	20132.85
906.2419	1701.0191	20968.45	20059.2
906.3833	1702.7404	20899	19989.1
906.5246	1704.461	20748.15	19833
906.666	1706.1808	20692.25	19777.75
906.8073	1707.8999	20592.4	19680.25
906.9487	1709.6182	20512.15	19602.65
907.09	1711.3358	20471	19564.8
907.2313	1713.0527	20356.25	19452.4
907.3725	1714.7688	20267.25	19353.65
907.5138	1716.4841	20215.4	19305.3
907.655	1718.1987	20198.65	19286.05
907.7962	1719.9126	20107.9	19199.95
907.9374	1721.6257	20038.25	19130.15
908.0786	1723.338	20006.45	19098.6
908.2198	1725.0496	19875.4	18966.8
908.3609	1726.7605	19856.65	18943.7
908.502	1728.4706	19756.5	18846.5
908.6431	1730.18	19648.2	18739.8
908.7842	1731.8886	19596.15	18691
908.9253	1733.5964	19595.25	18664.6
909.0664	1735.3036	19496.65	18588
909.2074	1737.0099	19461.45	18555.85
909.3484	1738.7156	19414.4	18508.3
909.4894	1740.4204	19306.45	18395.7
909.6304	1742.1246	19299.6	18391.35
909.7714	1743.8279	19248.05	18342.4
909.9123	1745.5306	19194.35	18290.45
910.0532	1747.2325	19135.2	18230.35
910.1941	1748.9336	19061.5	18155.2
910.335	1750.634	18977.25	18069.1
910.4759	1752.3336	18940.05	18036.7
910.6168	1754.0325	18904.35	18002.55
910.7576	1755.7307	18852.8	17948.7
910.8984	1757.4281	18825.25	17917.5
911.0392	1759.1247	18796.8	17878.3
911.18	1760.8206	18736.1	17818.9
911.3208	1762.5158	18727.55	17813.95
911.4615	1764.2102	18626.7	17718.3
911.6022	1765.9039	18568.7	17662.1
911.7429	1767.5968	18542.8	17643.2
911.8836	1769.289	18479.95	17576.9
912.0243	1770.9804	18468.7	17561
912.1649	1772.6711	18416.9	17506.2
912.3056	1774.361	18359.1	17450.75
912.4462	1776.0502	18333.35	17425.7
912.5868	1777.7386	18258.45	17346.9
912.7274	1779.4263	18197.9	17292.3
912.8679	1781.1132	18178.9	17276.55
913.0084	1782.7994	18122.35	17222
913.149	1784.4849	18039.4	17139.6
913.2895	1786.1696	17978.8	17072.95
913.4299	1787.8535	17981.25	17080.15
913.5704	1789.5367	17910.7	17010.75
913.7108	1791.2192	17926.2	17026.75
913.8513	1792.9009	17832.25	16899.15
913.9917	1794.5818	17781	16873
914.132	1796.2621	17767.45	16861.9
914.2724	1797.9415	17717.95	16808.3
914.4128	1799.6202	17650.85	16745.25
914.5531	1801.2982	17583.5	16677.9
914.6934	1802.9755	17554.7	16644.75
914.8337	1804.6519	17537.45	16631.9
914.9739	1806.3277	17483.3	16580.35
915.1142	1808.0027	17392.65	16492.75
915.2544	1809.6769	17384.55	16485.4
915.3946	1811.3504	17291.3	16390.5
915.5348	1813.0231	17298.45	16399.2
915.675	1814.6951	17274.9	16372.95
915.8151	1816.3664	17269.45	16362.55
915.9553	1818.0369	17225.4	16319.3
916.0954	1819.7067	17143.5	16240.9
916.2355	1821.3757	17132.1	16225.75
916.3755	1823.044	17069.8	16163.85
916.5156	1824.7115	17042.05	16137.2
916.6556	1826.3783	16935.95	16031.05
916.7956	1828.0443	16918.7	16016.3
916.9356	1829.7096	16896.75	15991.15
917.0756	1831.3741	16858.1	15950.95
917.2155	1833.0379	16826.55	15925.7
917.3555	1834.701	16762.6	15861.6
917.4954	1836.3633	16733.5	15835.65
917.6353	1838.0248	16696	15793.2
917.7751	1839.6856	16682.4	15779.55
917.915	1841.3457	16636.35	15731.2
918.0548	1843.005	16572.7	15666.9
918.1946	1844.6636	16560.45	15658.4
918.3344	1846.3214	16508.7	15602.75
918.4742	1847.9785	16489.9	15587.95
918.6139	1849.6349	16472.35	15566
918.7537	1851.2904	16425.1	15509.1
918.8934	1852.9453	16378.45	15472.2
919.0331	1854.5994	16335.6	15427.8
919.1727	1856.2528	16355.2	15444.1
919.3124	1857.9054	16293.9	15391.45
919.452	1859.5572	16285.2	15383.7
919.5916	1861.2083	16241.15	15335.35
919.7312	1862.8587	16228.1	15323.25
919.8708	1864.5084	16190.95	15283.3
920.0103	1866.1572	16119.55	15210.15
920.1498	1867.8054	16041.75	15132.65
920.2893	1869.4528	16033.15	15123.8
920.4288	1871.0994	15965.9	15058.8
920.5683	1872.7453	15946.85	15042.15
920.7077	1874.3905	15904.3	14991.1
920.8471	1876.0349	15837.95	14932.55
920.9865	1877.6786	15857.25	14949.95
921.1259	1879.3215	15834.05	14928
921.2653	1880.9637	15811.45	14905.95
921.4046	1882.6051	15735.15	14830.05
921.5439	1884.2458	15699.2	14793.25
921.6832	1885.8858	15679.45	14777.45
921.8225	1887.525	15608.45	14701.65
921.9617	1889.1634	15533.1	14628.05
922.101	1890.8011	15492.3	14584.7
922.2402	1892.4381	15479.5	14572.55
922.3794	1894.0743	15482.6	14575.95
922.5185	1895.7098	15431.95	14527.25
922.6577	1897.3446	15372.45	14468.2
922.7968	1898.9786	15328.85	14421.1
922.9359	1900.6118	15305.55	14404.15
923.075	1902.2443	15213.65	14309.3
923.214	1903.8761	15190.8	14287.7
923.3531	1905.5071	15135.35	14231.35
923.4921	1907.1374	15060.75	14156.5
923.6311	1908.7669	15049.2	14147.15
923.77	1910.3957	15039.5	14137.55
923.909	1912.0237	14902.45	14001.85
924.0479	1913.651	14874.15	13969.55
924.1868	1915.2776	14862.4	13960.4
924.3257	1916.9034	14817.75	13917.25
924.4646	1918.5285	14766.8	13866.75
924.6034	1920.1528	14704.3	13803.85
924.7422	1921.7764	14686.3	13782.5
924.881	1923.3992	14598.1	13695.9
925.0198	1925.0213	14525.55	13621.35
925.1586	1926.6427	14454.15	13554.9
925.2973	1928.2633	14490.95	13519.95
925.436	1929.8832	14414.4	13510.3
925.5747	1931.5023	14337.55	13434
925.7134	1933.1207	14301.75	13396.2
925.852	1934.7383	14286.95	13384.35
925.9906	1936.3552	14240.15	13338.4
926.1292	1937.9714	14178.65	13277.8
926.2678	1939.5868	14131.3	13226.55
926.4064	1941.2015	14102.05	13197.35
926.5449	1942.8154	14043.8	13139.3
926.6834	1944.4286	13961.5	13055.8
926.8219	1946.041	13924.95	13005.35
926.9604	1947.6528	13863.2	12953.95
927.0988	1949.2637	13845.05	12943.95
927.2372	1950.8739	13757.4	12856.5
927.3756	1952.4834	13737.55	12836.4
927.514	1954.0921	13728.35	12828.55
927.6523	1955.7001	13654.75	12750.5
927.7907	1957.3074	13632.85	12735.2
927.929	1958.9139	13572.4	12677.4
928.0673	1960.5197	13566.8	12668.75
928.2055	1962.1247	13496.45	12597.95
928.3438	1963.729	13414.8	12518.7
928.482	1965.3325	13373.9	12454.05
928.6202	1966.9353	13308.8	12413.05
928.7584	1968.5374	13288.95	12391
928.8965	1970.1387	13235.35	12336.85
929.0346	1971.7393	13200.85	12303.45
929.1727	1973.3392	13173.75	12275.65
929.3108	1974.9383	13101.05	12205.35
929.4489	1976.5366	13017.9	12122.6
929.5869	1978.1342	13032.95	12137.05
929.7249	1979.7311	13001.45	12106.75
929.8629	1981.3273	12977.7	12083.3
930.0009	1982.9227	12900.3	12006.5
930.1388	1984.5173	12854.65	11962.9
930.2767	1986.1112	12790.25	11899.7
930.4146	1987.7044	12791.7	11898.25
930.5525	1989.2968	12764.75	11869.6
930.6904	1990.8885	12731.2	11834.95
930.8282	1992.4795	12693.9	11800.9
930.966	1994.0697	12635.3	11742.85
931.1038	1995.6592	12594.55	11701.95
931.2415	1997.2479	12568.4	11672.65
931.3793	1998.8359	12543.7	11653.2
931.517	2000.4232	12485.45	11596.75
931.6547	2002.0097	12453.3	11567.9
931.7923	2003.5955	12363.3	11477.2
931.93	2005.1805	12363.4	11472.6
932.0676	2006.7648	12341.8	11452.7
932.2052	2008.3484	12299.85	11412.6
932.3427	2009.9312	12331.85	11442.65
932.4803	2011.5133	12269.75	11385.45
932.6178	2013.0946	12214.75	11327.55
932.7553	2014.6752	12197.5	11312.25
932.8928	2016.2551	12167.1	11275.55
933.0302	2017.8342	12100.35	11209.6
933.1676	2019.4126	12052.3	11165.65
933.305	2020.9902	12003.1	11116.65
933.4424	2022.5672	11983.6	11097
933.5798	2024.1433	11969.2	11078.85
933.7171	2025.7188	11907.2	11023
933.8544	2027.2935	11870.85	10984.8
933.9917	2028.8674	11847.65	10961.85
934.129	2030.4406	11820.9	10936.6
934.2662	2032.0131	11746.85	10863.4
934.4034	2033.5849	11700.35	10815.05
934.5406	2035.1559	11725.2	10841.55
934.6778	2036.7261	11736.85	10849.75
934.8149	2038.2957	11651.35	10762.4
934.952	2039.8645	11618	10726.4
935.0891	2041.4325	11634.2	10738.6
935.2262	2042.9998	11561.75	10674.4
935.3632	2044.5664	11554.15	10665.65
935.5002	2046.1323	11521	10635.45
935.6372	2047.6974	11458	10572.75
935.7742	2049.2617	11406.2	10520.35
935.9111	2050.8254	11427.05	10536.4
936.048	2052.3883	11397.05	10506.55
936.1849	2053.9504	11349.7	10459.05
936.3218	2055.5118	11326.25	10434.65
936.4586	2057.0725	11270.5	10378.7
936.5955	2058.6325	11250	10362.2
936.7323	2060.1917	11215.1	10329.45
936.869	2061.7502	11218.35	10328.6
937.0058	2063.3079	11141.35	10257.5
937.1425	2064.8649	11114.8	10224.6
937.2792	2066.4212	11090.7	10200.85
937.4159	2067.9767	11056.45	10169.6
937.5525	2069.5315	10993.5	10106
937.6891	2071.0856	10970	10083.2
937.8257	2072.6389	10931.4	10046.35
937.9623	2074.1915	10870.25	9985.2
938.0989	2075.7433	10813.35	9926.55
938.2354	2077.2945	10793.2	9904.85
938.3719	2078.8448	10759.55	9866.9
938.5084	2080.3945	10735.05	9843.05
938.6448	2081.9434	10717.6	9826.75
938.7812	2083.4916	10701.25	9809.15
938.9176	2085.039	10656.55	9758.2
939.054	2086.5857	10623.2	9724.35
939.1903	2088.1317	10597.05	9699.85
939.3267	2089.677	10587.95	9691.25
939.463	2091.2215	10539.8	9643.2
939.5992	2092.7652	10529.9	9628.2
939.7355	2094.3083	10509.85	9611.65
939.8717	2095.8506	10487.65	9595.5
940.0079	2097.3921	10486.85	9595.2
940.1441	2098.933	10473.8	9582.5
940.2802	2100.4731	10416.3	9523.4
940.4163	2102.0124	10405.25	9503.6
940.5524	2103.5511	10365.8	9472.1
940.6885	2105.089	10344.55	9449.5
940.8245	2106.6261	10330.7	9438.05
940.9606	2108.1626	10295.15	9402.3
941.0965	2109.6983	10281.2	9363.65
941.2325	2111.2332	10225.4	9331.55
941.3684	2112.7675	10205.75	9310.9
941.5044	2114.301	10182.15	9286.75
941.6403	2115.8337	10165.15	9271.25
941.7761	2117.3657	10111.2	9218.15
941.912	2118.897	10137.7	9244.3
942.0478	2120.4276	10084.6	9185.8
942.1835	2121.9575	10030	9135.05
942.3193	2123.4866	10011.6	9114.8
942.455	2125.0149	10001.75	9104.7
942.5907	2126.5426	9945.35	9055.2
942.7264	2128.0695	9906.1	9014.75
942.8621	2129.5956	9891.15	9005.75
942.9977	2131.1211	9926.5	9034.15
943.1333	2132.6458	9864.15	8973.3
943.2689	2134.1698	9835.8	8941.65
943.4044	2135.693	9795.3	8896.1
943.54	2137.2155	9759.8	8861.3
943.6755	2138.7373	9759.65	8866.05
943.8109	2140.2584	9723.55	8834.9
943.9464	2141.7787	9699.6	8807.25
944.0818	2143.2983	9669.05	8783.15
944.2172	2144.8171	9608.35	8723.7
944.3526	2146.3353	9583.9	8693.7
944.4879	2147.8527	9554.75	8665.1
944.6232	2149.3693	9553.15	8659.05
944.7585	2150.8853	9518.6	8619.65
944.8938	2152.4005	9485.6	8592.1
945.029	2153.9149	9459.95	8564.75
945.1642	2155.4287	9524.1	8524.2
945.2994	2156.9417	9455.5	8560.25
945.4346	2158.454	9385.95	8492.75
945.5697	2159.9655	9360.5	8470.05
945.7048	2161.4764	9355.95	8468.9
945.8399	2162.9865	9324.7	8435.55
945.9749	2164.4958	9287.75	8397.45
946.1099	2166.0045	9243.5	8352.4
946.2449	2167.5124	9248	8355.35
946.3799	2169.0195	9213.5	8321.1
946.5148	2170.526	9192.95	8299.05
946.6498	2172.0317	9173.2	8277.8
946.7846	2173.5367	9134.75	8242.95
946.9195	2175.0409	9110.35	8219.25
947.0543	2176.5445	9106.1	8214.65
947.1891	2178.0473	9092.95	8198.25
947.3239	2179.5494	9073.7	8173.8
947.4587	2181.0507	9013.95	8121.75
947.5934	2182.5513	8986.9	8092.95
947.7281	2184.0512	8973.7	8079.2
947.8628	2185.5504	8946.8	8052.4
947.9974	2187.0488	8884.4	7994.5
948.132	2188.5465	8841.5	7951.5
948.2666	2190.0435	8847.25	7956.2
948.4012	2191.5397	8814.15	7920.65
948.5357	2193.0353	8803.05	7908.8
948.6702	2194.5301	8767.75	7869.35
948.8047	2196.0241	8700.45	7802.85
948.9392	2197.5175	8689.3	7791.95
949.0736	2199.0101	8636.6	7737.2
949.208	2200.502	8610.45	7714.95
949.3424	2201.9931	8599.55	7708.05
949.4767	2203.4835	8571.75	7682.3
949.611	2204.9733	8568.7	7663.95
949.7453	2206.4622	8547.8	7659.55
949.8796	2207.9505	8509.85	7619.85
950.0138	2209.438	8445.25	7560.2
950.148	2210.9248	8429.45	7540.15
950.2822	2212.4109	8394.55	7501.9
950.4164	2213.8962	8380.85	7481.95
950.5505	2215.3809	8371.6	7468.75
950.6846	2216.8648	8374.1	7475.75
950.8186	2218.3479	8337.5	7433.45
950.9527	2219.8304	8318.2	7413.85
951.0867	2221.3121	8285.2	7383.75
951.2207	2222.7931	8245	7347.1
951.3546	2224.2733	8202.5	7305
951.4886	2225.7529	8174.9	7281.8
951.6225	2227.2317	8157.8	7262.9
951.7563	2228.7098	8133.15	7243.95
951.8902	2230.1872	8087.15	7198.85
952.024	2231.6638	8098.25	7209.95
952.1578	2233.1397	8055.05	7162.05
952.2916	2234.6149	8042.9	7154.1
952.4253	2236.0894	8003.55	7111.75
952.559	2237.5632	7970.25	7076.05
952.6927	2239.0362	7961	7069.15
952.8263	2240.5085	7921.8	7028.8
952.9599	2241.9801	7901.65	7009.8
953.0935	2243.4509	7900.25	7003.75
953.2271	2244.921	7881.9	6984.4
953.3606	2246.3904	7836.25	6935.4
953.4941	2247.8591	7803.3	6906
953.6276	2249.3271	7792.6	6898.15
953.7611	2250.7943	7770.65	6873.7
953.8945	2252.2608	7742.45	6846
954.0279	2253.7266	7720.1	6824.35
954.1612	2255.1917	7694.05	6798.8
954.2946	2256.656	7668.65	6777.7
954.4279	2258.1197	7640.55	6751.15
954.5612	2259.5826	7608.2	6716.15
954.6944	2261.0447	7623	6728.85
954.8276	2262.5062	7572.85	6675.95
954.9608	2263.9669	7574.8	6677
955.094	2265.4269	7569.6	6673.9
955.2271	2266.8862	7527.8	6637
955.3602	2268.3448	7498.7	6606.55
955.4933	2269.8026	7489.8	6598.5
955.6264	2271.2598	7458.9	6566.4
955.7594	2272.7162	7444.9	6554.25
955.8924	2274.1719	7445.85	6550.65
956.0253	2275.6268	7420.3	6522.7
956.1583	2277.0811	7393.9	6497.35
956.2912	2278.5346	7372.5	6479.75
956.4241	2279.9874	7371.7	6482.9
956.5569	2281.4395	7326.2	6436.65
956.6897	2282.8908	7317.5	6421.65
956.8225	2284.3414	7307.25	6412.55
956.9553	2285.7914	7267.6	6374.35
957.088	2287.2406	7266.35	6370.5
957.2207	2288.689	7256.15	6357.45
957.3534	2290.1368	7230.3	6327.9
957.486	2291.5838	7191.8	6290.75
957.6186	2293.0302	7174.85	6275
957.7512	2294.4758	7143.35	6246.65
957.8838	2295.9206	7133.45	6236.45
958.0163	2297.3648	7113.65	6223.25
958.1488	2298.8082	7088.15	6192.75
958.2813	2300.251	7072.6	6174.95
958.4137	2301.693	7057.55	6158
958.5461	2303.1343	7047.55	6149.4
958.6785	2304.5748	7015.9	6122.55
958.8108	2306.0147	6992.6	6103.2
958.9432	2307.4538	6964.55	6071.9
959.0754	2308.8922	6945.65	6058.4
959.2077	2310.3299	6943.6	6053.35
959.3399	2311.7669	6898.4	6007.15
959.4721	2313.2031	6863.8	5969.95
959.6043	2314.6387	6846.75	5951.85
959.7365	2316.0735	6820.7	5926.35
959.8686	2317.5076	6828.5	5932.65
960.0006	2318.941	6806.7	5909.7
960.1327	2320.3737	6813.05	5914.4
960.2647	2321.8056	6769.2	5868.55
960.3967	2323.2369	6749.4	5853.05
960.5287	2324.6674	6734.05	5840.15
960.6606	2326.0972	6700.05	5803.85
960.7925	2327.5263	6682.65	5789.55
960.9244	2328.9547	6677.15	5782.2
961.0562	2330.3823	6665	5765.1
961.1881	2331.8092	6651.65	5749
961.3198	2333.2355	6635.2	5735.05
961.4516	2334.661	6614.9	5719.4
961.5833	2336.0858	6580.25	5683
961.715	2337.5098	6566.65	5670.2
961.8467	2338.9332	6556.8	5661.2
961.9783	2340.3558	6528.75	5634.5
962.1099	2341.7778	6512.05	5622.15
962.2415	2343.199	6487.3	5590.65
962.373	2344.6195	6488.4	5595.65
962.5045	2346.0393	6457.85	5565.4
962.636	2347.4583	6464.7	5569.25
962.7675	2348.8767	6446.75	5550.75
962.8989	2350.2943	6442.5	5542.5
963.0303	2351.7113	6408.35	5509.45
963.1617	2353.1275	6379.45	5478.95
963.293	2354.543	6372.55	5464.5
963.4243	2355.9578	6362.75	5465.2
963.5556	2357.3718	6301.85	5407.9
963.6868	2358.7852	6277.25	5384.5
963.818	2360.1978	6243.05	5350.4
963.9492	2361.6098	6254.6	5362.15
964.0803	2363.021	6241.65	5341.4
964.2114	2364.4315	6220.9	5325.2
964.3425	2365.8413	6199.8	5303.75
964.4736	2367.2504	6192	5300.45
964.6046	2368.6587	6147.65	5254.05
964.7356	2370.0664	6121.4	5228.55
964.8666	2371.4733	6112.7	5218.7
964.9975	2372.8795	6086.35	5190.85
965.1284	2374.285	6065.9	5171.05
965.2593	2375.6899	6054.75	5161.8
965.3901	2377.0939	6010.2	5116.05
965.5209	2378.4973	6006.6	5112.35
965.6517	2379.9	5980.55	5086.5
965.7825	2381.3019	5950.3	5058.35
965.9132	2382.7032	5960.25	5068.35
966.0439	2384.1037	5944.25	5056.8
966.1745	2385.5035	5924.25	5034.7
966.3051	2386.9027	5874.4	4985.55
966.4357	2388.3011	5884.3	4990.85
966.5663	2389.6987	5871.95	4979.6
966.6968	2391.0957	5844.6	4950.95
966.8273	2392.492	5820.8	4929
966.9578	2393.8876	5781.7	4889.6
967.0882	2395.2824	5748.25	4856.8
967.2186	2396.6765	5732.35	4839.75
967.349	2398.07	5721.6	4828.25
967.4793	2399.4627	5712.95	4816.75
967.6097	2400.8547	5704.55	4810.2
967.7399	2402.246	5689.35	4790.55
967.8702	2403.6366	5658.25	4764.8
968.0004	2405.0265	5641.35	4749.75
968.1306	2406.4156	5633	4735.3
968.2607	2407.8041	5606.85	4710.75
968.3909	2409.1918	5606.3	4710
968.521	2410.5789	5562.55	4669.6
968.651	2411.9652	5550.15	4654.7
968.781	2413.3508	5553.95	4659.25
968.911	2414.7358	5515.55	4620.85
969.041	2416.12	5492.75	4600.2
969.1709	2417.5035	5494.4	4602.35
969.3008	2418.8863	5472.05	4578
969.4307	2420.2684	5461.9	4568.25
969.5606	2421.6497	5414.55	4518.5
969.6904	2423.0304	5411	4516.9
969.8201	2424.4104	5392.05	4496.5
969.9499	2425.7896	5370.2	4475.45
970.0796	2427.1682	5359.6	4467.9
970.2093	2428.546	5350.95	4457.5
970.3389	2429.9232	5337.75	4443.05
970.4685	2431.2996	5321.75	4427.6
970.5981	2432.6753	5319.55	4425.1
970.7277	2434.0503	5291.35	4396.2
970.8572	2435.4246	5286	4392.75
970.9867	2436.7982	5251.7	4351.85
971.1161	2438.1711	5229.4	4336.3
971.2456	2439.5433	5216.65	4321.95
971.375	2440.9148	5200.6	4299.6
971.5043	2442.2856	5177.5	4283.55
971.6336	2443.6557	5174.7	4280.65
971.7629	2445.025	5156.55	4262.8
971.8922	2446.3937	5132.85	4239.15
972.0214	2447.7617	5120.65	4225.05
972.1506	2449.1289	5111.8	4216.05
972.2798	2450.4955	5115.45	4216.2
972.4089	2451.8613	5088.35	4196.35
972.538	2453.2265	5086.1	4192.8
972.6671	2454.5909	5078	4183
972.7961	2455.9546	5057.35	4162.25
972.9251	2457.3177	5035.3	4141.85
973.0541	2458.68	5039.3	4144.8
973.1831	2460.0416	5040.4	4147.4
973.312	2461.4025	5015.7	4120.5
973.4408	2462.7627	4997	4091.95
973.5697	2464.1222	4962.4	4071.7
973.6985	2465.4811	4959.45	4068.75
973.8273	2466.8392	4946.95	4054.15
973.956	2468.1966	4921.8	4026.8
974.0847	2469.5533	4952.1	4056.9
974.2134	2470.9093	4919.5	4027.6
974.3421	2472.2645	4912.1	4014.85
974.4707	2473.6191	4881.05	3987.65
974.5993	2474.973	4867.75	3975.55
974.7278	2476.3262	4863.35	3967.9
974.8563	2477.6787	4838.85	3946.8
974.9848	2479.0305	4815.5	3925
975.1132	2480.3816	4816.65	3921.95
975.2417	2481.7319	4793.9	3901.4
975.37	2483.0816	4779.55	3884.25
975.4984	2484.4306	4775.7	3883.8
975.6267	2485.7789	4763.2	3870.5
975.755	2487.1264	4735.25	3843.75
975.8833	2488.4733	4720.5	3829.5
976.0115	2489.8195	4707.65	3801.2
976.1397	2491.165	4681.35	3786.2
976.2678	2492.5097	4672.9	3779.35
976.3959	2493.8538	4650.25	3759
976.524	2495.1972	4632.4	3739.7
976.6521	2496.5398	4614.8	3719.9
976.7801	2497.8818	4600.95	3704.45
976.9081	2499.2231	4603.85	3707.6
977.036	2500.5637	4584.8	3688.1
977.164	2501.9035	4575.4	3678.45
977.2918	2503.2427	4558	3657.8
977.4197	2504.5812	4542.5	3648.6
977.5475	2505.919	4538.9	3641.7
977.6753	2507.256	4528.7	3634.4
977.8031	2508.5924	4516	3622.6
977.9308	2509.9281	4513.65	3613.85
978.0585	2511.2631	4477.75	3583.5
978.1861	2512.5974	4462.55	3570.95
978.3137	2513.9309	4470.25	3576.8
978.4413	2515.2638	4464.95	3544.45
978.5689	2516.596	4438.8	3546.9
978.6964	2517.9275	4420.25	3526.9
978.8239	2519.2583	4401.4	3508.35
978.9513	2520.5884	4393.05	3498.55
979.0788	2521.9178	4374.7	3480.9
979.2062	2523.2465	4363.15	3469.7
979.3335	2524.5745	4337.7	3444.05
979.4608	2525.9018	4347.5	3455.3
979.5881	2527.2284	4335.65	3442.95
979.7154	2528.5543	4335.65	3443.35
979.8426	2529.8796	4285	3391
979.9698	2531.2041	4295.25	3400.55
980.0969	2532.5279	4305.75	3412.65
980.224	2533.851	4278.95	3386.65
980.3511	2535.1735	4266	3373.45
980.4781	2536.4952	4261	3367.05
980.6052	2537.8163	4244.85	3349.45
980.7321	2539.1366	4239.4	3345.6
980.8591	2540.4562	4221.15	3324.9
980.986	2541.7752	4224.8	3330.35
981.1129	2543.0935	4206.15	3311.35
981.2397	2544.411	4213.4	3317.7
981.3665	2545.7279	4199.05	3304.25
981.4933	2547.0441	4198.7	3303.65
981.62	2548.3596	4192.35	3294.3
981.7467	2549.6744	4168.35	3274.15
981.8734	2550.9885	4162	3259.6
982.0001	2552.3019	4140.25	3246.45
982.1267	2553.6146	4139.2	3242
982.2532	2554.9266	4130.35	3235.4
982.3798	2556.2379	4118.2	3221.75
982.5063	2557.5485	4122.65	3228.8
982.6327	2558.8585	4087.9	3188.1
982.7592	2560.1677	4093.75	3193.45
982.8856	2561.4762	4086.65	3192.7
983.0119	2562.7841	4081.5	3182.6
983.1383	2564.0913	4068.8	3174.7
983.2646	2565.3977	4066.95	3174.4
983.3908	2566.7035	4051.55	3157.95
983.517	2568.0086	4049.85	3152.7
983.6432	2569.313	4032.75	3135.75
983.7694	2570.6167	4025.2	3126.15
983.8955	2571.9197	4010	3116.4
984.0216	2573.222	4007.9	3110.5
984.1476	2574.5236	3999.35	3104.65
984.2737	2575.8246	3990.45	3091.55
984.3996	2577.1248	3983.9	3087.35
984.5256	2578.4244	3975.35	3081.95
984.6515	2579.7232	3986.65	3092.25
984.7774	2581.0214	3986.5	3062.2
984.9032	2582.3189	3964.35	3072.4
985.029	2583.6157	3975.15	3075.95
985.1548	2584.9118	3949.85	3057.85
985.2806	2586.2072	3948.75	3053
985.4063	2587.5019	3925.65	3032
985.5319	2588.7959	3932.05	3036.95
985.6576	2590.0893	3920.35	3023.75
985.7832	2591.3819	3906.5	3012.7
985.9087	2592.6739	3903.4	3010.05
986.0343	2593.9652	3887	2991.15
986.1597	2595.2557	3886.7	2992.45
986.2852	2596.5456	3867.15	2969.25
986.4106	2597.8348	3862.55	2969.05
986.536	2599.1234	3832.55	2940.55
986.6614	2600.4112	3837.95	2942.95
986.7867	2601.6983	3847.05	2949.1
986.912	2602.9848	3823.2	2926.45
987.0372	2604.2705	3816.8	2915.9
987.1624	2605.5556	3797.35	2903.5
987.2876	2606.84	3779.6	2886.65
987.4128	2608.1237	3784.45	2887.7
987.5379	2609.4067	3767.25	2873.4
987.6629	2610.689	3760.65	2858.4
987.788	2611.9707	3753.1	2854.9
987.913	2613.2516	3730.05	2831.45
988.0379	2614.5319	3724	2830.15
988.1629	2615.8115	3702.1	2805.45
988.2878	2617.0903	3687.7	2793.35
988.4126	2618.3685	3679.5	2785.1
988.5375	2619.6461	3670.25	2774.8
988.6622	2620.9229	3671.9	2778.1
988.787	2622.199	3655.35	2760.9
988.9117	2623.4745	3652.85	2757.7
989.0364	2624.7493	3637.35	2743.9
989.161	2626.0234	3634.05	2738.25
989.2857	2627.2968	3611.2	2716.55
989.4102	2628.5695	3597.55	2701.9
989.5348	2629.8415	3591.3	2697.75
989.6593	2631.1128	3586.3	2689.55
989.7837	2632.3835	3564.4	2671.95
989.9082	2633.6535	3564.15	2671.6
990.0326	2634.9228	3567.95	2674.95
990.1569	2636.1914	3532.4	2637.85
990.2812	2637.4593	3537.45	2640.75
990.4055	2638.7265	3532.15	2638.45
990.5298	2639.9931	3512.15	2618.1
990.654	2641.259	3503.25	2609.95
990.7782	2642.5242	3494.9	2599.45
990.9023	2643.7887	3499.35	2606.75
991.0264	2645.0525	3496.65	2605.35
991.1505	2646.3156	3497.8	2588.75
991.2745	2647.5781	3467.95	2573.65
991.3985	2648.8398	3447.55	2554
991.5225	2650.1009	3453.2	2552.9
991.6464	2651.3613	3441.25	2549.45
991.7703	2652.6211	3433.35	2538.65
991.8942	2653.8801	3405.8	2515.5
992.018	2655.1385	3408.95	2512.75
992.1418	2656.3961	3402.9	2510.45
992.2655	2657.6531	3410.4	2515.75
992.3892	2658.9094	3392.15	2501.2
992.5129	2660.1651	3387.2	2495.55
992.6366	2661.42	3373.2	2480.1
992.7602	2662.6743	3365.1	2471.65
992.8837	2663.9279	3375.35	2481.45
993.0073	2665.1808	3376.85	2482.6
993.1307	2666.433	3357.35	2462.05
993.2542	2667.6846	3360.4	2467.7
993.3776	2668.9354	3351.6	2454.85
993.501	2670.1856	3338.05	2444.8
993.6244	2671.4351	3333.25	2441.55
993.7477	2672.6839	3340.25	2446.75
993.8709	2673.9321	3317.7	2425.65
993.9942	2675.1795	3327.65	2433.9
994.1174	2676.4263	3309.85	2416.75
994.2405	2677.6724	3308.6	2414.45
994.3637	2678.9179	3301.05	2408.05
994.4868	2680.1626	3299.3	2404.75
994.6098	2681.4067	3304.4	2410.8
994.7328	2682.6501	3285.45	2391.35
994.8558	2683.8928	3271	2378.9
994.9788	2685.1348	3254.75	2362.7
995.1017	2686.3761	3248.55	2356.3
995.2245	2687.6168	3237.05	2344.2
995.3474	2688.8568	3231.85	2337.9
995.4702	2690.0961	3225.65	2333.9
995.5929	2691.3348	3219.05	2326.65
995.7156	2692.5727	3211.5	2319.35
995.8383	2693.81	3205.5	2312.8
995.961	2695.0466	3193.25	2303.15
996.0836	2696.2826	3183.2	2288
996.2062	2697.5178	3192.25	2295.95
996.3287	2698.7524	3175.05	2282.6
996.4512	2699.9863	3176.55	2279.75
996.5737	2701.2195	3160.25	2270.5
996.6961	2702.452	3153.85	2259.1
996.8185	2703.6839	3147.05	2251.35
996.9408	2704.9151	3139.2	2247.1
997.0631	2706.1456	3136.65	2246.65
997.1854	2707.3755	3135.6	2242.55
997.3077	2708.6046	3133.1	2237.1
997.4299	2709.8331	3132.55	2240.3
997.552	2711.0609	3134.15	2241.1
997.6742	2712.2881	3130.1	2237.25
997.7963	2713.5145	3149.85	2257.15
997.9183	2714.7403	3142.75	2253.3
998.0403	2715.9654	3136	2243.4
998.1623	2717.1899	3149.2	2243.65
998.2842	2718.4136	3156.45	2262.85
998.4062	2719.6367	3149.15	2259.25
998.528	2720.8591	3142.25	2247.75
998.6498	2722.0809	3141.6	2247.7
998.7716	2723.3019	3161.45	2267.05
998.8934	2724.5223	3149.3	2255.5
999.0151	2725.7421	3136.9	2243.45
999.1368	2726.9611	3157.8	2265.9
999.2584	2728.1795	3141.7	2245.55
999.38	2729.3972	3116.25	2225.55
999.5016	2730.6142	3113.5	2213.1
999.6231	2731.8306	3092.4	2199.05
999.7446	2733.0462	3071.35	2177.55
999.8661	2734.2612	3048.05	2154.15
999.9875	2735.4756	3028.75	2138.05
1000.1089	2736.6892	3007.05	2116.55
1000.2302	2737.9022	2987.8	2098.75
1000.3515	2739.1145	2955.6	2064.95
1000.4728	2740.3262	2955.55	2056.45
1000.594	2741.5372	2933.2	2040.85
1000.7152	2742.7475	2899.15	2007.45
1000.8363	2743.9571	2896.35	2003.65
1000.9575	2745.1661	2886.3	1991.4
1001.0785	2746.3744	2872.25	1981.85
1001.1996	2747.582	2853.6	1963.2
1001.3206	2748.7889	2855.65	1963.2
1001.4415	2749.9952	2834.3	1943.75
1001.5625	2751.2008	2810.65	1919.45
1001.6833	2752.4057	2812	1918.7
1001.8042	2753.61	2804.1	1912.25
1001.925	2754.8136	2791.1	1896.3
1002.0458	2756.0165	2788.9	1898.25
1002.1665	2757.2188	2782.05	1893.1
1002.2872	2758.4204	2772.5	1881.55
1002.4078	2759.6213	2764.9	1872.2
1002.5285	2760.8215	2768.25	1874.25
1002.649	2762.0211	2753.55	1860.6
1002.7696	2763.22	2738.85	1845.05
1002.8901	2764.4182	2743.95	1851.3
1003.0106	2765.6158	2723.3	1833.75
1003.131	2766.8127	2732.2	1842.5
1003.2514	2768.009	2714.7	1825
1003.3717	2769.2045	2710.95	1819.05
1003.492	2770.3994	2708.1	1813.7
1003.6123	2771.5936	2683.85	1793.2
1003.7325	2772.7872	2688.1	1800.45
1003.8527	2773.9801	2664.7	1774.75
1003.9729	2775.1723	2678.15	1769.7
1004.093	2776.3639	2664.75	1775.4
1004.2131	2777.5548	2658.5	1769
1004.3331	2778.745	2651.4	1761
1004.4531	2779.9346	2650.55	1759.85
1004.5731	2781.1235	2650.55	1760.25
1004.693	2782.3117	2642.75	1754.4
1004.8129	2783.4992	2635.3	1746.75
1004.9328	2784.6861	2637.35	1747.9
1005.0526	2785.8723	2632.35	1741.1
1005.1723	2787.0579	2631.45	1740.6
1005.2921	2788.2428	2641.2	1750.95
1005.4118	2789.427	2639.8	1753
1005.5314	2790.6106	2637.7	1749.95
1005.651	2791.7935	2646.55	1757.65
1005.7706	2792.9757	2649.9	1760.05
1005.8902	2794.1573	2657.7	1765.75
1006.0097	2795.3382	2665.55	1775.85
1006.1291	2796.5184	2651.35	1764.85
1006.2485	2797.698	2674.5	1785.15
1006.3679	2798.8769	2679.5	1791.15
1006.4873	2800.0551	2696.55	1807.1
1006.6066	2801.2327	2711.95	1819.7
1006.7258	2802.4096	2715.1	1826.4
1006.8451	2803.5859	2723	1832.9
1006.9642	2804.7615	2735.1	1846.85
1007.0834	2805.9364	2761	1873.15
1007.2025	2807.1106	2760.55	1872.1
1007.3216	2808.2842	2790.4	1900.1
1007.4406	2809.4572	2818.5	1929.15
1007.5596	2810.6294	2844.2	1955.85
1007.6785	2811.801	2875.55	1987.3
1007.7975	2812.972	2911.5	2020.5
1007.9163	2814.1423	2949.65	2060
1008.0352	2815.3119	2994.7	2104.45
1008.154	2816.4808	3036.35	2152.45
1008.2727	2817.6491	3075.5	2187.75
1008.3914	2818.8167	3102.45	2214.25
1008.5101	2819.9837	3155.5	2262.8
1008.6288	2821.15	3199.85	2310.7
1008.7474	2822.3157	3231.4	2345.05
1008.8659	2823.4807	3279.7	2390.95
1008.9844	2824.645	3328.8	2439.35
1009.1029	2825.8086	3351.7	2463.7
1009.2214	2826.9716	3389.4	2501.35
1009.3398	2828.134	3435.9	2549
1009.4581	2829.2957	3454.95	2565.8
1009.5764	2830.4567	3488.55	2600.1
1009.6947	2831.617	3500.7	2611.2
1009.813	2832.7767	3509.85	2621.7
1009.9312	2833.9358	3504.4	2616.95
1010.0493	2835.0941	3504.65	2614.25
1010.1675	2836.2519	3493.15	2606.05
1010.2855	2837.4089	3472.85	2585.6
1010.4036	2838.5653	3462.8	2575.15
1010.5216	2839.7211	3460.85	2574.5
1010.6396	2840.8761	3464.9	2576.4
1010.7575	2842.0306	3479.55	2590.3
1010.8754	2843.1843	3489.45	2604.4
1010.9932	2844.3374	3532.7	2644.95
1011.111	2845.4899	3589.3	2699.3
1011.2288	2846.6417	3643.15	2754.8
1011.3465	2847.7928	3709.45	2821.3
1011.4642	2848.9433	3784.6	2896.05
1011.5818	2850.0931	3844.15	2955.75
1011.6995	2851.2422	3923.9	3034.55
1011.817	2852.3907	3975.4	3085.25
1011.9345	2853.5385	4029.15	3139.35
1012.052	2854.6857	4092.75	3194.9
1012.1695	2855.8323	4110.3	3222.85
1012.2869	2856.9781	4157.8	3271.6
1012.4042	2858.1233	4220.15	3332.75
1012.5216	2859.2679	4235.6	3347.3
1012.6389	2860.4118	4286.4	3400.5
1012.7561	2861.555	4333.2	3437.7
1012.8733	2862.6976	4364.5	3474.8
1012.9905	2863.8395	4373.55	3488.5
1013.1076	2864.9808	4403.25	3514.35
1013.2247	2866.1214	4423	3537.85
1013.3417	2867.2614	4428.1	3540.75
1013.4587	2868.4007	4435.55	3547.5
1013.5757	2869.5393	4434.95	3544.95
1013.6926	2870.6773	4452.25	3561.9
1013.8095	2871.8146	4461.55	3569.4
1013.9263	2872.9513	4461.5	3572.8
1014.0431	2874.0874	4424.85	3537.6
1014.1599	2875.2227	4446.8	3559.3
1014.2766	2876.3574	4416.55	3529.3
1014.3933	2877.4915	4383	3496.9
1014.51	2878.6249	4355.3	3471.25
1014.6266	2879.7577	4335.4	3448.3
1014.7431	2880.8898	4317.25	3420.7
1014.8596	2882.0212	4290.25	3404
1014.9761	2883.152	4269.55	3383.15
1015.0925	2884.2821	4254.45	3369.15
1015.2089	2885.4116	4246.3	3359.95
1015.3253	2886.5405	4247.9	3360.3
1015.4416	2887.6686	4247.15	3357.15
1015.5579	2888.7962	4248.8	3363.2
1015.6741	2889.923	4252.1	3365.9
1015.7903	2891.0493	4249.4	3364.15
1015.9065	2892.1748	4265.8	3378.55
1016.0226	2893.2997	4271.9	3383.95
1016.1387	2894.424	4281.95	3396.2
1016.2547	2895.5476	4285.25	3397.8
1016.3707	2896.6706	4310.7	3423.8
1016.4866	2897.7929	4326.4	3437.35
1016.6025	2898.9145	4339.7	3452.45
1016.7184	2900.0355	4370.15	3483.65
1016.8342	2901.1559	4411.7	3524.5
1016.95	2902.2756	4428.7	3540.2
1017.0658	2903.3946	4456.75	3571.15
1017.1815	2904.513	4470.45	3580.1
1017.2971	2905.6308	4479.7	3595.05
1017.4127	2906.7479	4512.45	3625.1
1017.5283	2907.8643	4529.3	3643.6
1017.6439	2908.9801	4542.15	3656.6
1017.7594	2910.0953	4547.35	3660.75
1017.8748	2911.2098	4534.55	3646.5
1017.9902	2912.3236	4531.15	3635.8
1018.1056	2913.4368	4513.65	3623.8
1018.2209	2914.5494	4498.2	3610.4
1018.3362	2915.6613	4475.3	3584.35
1018.4515	2916.7725	4440.75	3550.9
1018.5667	2917.8831	4414.15	3526.45
1018.6819	2918.9931	4363.3	3474.5
1018.797	2920.1024	4332.2	3447.05
1018.9121	2921.211	4313.2	3426.05
1019.0271	2922.319	4279.5	3389.6
1019.1421	2923.4264	4275.8	3391.1
1019.2571	2924.5331	4256.95	3372.35
1019.372	2925.6391	4251.05	3366.4
1019.4869	2926.7445	4237.35	3353.35
1019.6017	2927.8493	4228.05	3342.9
1019.7165	2928.9534	4233.05	3348
1019.8313	2930.0569	4216.05	3327.55
1019.946	2931.1597	4213.65	3327.15
1020.0606	2932.2619	4201.85	3313.45
1020.1753	2933.3634	4198.8	3314.6
1020.2899	2934.4643	4187.5	3297.05
1020.4044	2935.5645	4167.25	3276.1
1020.5189	2936.6641	4130.85	3240.5
1020.6334	2937.763	4084.9	3201.45
1020.7478	2938.8613	4033.45	3146.2
1020.8622	2939.959	3980.5	3090
1020.9765	2941.056	3921.35	3036.05
1021.0908	2942.1523	3834.8	2948.15
1021.2051	2943.248	3753.45	2868.05
1021.3193	2944.3431	3666.15	2779.55
1021.4334	2945.4375	3574.05	2689
1021.5476	2946.5313	3477.85	2593.35
1021.6617	2947.6244	3382.9	2497.65
1021.7757	2948.7169	3271.6	2384.05
1021.8897	2949.8087	3192.4	2307.3
1022.0037	2950.8999	3110.1	2223.45
1022.1176	2951.9904	3032.75	2148.75
1022.2315	2953.0803	2956.1	2070.45
1022.3453	2954.1696	2890.2	2003.25
1022.4591	2955.2582	2835.75	1954.2
1022.5728	2956.3462	2784.9	1900.2
1022.6865	2957.4335	2741.15	1855.25
1022.8002	2958.5202	2711.05	1822.6
1022.9138	2959.6062	2664.8	1781.6
1023.0274	2960.6916	2654.85	1769
1023.141	2961.7764	2639.05	1752.8
1023.2545	2962.8605	2613.6	1728.65
1023.3679	2963.9439	2595.05	1709.75
1023.4813	2965.0267	2582.05	1697
1023.5947	2966.1089	2579.4	1670.65
1023.708	2967.1905	2557.15	1671.9
1023.8213	2968.2714	2565.65	1683.55
1023.9346	2969.3516	2552.3	1666.3
1024.0478	2970.4312	2566.8	1675
1024.1609	2971.5102	2554.3	1668.4
1024.274	2972.5885	2547.2	1663.1
1024.3871	2973.6662	2551.15	1658.9
1024.5002	2974.7432	2537.9	1653.3
1024.6132	2975.8196	2532.65	1648.7
1024.7261	2976.8954	2524.85	1640.75
1024.839	2977.9705	2516.15	1630.15
1024.9519	2979.045	2490.65	1606.6
1025.0647	2980.1188	2472.05	1588.85
1025.1775	2981.192	2459.75	1578.15
1025.2902	2982.2645	2429.15	1544.1
1025.4029	2983.3364	2412	1528.1
1025.5156	2984.4077	2389.95	1503.25
1025.6282	2985.4783	2361.1	1472.15
1025.7407	2986.5483	2329.3	1444.85
1025.8532	2987.6177	2290.6	1404.9
1025.9657	2988.6864	2246.85	1362.55
1026.0782	2989.7545	2226.7	1341.7
1026.1906	2990.8219	2181.3	1298.45
1026.3029	2991.8887	2150.2	1263.15
1026.4152	2992.9548	2123.8	1236.75
1026.5275	2994.0204	2090.75	1206.45
1026.6397	2995.0852	2071.7	1188.65
1026.7519	2996.1495	2032.5	1147.7
1026.864	2997.2131	2009.75	1126.05
1026.9761	2998.276	1986.5	1102.8
1027.0882	2999.3383	1966.1	1079.9
1027.2002	3000.4	1943.6	1057.35
1027.3122	3001.4611	1927.45	1044.3
1027.4241	3002.5215	1905.3	1021.1
1027.536	3003.5812	1884.55	1002.45
1027.6478	3004.6404	1879.85	995.2
1027.7596	3005.6989	1870.7	983.9
1027.8714	3006.7567	1857.2	972.35
1027.9831	3007.8139	1871.55	971.05
1028.0947	3008.8705	1842.1	958.3
1028.2064	3009.9264	1842.2	941.4
1028.3179	3010.9818	1835.5	953
1028.4295	3012.0364	1817.05	932.45
1028.541	3013.0905	1816.05	931.25
1028.6524	3014.1439	1809.9	926.55
1028.7638	3015.1966	1804.8	922.95
1028.8752	3016.2487	1801.2	915.15
1028.9865	3017.3002	1806.9	917
1029.0978	3018.3511	1791.35	908.7
1029.209	3019.4013	1791.55	907.7
1029.3202	3020.4509	1796.8	913.2
1029.4314	3021.4998	1794.25	907.1
1029.5425	3022.5481	1787.9	904.65
1029.6535	3023.5958	1786.1	901.55
1029.7645	3024.6428	1785	899.95
1029.8755	3025.6892	1783.7	899.3
1029.9864	3026.735	1780.75	896.55
1030.0973	3027.7802	1783.1	898.6
1030.2082	3028.8247	1778.25	895.95
1030.319	3029.8685	1777.05	893.4
1030.4297	3030.9118	1775.3	887.55
1030.5404	3031.9544	1777.45	894.5
1030.6511	3032.9963	1776.15	892.55
1030.7617	3034.0376	1782.95	900.15
1030.8723	3035.0783	1787.9	901.6
1030.9829	3036.1184	1788.95	904.7
1031.0934	3037.1578	1774.95	892.15
1031.2038	3038.1966	1793.1	909.3
1031.3142	3039.2348	1787.1	903.55
1031.4246	3040.2723	1791.75	898.25
1031.5349	3041.3092	1776.35	892.25
1031.6452	3042.3455	1771.7	886.5
1031.7554	3043.3811	1773.5	889.05
1031.8656	3044.4161	1768.6	885.15
1031.9758	3045.4505	1762.75	879.95
1032.0859	3046.4842	1759.25	872.75
1032.1959	3047.5173	1749.25	866.95
1032.3059	3048.5498	1745.95	862.45
1032.4159	3049.5816	1746.05	861.8
1032.5258	3050.6128	1733.65	848.15
1032.6357	3051.6434	1728	842.65
1032.7455	3052.6734	1712.3	827.15
1032.8553	3053.7027	1704.7	821.65
1032.9651	3054.7314	1698.05	812.65
1033.0748	3055.7594	1692.1	810.15
1033.1845	3056.7868	1685.9	799.95
1033.2941	3057.8136	1681.1	798.55
1033.4037	3058.8398	1674.25	791.5
1033.5132	3059.8653	1667.8	781.55
1033.6227	3060.8902	1667.8	785.8
1033.7321	3061.9145	1655.35	773
1033.8415	3062.9381	1652.3	769.45
1033.9509	3063.9612	1654.3	755
1034.0602	3064.9835	1638.05	755.55
1034.1694	3066.0053	1637.45	752.9
1034.2787	3067.0264	1624.15	741.25
1034.3878	3068.0469	1609.95	724.8
1034.497	3069.0668	1613.35	729.1
1034.6061	3070.086	1598.9	717
1034.7151	3071.1046	1582.65	696.8
1034.8241	3072.1226	1581.7	697.85
1034.9331	3073.1399	1575.3	693.4
1035.042	3074.1567	1556.05	672.5
1035.1508	3075.1727	1553.7	668.1
1035.2597	3076.1882	1537.4	655.1
1035.3684	3077.203	1531.85	648.35
1035.4772	3078.2173	1524.25	639.05
1035.5859	3079.2308	1512.85	628.35
1035.6945	3080.2438	1501.9	616.25
1035.8031	3081.2561	1492.05	607.85
1035.9117	3082.2678	1492.25	609.8
1036.0202	3083.2789	1482.45	599.5
1036.1286	3084.2893	1476.35	594.75
1036.2371	3085.2991	1472.5	589.8
1036.3454	3086.3083	1458.55	572.9
1036.4538	3087.3169	1457.65	572
1036.562	3088.3248	1446.35	560.5
1036.6703	3089.3321	1437.65	552.95
1036.7785	3090.3388	1435.3	554.4
1036.8866	3091.3449	1428.8	543.8
1036.9948	3092.3503	1429.4	543.1
1037.1028	3093.3551	1416.85	536.55
1037.2108	3094.3593	1411.2	529.5
1037.3188	3095.3629	1412.2	530
1037.4267	3096.3658	1409.2	525.45
1037.5346	3097.3681	1398.8	515
1037.6425	3098.3698	1405.85	523.6
1037.7503	3099.3708	1402.3	514.1
1037.858	3100.3713	1392.65	509.85
1037.9657	3101.3711	1389.4	506.9
1038.0734	3102.3702	1516.95	500.15
1038.181	3103.3688	1383.25	499.9
1038.2886	3104.3667	1379.8	498.05
1038.3961	3105.364	1372.75	491.55
1038.5036	3106.3607	1368.05	484.95
1038.611	3107.3568	1368.6	485
1038.7184	3108.3522	1363	483.35
1038.8257	3109.347	1361.25	477.55
1038.933	3110.3412	1361.5	474.8
1039.0403	3111.3348	1350.75	468.7
1039.1475	3112.3277	1345.6	462.4
1039.2547	3113.32	1348.25	468.2
1039.3618	3114.3117	1336.1	452.75
1039.4689	3115.3028	1341.9	460.65
1039.5759	3116.2932	1340.05	456.35
1039.6829	3117.2831	1342.05	454.2
1039.7898	3118.2723	1329.55	446.9
1039.8967	3119.2608	1331.5	448.25
1040.0035	3120.2488	1326	444.5
1040.1103	3121.2361	1324.2	440.2
1040.2171	3122.2229	1319.05	436.35
1040.3238	3123.209	1316.05	432.65
1040.4305	3124.1944	1312.6	431.8
1040.5371	3125.1793	1313.85	430.2
1040.6437	3126.1635	1308.2	427.05
1040.7502	3127.1471	1304.15	423
1040.8567	3128.1301	1298.75	417.4
1040.9631	3129.1125	1305.5	422.65
1041.0695	3130.0942	1300.1	416.8
1041.1759	3131.0753	1303.55	413.1
1041.2822	3132.0558	1296.75	412.05
1041.3884	3133.0357	1289.8	408.9
1041.4946	3134.015	1286.75	402
1041.6008	3134.9936	1288.25	403.25
1041.7069	3135.9716	1308.5	403.8
1041.813	3136.949	1277.4	395.6
1041.919	3137.9258	1294.55	394.8
1042.025	3138.902	1278.1	391.45
1042.1309	3139.8775	1279.05	397.65
1042.2368	3140.8524	1270.95	389.45
1042.3427	3141.8267	1268.1	385.05
1042.4485	3142.8004	1270.7	388.25
1042.5542	3143.7735	1274.1	384.7
1042.6599	3144.7459	1269.2	385.55
1042.7656	3145.7178	1258.75	375.95
1042.8712	3146.689	1258.75	379.05
1042.9768	3147.6596	1260.1	375.65
1043.0823	3148.6295	1255.2	373.65
1043.1878	3149.5989	1253.15	371.35
1043.2932	3150.5676	1254.15	374
1043.3986	3151.5357	1247	367.2
1043.5039	3152.5032	1248.65	367.65
1043.6092	3153.4701	1240.25	357.05
1043.7145	3154.4364	1243.55	360.45
1043.8197	3155.402	1241.7	360.65
1043.9248	3156.367	1245.8	364
1044.03	3157.3315	1273.45	349.7
1044.135	3158.2952	1232.4	349.1
1044.24	3159.2584	1232.15	351.1
1044.345	3160.221	1225.1	343.05
1044.4499	3161.1829	1224.2	342.95
1044.5548	3162.1442	1226.55	343.2
1044.6596	3163.105	1222.7	341.5
1044.7644	3164.065	1220.1	337
1044.8692	3165.0245	1223.1	338.25
1044.9739	3165.9834	1216.05	335.7
1045.0785	3166.9416	1215.95	335.35
1045.1831	3167.8993	1209.95	328.8
1045.2877	3168.8563	1212.6	331.1
1045.3922	3169.8127	1204.95	323.8
1045.4966	3170.7684	1208.6	327.05
1045.6011	3171.7236	1207.3	325.3
1045.7054	3172.6782	1206.05	324.5
1045.8098	3173.6321	1199.95	317.35
1045.914	3174.5854	1197.85	313.7
1046.0183	3175.5381	1196.55	313.9
1046.1224	3176.4902	1197.45	316.2
1046.2266	3177.4417	1195.35	313.65
1046.3307	3178.3926	1190.25	310.05
1046.4347	3179.3428	1193.4	314.5
1046.5387	3180.2924	1190.3	309
1046.6427	3181.2415	1189.85	307.75
1046.7466	3182.1899	1187.35	302.55
1046.8504	3183.1377	1183.3	301.15
1046.9542	3184.0848	1183.95	297.7
1047.058	3185.0314	1184.6	303.45
1047.1617	3185.9773	1177.45	295.55
1047.2654	3186.9227	1175.85	292.45
1047.369	3187.8674	1176.85	295.25
1047.4726	3188.8115	1178.5	295.45
1047.5761	3189.755	1169.05	289.35
1047.6796	3190.6979	1170.9	288.15
1047.783	3191.6402	1166.7	287.4
1047.8864	3192.5818	1165.55	283.3
1047.9898	3193.5229	1174.65	289.6
1048.0931	3194.4633	1168.95	288.8
1048.1963	3195.4031	1166.45	285.2
1048.2995	3196.3423	1164.35	283.6
1048.4027	3197.2809	1164.3	283.6
1048.5058	3198.2189	1162.85	281.75
1048.6089	3199.1563	1165.65	278.9
1048.7119	3200.0931	1158.05	277
1048.8148	3201.0292	1150.05	269.8
1048.9178	3201.9648	1157.4	278.1
1049.0206	3202.8997	1160.15	275.05
1049.1235	3203.834	1156.9	274.8
1049.2262	3204.7677	1148.5	267.75
1049.329	3205.7008	1149.55	266.7
1049.4317	3206.6333	1146.7	265.85
1049.5343	3207.5652	1142.25	261.15
1049.6369	3208.4964	1143.5	262.9
1049.7394	3209.4271	1143.35	264.65
1049.8419	3210.3571	1138.7	257.35
1049.9444	3211.2865	1142.2	257.8
1050.0468	3212.2154	1140.35	258.2
1050.1491	3213.1436	1139.05	255.8
1050.2514	3214.0712	1142.05	255.45
1050.3537	3214.9982	1133.1	253.55
1050.4559	3215.9246	1131.05	247.35
1050.5581	3216.8503	1129.2	249.2
1050.6602	3217.7755	1133.75	251.35
1050.7623	3218.7001	1129.1	248.8
1050.8643	3219.624	1129.15	246.75
1050.9663	3220.5473	1131.75	250.15
1051.0682	3221.4701	1126.8	244.85
1051.1701	3222.3922	1122.4	238.65
1051.2719	3223.3137	1124	243.35
1051.3737	3224.2346	1124.9	244.55
1051.4754	3225.1549	1119.9	239.45
1051.5771	3226.0746	1114.1	234.05
1051.6788	3226.9937	1116.8	236.95
1051.7804	3227.9121	1117.4	235.3
1051.8819	3228.83	1121.35	239.1
1051.9834	3229.7473	1116.7	233.95
1052.0849	3230.6639	1115.05	235.15
1052.1863	3231.5799	1114	233.2
1052.2876	3232.4954	1108.8	225.9
1052.3889	3233.4102	1107.25	226.65
1052.4902	3234.3244	1105.05	225
1052.5914	3235.238	1100.05	220.4
1052.6926	3236.151	1128.7	224.95
1052.7937	3237.0634	1107.1	226.45
1052.8948	3237.9752	1102.45	221.3
1052.9958	3238.8864	1102.35	221.7
1053.0968	3239.797	1102.25	222.2
1053.1977	3240.7069	1093.95	211.75
1053.2986	3241.6163	1096.45	213.5
1053.3994	3242.5251	1096.05	216
1053.5002	3243.4332	1097.5	217.15
1053.6009	3244.3408	1093.65	211.1
1053.7016	3245.2477	1092.15	211.35
1053.8022	3246.154	1088.7	206.2
1053.9028	3247.0598	1090.45	209.7
1054.0034	3247.9649	1089.15	207.55
1054.1039	3248.8694	1085.6	204.4
1054.2043	3249.7733	1087.55	208.3
1054.3047	3250.6766	1083.15	202
1054.4051	3251.5793	1086.95	203.7
1054.5054	3252.4814	1082.1	203
1054.6056	3253.3829	1078.7	198.45
1054.7058	3254.2838	1076.1	196.55
1054.806	3255.1841	1076.85	196.05
1054.9061	3256.0838	1074.6	195.65
1055.0061	3256.9829	1069.2	191.45
1055.1062	3257.8814	1071.9	188.7
1055.2061	3258.7792	1072.05	189.8
1055.306	3259.6765	1068.05	185.9
1055.4059	3260.5731	1063.7	182.45
1055.5057	3261.4692	1065.55	184.55
1055.6055	3262.3647	1065.9	185.8
1055.7052	3263.2595	1052.45	171.45
1055.8049	3264.1538	1053.45	173.5
1055.9045	3265.0474	1058.35	177.5
1056.0041	3265.9404	1049.1	169.35
1056.1036	3266.8329	1048.8	168.15
1056.2031	3267.7247	1055.65	164.75
1056.3025	3268.616	1037	157
1056.4019	3269.5066	1035.15	155.7
1056.5013	3270.3966	1032.8	151.45
1056.6005	3271.286	1025.8	148.85
