Software Version:	3.9.2.0
Unit SN:	10000200
Spectrometer SN:	6960
Date:	3/26/2024 1:10:05 PM
Data Line Index:	25
Spectral Points:	2048
Integration time (ms):	125
Averages:	20
Delay (ms):	30000
Sequence Number:	1
Processing:	dark subtract
Laser Power (mW):	305
Laser Current (mA):	818
Laser Diode Temp (C):	25.1
Laser Case Temp (C):	26.1
System Temp (C):	26.1
Spectrometer Temp (C):	23.9
CCD Temp (C):	0.009
Secondary Temp (C):	20.011
Heatsink Temp (C):	21.665
CCDPCB Temp (C):	36.251
SecondaryPCB Temp (C):	31.182

Wavelength	RamanShift	Raw Counts	Dark Subtracted
787.061	30.1047	426.2	15.65
787.2016	32.3739	423.7	15.75
787.3422	34.6426	427.95	19
787.4828	36.9109	431	18.45
787.6235	39.1787	433.45	17.35
787.7642	41.4461	440.25	19.4
787.9049	43.7131	444.05	19.6
788.0456	45.9796	449.3	22.9
788.1863	48.2456	453.1	21.4
788.3271	50.5112	456.45	20.75
788.4679	52.7764	461.95	25.05
788.6087	55.0411	465.45	24.2
788.7496	57.3054	474.55	28.1
788.8904	59.5692	476.35	27.95
789.0313	61.8326	482.35	29.7
789.1722	64.0955	490.1	34.3
789.3132	66.3579	499.1	36.4
789.4541	68.6199	505.45	42.15
789.5951	70.8815	513.9	47.65
789.7361	73.1426	536.6	66.7
789.8771	75.4032	586.6	112.45
790.0181	77.6634	701.35	223
790.1592	79.9231	973.1	488.65
790.3003	82.1824	1543.65	1054.45
790.4414	84.4412	2503.5	2010.4
790.5825	86.6995	3793.1	3289.8
790.7237	88.9574	5088.1	4579.25
790.8648	91.2148	6035.2	5524.85
791.006	93.4717	6558.6	6040.75
791.1472	95.7282	6752.95	6232.2
791.2885	97.9842	6827.55	6306.5
791.4297	100.2398	6837.25	6312.45
791.571	102.4949	6799.8	6273
791.7123	104.7495	6788.1	6255.65
791.8536	107.0036	6748.95	6215.55
791.9949	109.2573	6704.6	6171.85
792.1363	111.5105	6667.5	6131.9
792.2777	113.7632	6577.7	6042.6
792.4191	116.0154	6528.35	5981.65
792.5605	118.2672	6496.55	5959.65
792.7019	120.5185	6397.75	5858.45
792.8434	122.7693	6369.5	5824.55
792.9849	125.0197	6301.55	5755.1
793.1264	127.2696	6244.95	5694.25
793.2679	129.519	6208.8	5656.3
793.4094	131.7679	6217.8	5661.75
793.551	134.0163	6188.95	5629.05
793.6926	136.2642	6191.65	5627.15
793.8342	138.5117	6199.7	5627.3
793.9758	140.7587	6169.6	5602.5
794.1175	143.0052	6142.45	5571.75
794.2591	145.2512	6110.55	5539.05
794.4008	147.4967	6061.8	5492.4
794.5425	149.7417	6018.05	5445.7
794.6842	151.9863	5980.85	5405.3
794.826	154.2304	5975.7	5395.35
794.9677	156.4739	5955.25	5369.4
795.1095	158.717	5956.6	5370.55
795.2513	160.9596	5970.1	5379.5
795.3931	163.2017	5966.85	5371.65
795.535	165.4433	5979.05	5384.05
795.6768	167.6844	5956.9	5358.85
795.8187	169.925	5950	5349.5
795.9606	172.1651	5896.05	5291.6
796.1025	174.4047	5869.25	5262.95
796.2445	176.6439	5844.35	5234.85
796.3864	178.8825	5803.25	5190.15
796.5284	181.1206	5783.3	5164.9
796.6704	183.3582	5781.65	5161
796.8124	185.5954	5759.75	5139.15
796.9544	187.832	5761.95	5137.95
797.0965	190.0681	5764.95	5137.8
797.2386	192.3037	5754.45	5123.9
797.3806	194.5388	5755.55	5120.75
797.5228	196.7734	5767.75	5132.4
797.6649	199.0075	5775.3	5134.5
797.807	201.2411	5792.8	5149
797.9492	203.4742	5825.35	5182
798.0914	205.7068	5835.7	5191.4
798.2336	207.9389	5837.9	5193.6
798.3758	210.1704	5856.3	5208.9
798.518	212.4015	5837.05	5188.3
798.6603	214.632	5837	5186.4
798.8025	216.862	5820.4	5176.15
798.9448	219.0915	5832.4	5196.75
799.0871	221.3205	5805.6	5171.55
799.2294	223.549	5833.4	5204.9
799.3718	225.777	5809.55	5181.85
799.5141	228.0044	5808.6	5174.85
799.6565	230.2314	5812.4	5183
799.7989	232.4578	5785.4	5154.7
799.9413	234.6837	5778.15	5137.7
800.0837	236.909	5770.3	5128.9
800.2262	239.1339	5778.95	5113.75
800.3687	241.3582	5763.8	5112.4
800.5111	243.582	5766	5085.25
800.6536	245.8053	5787.3	5115.6
800.7961	248.0281	5756.95	5092.35
800.9387	250.2503	5764.9	5096
801.0812	252.472	5759.9	5083.75
801.2238	254.6932	5778.7	5103.05
801.3664	256.9139	5755.2	5074.55
801.509	259.134	5765.5	5081.15
801.6516	261.3536	5766.05	5086
801.7942	263.5727	5782.85	5097.15
801.9369	265.7912	5797.25	5116.5
802.0795	268.0092	5823.1	5138.8
802.2222	270.2267	5870.05	5182.65
802.3649	272.4436	5900.6	5212.2
802.5076	274.6601	5908.65	5212.3
802.6504	276.8759	5923.6	5235.1
802.7931	279.0913	5928.95	5234.55
802.9359	281.3061	5931.6	5238.65
803.0787	283.5204	5948.1	5252.45
803.2215	285.7341	5981.7	5283
803.3643	287.9473	5996.75	5286.1
803.5071	290.16	5970.6	5265.6
803.6499	292.3721	5956.35	5256.3
803.7928	294.5837	5906.65	5204.8
803.9357	296.7947	5872.45	5169.5
804.0786	299.0052	5856.3	5153.6
804.2215	301.2152	5822.95	5116.15
804.3644	303.4246	5819.2	5115.35
804.5074	305.6334	5791	5087.6
804.6503	307.8418	5785.1	5081.45
804.7933	310.0495	5770.4	5061.75
804.9363	312.2568	5732.95	5028.3
805.0793	314.4635	5675.9	4966.7
805.2223	316.6696	5655.8	4945.3
805.3653	318.8752	5604.05	4885.25
805.5084	321.0802	5575.1	4863.15
805.6514	323.2847	5556.9	4841.2
805.7945	325.4887	5548.65	4835.55
805.9376	327.692	5558.8	4844.6
806.0807	329.8949	5579.5	4861.35
806.2238	332.0972	5613.05	4893.4
806.367	334.2989	5620.15	4898.1
806.5101	336.5001	5615.25	4891.4
806.6533	338.7007	5605.65	4881.65
806.7965	340.9008	5569.85	4846.2
806.9397	343.1003	5535.2	4807.4
807.0829	345.2992	5517.15	4789.3
807.2261	347.4976	5473.05	4743.85
807.3693	349.6955	5447.9	4716.05
807.5126	351.8927	5425.15	4689.8
807.6559	354.0895	5392.75	4647.85
807.7991	356.2856	5386.05	4647.1
807.9424	358.4812	5346.9	4612.6
808.0857	360.6763	5371.9	4634.9
808.2291	362.8707	5354.15	4615.75
808.3724	365.0646	5350.05	4608.45
808.5158	367.258	5337.5	4593.25
808.6591	369.4508	5350	4602.2
808.8025	371.643	5376.2	4630.9
808.9459	373.8346	5367.45	4618.1
809.0893	376.0257	5425.6	4672.8
809.2327	378.2162	5419.55	4667.55
809.3762	380.4062	5448.45	4695.8
809.5196	382.5956	5396.9	4642.8
809.6631	384.7844	5363.05	4610.3
809.8066	386.9726	5310.6	4553.8
809.9501	389.1603	5275.45	4517.65
810.0936	391.3474	5287.65	4496.45
810.2371	393.5339	5248.9	4491.65
810.3806	395.7199	5239.7	4485.85
810.5241	397.9052	5262.85	4510.8
810.6677	400.09	5278.15	4525.6
810.8113	402.2743	5309.65	4560.9
810.9548	404.4579	5302.35	4553.45
811.0984	406.641	5353.9	4604.5
811.2421	408.8235	5395.05	4642.8
811.3857	411.0054	5442.9	4689.85
811.5293	413.1868	5522.65	4766.6
811.673	415.3675	5637.15	4878.2
811.8166	417.5477	5657.7	4898.05
811.9603	419.7273	5594.75	4833.05
812.104	421.9064	5452.1	4685.95
812.2477	424.0848	5356.75	4593.7
812.3914	426.2627	5291	4525.15
812.5351	428.4399	5261.4	4494.75
812.6788	430.6166	5197.85	4425.5
812.8226	432.7928	5158.9	4383.9
812.9663	434.9683	5111.05	4339.3
813.1101	437.1432	5078.4	4302.5
813.2539	439.3176	5056.95	4282.85
813.3977	441.4914	5028.7	4253.3
813.5415	443.6645	5056.6	4279.7
813.6853	445.8371	5034.8	4255.45
813.8291	448.0091	5009.35	4230.15
813.973	450.1806	5010.9	4232.3
814.1168	452.3514	4987.75	4204.7
814.2607	454.5216	4984.4	4197.2
814.4046	456.6913	4956.4	4171.7
814.5485	458.8603	4956.25	4171.4
814.6924	461.0288	4949.05	4168.05
814.8363	463.1967	4953.75	4171.6
814.9802	465.3639	4941.1	4157
815.1241	467.5306	4935.85	4150.2
815.2681	469.6967	4924	4136.25
815.412	471.8622	4912.05	4126.25
815.556	474.0271	4908.35	4124
815.7	476.1914	4905.55	4115.6
815.844	478.3551	4894.7	4106.85
815.988	480.5182	4923.05	4134.5
816.132	482.6807	4918.05	4129
816.276	484.8426	4910.7	4124.25
816.4201	487.0039	4957.3	4166.75
816.5641	489.1647	4968.4	4177.55
816.7082	491.3248	5022.1	4231.3
816.8522	493.4843	5024.85	4234.25
816.9963	495.6432	5009.75	4219.3
817.1404	497.8015	4992.35	4196.75
817.2845	499.9592	4957.7	4165
817.4286	502.1163	4914.4	4121.15
817.5727	504.2728	4882.75	4087.05
817.7168	506.4287	4879.35	4086.4
817.861	508.5839	4849.75	4055.35
818.0051	510.7386	4844.15	4047.6
818.1493	512.8927	4854.85	4050.65
818.2935	515.0461	4853.25	4055.35
818.4377	517.199	4855.25	4058.85
818.5818	519.3512	4881.65	4084.55
818.726	521.5029	4935.95	4133.7
818.8703	523.6539	4963.9	4166.55
819.0145	525.8043	4986.15	4184.65
819.1587	527.9541	4952.7	4150
819.303	530.1033	4887.8	4086.3
819.4472	532.2519	4852	4050.75
819.5915	534.3999	4821.35	4017.4
819.7357	536.5472	4823.25	4019.55
819.88	538.694	4823.05	4019.8
820.0243	540.8401	4836.85	4030.45
820.1686	542.9856	4850.25	4040.6
820.3129	545.1305	4870.85	4061.95
820.4572	547.2748	4872.3	4063.55
820.6016	549.4185	4880.3	4070.85
820.7459	551.5615	4872.7	4063
820.8902	553.704	4884.25	4073.2
821.0346	555.8458	4885.15	4074.05
821.1789	557.987	4905	4094.75
821.3233	560.1276	4941.95	4132.2
821.4677	562.2675	4975.15	4164.05
821.6121	564.4069	5010.65	4199.35
821.7565	566.5456	5036	4224.2
821.9009	568.6837	5026.8	4217.1
822.0453	570.8212	4977.6	4165.05
822.1897	572.958	4916.7	4100.6
822.3342	575.0942	4881.05	4069.05
822.4786	577.2299	4842.6	4029.4
822.6231	579.3648	4819.25	4007.9
822.7675	581.4992	4780.75	3968.55
822.912	583.6329	4770.4	3960.25
823.0565	585.766	4797.55	3984.5
823.201	587.8985	4805.7	3993.75
823.3454	590.0304	4842.9	4017.15
823.4899	592.1616	4836.4	4019.45
823.6345	594.2922	4856.55	4040.35
823.779	596.4222	4819.35	4000.35
823.9235	598.5515	4776.85	3960.35
824.068	600.6802	4748.4	3927.3
824.2126	602.8083	4687	3867.9
824.3571	604.9358	4684.2	3863.1
824.5017	607.0626	4668.75	3849.1
824.6462	609.1888	4665.15	3843.25
824.7908	611.3144	4666.3	3843.65
824.9354	613.4393	4694.7	3872.05
825.08	615.5636	4723.25	3900.5
825.2246	617.6873	4755.75	3932.55
825.3692	619.8103	4797.05	3971.85
825.5138	621.9327	4791.9	3965.45
825.6584	624.0544	4782.6	3960.65
825.803	626.1756	4740.65	3917
825.9477	628.2961	4678.25	3855.2
826.0923	630.4159	4658.15	3831.9
826.237	632.5351	4670.85	3844.7
826.3816	634.6537	4659.3	3834.25
826.5263	636.7716	4647.6	3819.6
826.6709	638.8889	4642.4	3814
826.8156	641.0056	4648.7	3819.45
826.9603	643.1216	4656.55	3829.25
827.105	645.237	4662.5	3831.65
827.2497	647.3518	4660.5	3831.95
827.3944	649.4659	4642.35	3811.35
827.5391	651.5793	4619.15	3792.8
827.6838	653.6922	4600.25	3770.5
827.8285	655.8043	4584.85	3756.4
827.9733	657.9159	4568.65	3736.95
828.118	660.0268	4550.35	3717.1
828.2627	662.137	4551.25	3720.85
828.4075	664.2466	4568.25	3734.9
828.5522	666.3556	4567.95	3736.35
828.697	668.4639	4565.3	3730.25
828.8418	670.5716	4550.05	3720.05
828.9865	672.6786	4531.6	3698.05
829.1313	674.785	4522.7	3685.5
829.2761	676.8907	4511.75	3677.15
829.4209	678.9958	4503.8	3671.5
829.5657	681.1002	4506.45	3672.55
829.7105	683.204	4503.9	3665.5
829.8553	685.3072	4499.15	3662.85
830.0001	687.4097	4505.45	3669.9
830.1449	689.5115	4492.4	3654.15
830.2898	691.6127	4498.5	3664.2
830.4346	693.7132	4493.15	3653.6
830.5794	695.8131	4485.2	3641.05
830.7243	697.9123	4504.25	3665.85
830.8691	700.0109	4491.4	3651.7
831.014	702.1089	4502.15	3662.05
831.1588	704.2061	4506.5	3668.15
831.3037	706.3028	4533.7	3691.95
831.4486	708.3987	4540.1	3699.1
831.5935	710.4941	4539.95	3699.85
831.7383	712.5887	4546.55	3707.25
831.8832	714.6827	4560.15	3715.05
832.0281	716.7761	4532	3692.05
832.173	718.8688	4527.45	3685.85
832.3179	720.9608	4520.15	3675.75
832.4628	723.0522	4522.65	3677.4
832.6077	725.1429	4523.2	3678.95
832.7527	727.233	4583.9	3741.45
832.8976	729.3224	4606.3	3762.45
833.0425	731.4112	4645.3	3801.55
833.1874	733.4993	4670.3	3826.3
833.3324	735.5867	4628.55	3783.6
833.4773	737.6735	4583.05	3737.35
833.6222	739.7596	4545.65	3698.25
833.7672	741.845	4515.5	3669.85
833.9122	743.9298	4501.5	3654.1
834.0571	746.014	4526.85	3681.85
834.2021	748.0974	4537.8	3691.05
834.347	750.1802	4548.4	3701.55
834.492	752.2624	4518.2	3671.4
834.637	754.3439	4497.15	3646.9
834.782	756.4247	4471.45	3613.95
834.9269	758.5048	4444	3596.6
835.0719	760.5843	4444.2	3592.35
835.2169	762.6631	4436.4	3587.55
835.3619	764.7413	4482.95	3637.4
835.5069	766.8188	4528.6	3679.4
835.6519	768.8956	4571	3719.85
835.7969	770.9718	4620.7	3769.75
835.9419	773.0473	4599.75	3750.75
836.0869	775.1221	4571.05	3720.2
836.232	777.1962	4554.1	3702.8
836.377	779.2697	4575.75	3723.15
836.522	781.3426	4666.55	3797.45
836.667	783.4147	4708.5	3857.3
836.8121	785.4862	4712.55	3861.8
836.9571	787.557	4626.85	3775.9
837.1021	789.6271	4534.75	3682.5
837.2472	791.6966	4443.15	3591.8
837.3922	793.7654	4363.05	3508.15
837.5373	795.8335	4316.65	3463.55
837.6823	797.901	4276.2	3424.25
837.8274	799.9678	4278.45	3423.5
837.9724	802.0339	4271.65	3420.85
838.1175	804.0993	4266	3404.4
838.2626	806.1641	4246.1	3389.7
838.4076	808.2282	4224.3	3371
838.5527	810.2916	4230.6	3374.1
838.6978	812.3544	4206.95	3353.3
838.8428	814.4164	4178.75	3325
838.9879	816.4778	4197.05	3340.85
839.133	818.5385	4202.65	3349.95
839.2781	820.5986	4220.2	3367.1
839.4232	822.658	4261.55	3404.55
839.5682	824.7166	4287.5	3433.5
839.7133	826.7747	4348.4	3491.25
839.8584	828.832	4396.4	3540.5
840.0035	830.8886	4419.15	3561.05
840.1486	832.9446	4455.6	3598.9
840.2937	834.9999	4413.75	3557.9
840.4388	837.0545	4365.1	3507.1
840.5839	839.1085	4315.7	3456.8
840.729	841.1618	4253.35	3391.95
840.8741	843.2143	4207	3348.55
841.0192	845.2662	4160.45	3304.4
841.1643	847.3175	4174.15	3317.9
841.3095	849.368	4137.45	3280.5
841.4546	851.4179	4127.25	3268.15
841.5997	853.467	4110.8	3252.8
841.7448	855.5155	4112.1	3254.65
841.8899	857.5633	4114.9	3257.1
842.0351	859.6105	4113.05	3255.25
842.1802	861.6569	4103.7	3244
842.3253	863.7027	4088.6	3228.7
842.4704	865.7478	4070.45	3211.45
842.6156	867.7922	4053.7	3193.05
842.7607	869.8359	4039.85	3179.75
842.9058	871.8789	4032.35	3172.75
843.0509	873.9212	4045.9	3155.4
843.1961	875.9629	4022.05	3163.45
843.3412	878.0039	4030.55	3167.9
843.4863	880.0441	4037.05	3175.4
843.6315	882.0837	4041.3	3180.85
843.7766	884.1226	4055.25	3192.65
843.9218	886.1609	4076.55	3216.1
844.0669	888.1984	4109.3	3248.35
844.212	890.2352	4133.45	3274.15
844.3572	892.2714	4123.75	3258
844.5023	894.3069	4121.85	3260.2
844.6475	896.3416	4070	3206.7
844.7926	898.3757	4037	3171.85
844.9377	900.4091	4016	3152.1
845.0829	902.4418	4010.95	3142.5
845.228	904.4739	4018.75	3153.55
845.3732	906.5052	4025.8	3162.55
845.5183	908.5358	4018.95	3157
845.6635	910.5658	4017.25	3154.95
845.8086	912.595	3970.7	3107.05
845.9538	914.6236	3931.5	3068.75
846.0989	916.6515	3907.5	3045.95
846.2441	918.6786	3881.55	3015
846.3892	920.7051	3871.6	3004.55
846.5344	922.7309	3874.75	3010.4
846.6795	924.756	3875.1	3009.85
846.8246	926.7804	3850.25	2985.35
846.9698	928.8041	3845.35	2976.85
847.1149	930.8272	3851.35	2987.8
847.2601	932.8495	3858.2	2990.9
847.4052	934.8711	3859.9	2992
847.5504	936.892	3847.6	2981.45
847.6955	938.9123	3844.9	2978.25
847.8407	940.9318	3857.7	2990.15
847.9858	942.9506	3877.15	3009.15
848.131	944.9688	3861.95	2993
848.2761	946.9862	3835.3	2970.15
848.4213	949.003	3800.5	2931.75
848.5664	951.019	3775.45	2908.4
848.7115	953.0344	3763.75	2896.65
848.8567	955.0491	3739.95	2871.55
849.0018	957.063	3740.2	2873.5
849.147	959.0763	3734.2	2859.5
849.2921	961.0888	3718.6	2848.8
849.4373	963.1007	3710.45	2840.3
849.5824	965.1119	3696.95	2828.7
849.7275	967.1223	3691.4	2824.2
849.8727	969.1321	3684.25	2817.7
850.0178	971.1412	3670.3	2803.4
850.1629	973.1495	3662.45	2794
850.3081	975.1572	3653.45	2769.3
850.4532	977.1641	3646.3	2779.15
850.5983	979.1704	3646.9	2777.6
850.7435	981.1759	3633.85	2761.85
850.8886	983.1808	3627.05	2755.8
851.0337	985.1849	3628.05	2748.1
851.1788	987.1884	3601.1	2729.1
851.324	989.1911	3587.85	2713.7
851.4691	991.1932	3594.55	2723.3
851.6142	993.1945	3578.4	2708.6
851.7593	995.1951	3572.8	2703.8
851.9045	997.1951	3584.6	2710.65
852.0496	999.1943	3552.45	2682.75
852.1947	1001.1928	3541.9	2670.05
852.3398	1003.1906	3535.4	2661.95
852.4849	1005.1877	3560.7	2688.2
852.63	1007.1841	3554.3	2683.6
852.7751	1009.1798	3541	2669.4
852.9202	1011.1748	3536.5	2667.05
853.0653	1013.1691	3513.3	2641
853.2104	1015.1627	3480.75	2609.7
853.3555	1017.1556	3461.15	2590.25
853.5006	1019.1477	3430.4	2558.7
853.6457	1021.1392	3406.15	2535.75
853.7908	1023.1299	3383.4	2512.85
853.9359	1025.12	3384.55	2512.15
854.081	1027.1093	3378.8	2508.6
854.2261	1029.0979	3385.6	2516.9
854.3712	1031.0859	3389.8	2519.85
854.5163	1033.0731	3380.95	2510.8
854.6613	1035.0596	3374.4	2502.6
854.8064	1037.0454	3363.8	2491.9
854.9515	1039.0304	3351.9	2477.55
855.0965	1041.0148	3336.35	2463.75
855.2416	1042.9985	3296.75	2423.85
855.3867	1044.9814	3293.05	2419.85
855.5317	1046.9636	3276.3	2398.95
855.6768	1048.9452	3256.15	2383.1
855.8219	1050.926	3260.5	2389.8
855.9669	1052.9061	3273.8	2400.85
856.112	1054.8855	3264.1	2391.1
856.257	1056.8642	3265.95	2394.3
856.4021	1058.8421	3251.6	2375
856.5471	1060.8194	3259.3	2384.5
856.6921	1062.7959	3242.2	2367.95
856.8372	1064.7717	3237.85	2360.9
856.9822	1066.7469	3227.65	2352.8
857.1272	1068.7213	3227.65	2349.8
857.2723	1070.695	3226.9	2353.8
857.4173	1072.6679	3238.8	2364.15
857.5623	1074.6402	3246.65	2371.05
857.7073	1076.6117	3266.25	2387.95
857.8523	1078.5826	3246.95	2373.8
857.9973	1080.5527	3206.25	2327.95
858.1423	1082.5221	3168.4	2295.15
858.2873	1084.4908	3134	2260.6
858.4323	1086.4587	3123.65	2249.05
858.5773	1088.426	3094.5	2217.55
858.7223	1090.3925	3078.75	2200.35
858.8673	1092.3584	3094	2220.1
859.0123	1094.3235	3098.3	2224.8
859.1573	1096.2879	3100.3	2222.65
859.3022	1098.2515	3103	2228.05
859.4472	1100.2145	3109.5	2235.85
859.5922	1102.1767	3138.85	2260.55
859.7371	1104.1382	3160.05	2284.3
859.8821	1106.099	3195.25	2319
860.027	1108.0591	3212.35	2336.1
860.172	1110.0185	3241	2364.25
860.3169	1111.9771	3274.1	2398.5
860.4619	1113.9351	3299.85	2421.85
860.6068	1115.8923	3339.2	2461.3
860.7517	1117.8488	3376.9	2501.45
860.8967	1119.8045	3346.3	2470.7
861.0416	1121.7596	3267.8	2391.9
861.1865	1123.7139	3167.85	2293.45
861.3314	1125.6675	3115.4	2240
861.4763	1127.6204	3107.7	2230.75
861.6212	1129.5726	3107.3	2228.75
861.7661	1131.524	3108.8	2233
861.911	1133.4748	3083.15	2205.4
862.0559	1135.4248	3029.95	2150.3
862.2008	1137.3741	2989.25	2112.8
862.3457	1139.3226	2959.65	2082.75
862.4905	1141.2705	2967.65	2093.15
862.6354	1143.2176	2938.8	2056
862.7803	1145.164	2946.05	2068.15
862.9251	1147.1097	2949.8	2072.2
863.07	1149.0546	2937	2057.45
863.2148	1150.9989	2901.45	2023.1
863.3597	1152.9424	2884.45	2005.05
863.5045	1154.8852	2872.1	1995.25
863.6493	1156.8272	2864.9	1987.45
863.7942	1158.7686	2866.2	1983.05
863.939	1160.7092	2850.8	1973.35
864.0838	1162.6491	2865.2	1985.45
864.2286	1164.5883	2846.45	1970.15
864.3734	1166.5267	2858.9	1980
864.5182	1168.4644	2859.45	1980.45
864.663	1170.4014	2879.3	1998.6
864.8078	1172.3377	2923.15	2046.55
864.9526	1174.2732	2941.65	2062.95
865.0974	1176.2081	3001.25	2124.45
865.2421	1178.1421	3077.7	2194.2
865.3869	1180.0755	3163.3	2284.6
865.5317	1182.0082	3224.85	2346.55
865.6764	1183.9401	3217.6	2337.6
865.8212	1185.8713	3141.2	2262.95
865.9659	1187.8017	3052.2	2174.45
866.1106	1189.7315	2953	2076.95
866.2554	1191.6605	2866.25	1988
866.4001	1193.5888	2838.25	1960.2
866.5448	1195.5163	2822.2	1944.8
866.6895	1197.4432	2794.05	1914.3
866.8342	1199.3693	2771.55	1894.3
866.9789	1201.2947	2752.5	1869.15
867.1236	1203.2193	2742.4	1862.7
867.2683	1205.1432	2729.4	1850.95
867.413	1207.0664	2734.55	1853.95
867.5576	1208.9889	2718.1	1835.75
867.7023	1210.9106	2704.6	1825.55
867.847	1212.8316	2708.05	1828.6
867.9916	1214.7519	2714	1827.2
868.1363	1216.6715	2699.75	1819.4
868.2809	1218.5903	2699.25	1820.05
868.4255	1220.5084	2713.85	1834.1
868.5701	1222.4257	2718.8	1838
868.7148	1224.3424	2717.7	1838
868.8594	1226.2583	2734.35	1851.1
869.004	1228.1735	2749.95	1869.85
869.1486	1230.0879	2743.7	1862.9
869.2932	1232.0016	2792.95	1915.05
869.4377	1233.9146	2799.55	1918.7
869.5823	1235.8269	2809.05	1927.4
869.7269	1237.7384	2824.2	1944.4
869.8715	1239.6492	2811.5	1934
870.016	1241.5592	2810.05	1929.5
870.1606	1243.4686	2845.15	1964.35
870.3051	1245.3772	2883.8	2003.1
870.4496	1247.285	2954.25	2074.3
870.5941	1249.1922	3005.4	2123.35
870.7387	1251.0986	3055.15	2176.15
870.8832	1253.0042	3101.45	2219.35
871.0277	1254.9092	3160.75	2279.4
871.1722	1256.8134	3235.6	2356.6
871.3167	1258.7169	3296.3	2414.5
871.4611	1260.6196	3345.75	2464.3
871.6056	1262.5216	3375.85	2493.2
871.7501	1264.4229	3369.8	2489.65
871.8945	1266.3234	3337.65	2454.6
872.039	1268.2232	3293.6	2412.95
872.1834	1270.1223	3252	2369.45
872.3278	1272.0207	3203.15	2321.25
872.4723	1273.9183	3190	2302.05
872.6167	1275.8151	3165.3	2283.45
872.7611	1277.7113	3193.3	2313.15
872.9055	1279.6067	3248.85	2367.6
873.0499	1281.5014	3355.75	2473.4
873.1943	1283.3953	3489.95	2604.95
873.3386	1285.2885	3643.35	2760.4
873.483	1287.181	3775.35	2892.3
873.6274	1289.0727	3833.3	2952.4
873.7717	1290.9637	3781.75	2899.55
873.9161	1292.854	3706.05	2823.75
874.0604	1294.7435	3601.9	2719.55
874.2047	1296.6323	3474.15	2592.15
874.349	1298.5204	3385.7	2497.65
874.4933	1300.4077	3329.4	2445.65
874.6376	1302.2943	3283.25	2401.25
874.7819	1304.1802	3255.9	2374.4
874.9262	1306.0653	3222	2337.45
875.0705	1307.9497	3198.75	2318.05
875.2147	1309.8333	3172.55	2291.55
875.359	1311.7162	3152.65	2270.2
875.5032	1313.5984	3133.2	2248.35
875.6475	1315.4798	3107.6	2223.2
875.7917	1317.3605	3110.25	2220.55
875.9359	1319.2405	3104.55	2221.5
876.0801	1321.1197	3096.3	2212.4
876.2243	1322.9982	3070.4	2183.4
876.3685	1324.876	3027.15	2144.3
876.5127	1326.753	2958.9	2075.5
876.6569	1328.6293	2888.7	2003.9
876.801	1330.5048	2820.2	1934.7
876.9452	1332.3796	2748	1866.25
877.0893	1334.2537	2709.15	1805.3
877.2335	1336.127	2650.85	1768.15
877.3776	1337.9996	2631.25	1747.2
877.5217	1339.8714	2602.3	1720.05
877.6658	1341.7426	2618.2	1693.65
877.8099	1343.6129	2573.8	1692.05
877.954	1345.4826	2559.6	1676.7
878.0981	1347.3515	2538.1	1652.5
878.2422	1349.2196	2528.7	1646.05
878.3862	1351.087	2513	1631.8
878.5303	1352.9537	2507.95	1623.9
878.6743	1354.8197	2522.5	1639.45
878.8184	1356.6849	2518.65	1634.35
878.9624	1358.5493	2523.9	1641.1
879.1064	1360.4131	2534.85	1651.45
879.2504	1362.276	2557.7	1675.95
879.3944	1364.1383	2571.85	1690.55
879.5384	1365.9998	2596.5	1707.85
879.6823	1367.8606	2583.55	1699.35
879.8263	1369.7206	2578.7	1695.35
879.9702	1371.5799	2577.5	1690.7
880.1142	1373.4384	2573.9	1690.55
880.2581	1375.2962	2554.7	1669.4
880.402	1377.1533	2503.2	1621.15
880.5459	1379.0096	2466.8	1584.2
880.6898	1380.8652	2428.6	1543.95
880.8337	1382.7201	2411.95	1528.85
880.9776	1384.5742	2382.35	1499.95
881.1215	1386.4275	2358.05	1474.5
881.2653	1388.2802	2317.05	1434.55
881.4092	1390.132	2323.3	1437.95
881.553	1391.9832	2313.6	1428.05
881.6968	1393.8336	2302.35	1419.1
881.8406	1395.6832	2295.65	1409.65
881.9844	1397.5322	2290	1407.75
882.1282	1399.3803	2286.1	1399.5
882.272	1401.2278	2276.05	1390.85
882.4158	1403.0745	2248.55	1365.15
882.5595	1404.9204	2243.25	1360.05
882.7033	1406.7656	2240.8	1357.55
882.847	1408.6101	2231.8	1347.75
882.9908	1410.4538	2219.75	1335.35
883.1345	1412.2968	2214.55	1331.6
883.2782	1414.139	2207.55	1323.4
883.4219	1415.9805	2218.2	1335.3
883.5656	1417.8213	2243.8	1340.95
883.7092	1419.6613	2235.7	1350.7
883.8529	1421.5006	2252.85	1367.75
883.9965	1423.3391	2268.65	1383.5
884.1402	1425.1769	2306.8	1420.6
884.2838	1427.0139	2359.35	1472.95
884.4274	1428.8502	2418.25	1533.8
884.571	1430.6858	2481.15	1597.4
884.7146	1432.5206	2492.25	1606.65
884.8582	1434.3547	2477.3	1590.05
885.0018	1436.188	2465.3	1582.3
885.1453	1438.0206	2461.35	1578.4
885.2889	1439.8524	2439.75	1554.15
885.4324	1441.6835	2444.35	1559.85
885.5759	1443.5139	2437.15	1548.05
885.7194	1445.3435	2425.75	1539.25
885.8629	1447.1724	2438.55	1554.85
886.0064	1449.0005	2439.65	1557
886.1499	1450.8279	2422.8	1535.85
886.2933	1452.6545	2423.2	1539.1
886.4368	1454.4804	2409.55	1526.1
886.5802	1456.3056	2408.6	1515.3
886.7237	1458.13	2388.55	1504.4
886.8671	1459.9536	2373.4	1488.45
887.0105	1461.7766	2340.25	1456.2
887.1539	1463.5987	2310.5	1423.3
887.2972	1465.4202	2270.15	1386.4
887.4406	1467.2409	2243.95	1359.85
887.584	1469.0608	2224.8	1342.05
887.7273	1470.88	2191.05	1305.2
887.8706	1472.6984	2183.8	1299.7
888.0139	1474.5161	2153.7	1265.8
888.1572	1476.3331	2127.05	1243.15
888.3005	1478.1493	2130.75	1246.25
888.4438	1479.9648	2126.6	1244.3
888.5871	1481.7795	2114.05	1229
888.7303	1483.5935	2104.7	1220.1
888.8736	1485.4067	2107.15	1223
889.0168	1487.2192	2117.7	1232.35
889.16	1489.031	2106.8	1220.75
889.3032	1490.842	2115.95	1231.2
889.4464	1492.6522	2110.3	1224.5
889.5896	1494.4618	2102.1	1215.6
889.7327	1496.2705	2090.35	1206.4
889.8759	1498.0785	2089.95	1203.5
890.019	1499.8858	2078.2	1191.5
890.1622	1501.6924	2080.05	1195.3
890.3053	1503.4981	2063.8	1178.65
890.4484	1505.3032	2064.35	1178.85
890.5914	1507.1075	2052.8	1167.1
890.7345	1508.911	2054.1	1167.25
890.8776	1510.7138	2042.55	1156.3
891.0206	1512.5159	2030.05	1145.4
891.1637	1514.3172	2019	1135.15
891.3067	1516.1178	2019.55	1134.8
891.4497	1517.9176	2015.7	1127.95
891.5927	1519.7166	2010.45	1127.35
891.7357	1521.515	1996.4	1104.1
891.8786	1523.3126	1996.95	1111.5
892.0216	1525.1094	1989.4	1102.05
892.1645	1526.9055	1978.25	1094.7
892.3074	1528.7008	1969.85	1087.95
892.4503	1530.4954	1962.1	1074.55
892.5932	1532.2893	1943.65	1060.2
892.7361	1534.0824	1953.35	1063.5
892.879	1535.8747	1949.6	1064.85
893.0218	1537.6663	1942.1	1057.5
893.1647	1539.4572	1940.1	1052.95
893.3075	1541.2473	1940.4	1056.9
893.4503	1543.0367	1934.45	1052
893.5931	1544.8253	1929.45	1040.45
893.7359	1546.6132	1933.45	1044.1
893.8787	1548.4003	1942.7	1046.15
894.0214	1550.1867	1943.8	1049.15
894.1642	1551.9723	1939.05	1048.55
894.3069	1553.7572	1949.65	1063.75
894.4496	1555.5414	1950.9	1066.3
894.5923	1557.3247	1972.05	1086.3
894.735	1559.1074	1997.85	1115.25
894.8777	1560.8893	2022.3	1138
895.0204	1562.6705	2049.85	1165.2
895.163	1564.4509	2066.7	1181.9
895.3056	1566.2305	2083.3	1200.05
895.4482	1568.0094	2084.45	1200.95
895.5908	1569.7876	2077.85	1193.7
895.7334	1571.565	2067.9	1182
895.876	1573.3417	2067.85	1181.25
896.0186	1575.1176	2073.1	1188.25
896.1611	1576.8928	2090.3	1204.8
896.3036	1578.6672	2092.7	1208.45
896.4461	1580.4409	2119.85	1237.55
896.5886	1582.2138	2142.15	1255.45
896.7311	1583.986	2175.15	1292.8
896.8736	1585.7575	2211	1325.85
897.0161	1587.5282	2236.45	1352.9
897.1585	1589.2981	2248.75	1365.75
897.3009	1591.0673	2259.85	1376.5
897.4433	1592.8358	2270.5	1388.35
897.5857	1594.6035	2273.85	1387.75
897.7281	1596.3704	2247.55	1363.25
897.8705	1598.1366	2230.8	1345.3
898.0128	1599.9021	2210.75	1326.45
898.1551	1601.6668	2179.55	1291.45
898.2975	1603.4308	2161.95	1274.7
898.4398	1605.194	2162.4	1273
898.5821	1606.9564	2172.55	1287.75
898.7243	1608.7182	2210.5	1322.85
898.8666	1610.4791	2267.45	1381.9
899.0088	1612.2394	2357	1473.8
899.1511	1613.9988	2436.65	1553.1
899.2933	1615.7576	2509.95	1626.25
899.4355	1617.5156	2555.15	1663.3
899.5776	1619.2728	2539.65	1655.5
899.7198	1621.0293	2469.35	1584.15
899.862	1622.785	2380.6	1494.1
900.0041	1624.54	2257.75	1374.95
900.1462	1626.2942	2171.95	1286
900.2883	1628.0477	2079.45	1193.85
900.4304	1629.8005	2007.1	1119.9
900.5725	1631.5525	1932.2	1048.2
900.7145	1633.3037	1886.7	1001.05
900.8566	1635.0542	1862.2	976.75
900.9986	1636.804	1831.65	947.65
901.1406	1638.553	1854.95	920.15
901.2826	1640.3013	1786.15	902.35
901.4245	1642.0488	1758.25	875.95
901.5665	1643.7955	1750.8	865.8
901.7085	1645.5416	1732.65	849.1
901.8504	1647.2868	1725.7	842
901.9923	1649.0313	1718.05	832.9
902.1342	1650.7751	1730.55	842.8
902.2761	1652.5181	1708.9	824.1
902.4179	1654.2604	1701.55	816.35
902.5598	1656.0019	1705.4	823.3
902.7016	1657.7427	1721.75	837.65
902.8434	1659.4828	1725.3	840.45
902.9852	1661.222	1742.5	856.1
903.127	1662.9606	1776.3	892.05
903.2687	1664.6984	1800.55	915.25
903.4105	1666.4354	1813.55	927.7
903.5522	1668.1717	1802.7	919.4
903.6939	1669.9072	1772.5	887.65
903.8356	1671.642	1735.8	850.3
903.9773	1673.3761	1694.15	810.05
904.119	1675.1094	1665.8	782.55
904.2606	1676.8419	1641.95	758.85
904.4022	1678.5737	1624.2	737.5
904.5439	1680.3048	1619.55	735.5
904.6855	1682.0351	1606.5	720.55
904.827	1683.7646	1609.8	722
904.9686	1685.4934	1590.35	708.3
905.1101	1687.2215	1589.55	703.5
905.2517	1688.9488	1576.75	694.2
905.3932	1690.6754	1575.4	693.3
905.5347	1692.4012	1577	691.3
905.6761	1694.1263	1568.6	683.25
905.8176	1695.8506	1560.55	675.95
905.9591	1697.5742	1562.35	678.75
906.1005	1699.297	1560.3	677.8
906.2419	1701.0191	1553.2	668.45
906.3833	1702.7404	1551.6	669.25
906.5246	1704.461	1553.7	666.7
906.666	1706.1808	1539.55	653.85
906.8073	1707.8999	1536.85	650.65
906.9487	1709.6182	1535.05	650.45
907.09	1711.3358	1525.6	641.8
907.2313	1713.0527	1524.3	642.35
907.3725	1714.7688	1529.4	640.05
907.5138	1716.4841	1515.65	631.7
907.655	1718.1987	1526.95	636.75
907.7962	1719.9126	1517.8	634.45
907.9374	1721.6257	1513.95	628.4
908.0786	1723.338	1508.2	621.9
908.2198	1725.0496	1503.4	617.4
908.3609	1726.7605	1504.75	621.2
908.502	1728.4706	1504.95	618
908.6431	1730.18	1505.55	620.35
908.7842	1731.8886	1503.05	617.35
908.9253	1733.5964	1505.4	616.75
909.0664	1735.3036	1497.15	608.15
909.2074	1737.0099	1495.9	611.95
909.3484	1738.7156	1499.9	615.65
909.4894	1740.4204	1490.65	604.2
909.6304	1742.1246	1502	615.8
909.7714	1743.8279	1483.45	598.25
909.9123	1745.5306	1487.15	603.25
910.0532	1747.2325	1486.45	603.45
910.1941	1748.9336	1497.15	611.35
910.335	1750.634	1482.3	594.05
910.4759	1752.3336	1478.3	593.4
910.6168	1754.0325	1479.15	595.8
910.7576	1755.7307	1475.2	590.3
910.8984	1757.4281	1487.95	602.8
911.0392	1759.1247	1492.05	599.3
911.18	1760.8206	1483.45	595.35
911.3208	1762.5158	1473.4	585.6
911.4615	1764.2102	1484.45	598.55
911.6022	1765.9039	1474.95	590.45
911.7429	1767.5968	1472.25	587.5
911.8836	1769.289	1467.3	582.05
912.0243	1770.9804	1471.85	586
912.1649	1772.6711	1460.65	575.95
912.3056	1774.361	1471.3	584.3
912.4462	1776.0502	1468.9	583.6
912.5868	1777.7386	1459.7	572.75
912.7274	1779.4263	1463.05	576.35
912.8679	1781.1132	1471.8	586.75
913.0084	1782.7994	1453.55	568.8
913.149	1784.4849	1460.1	577.65
913.2895	1786.1696	1458.85	569.8
913.4299	1787.8535	1455.45	568.6
913.5704	1789.5367	1449.75	565.7
913.7108	1791.2192	1452.6	567.55
913.8513	1792.9009	1482.05	572.7
913.9917	1794.5818	1450.2	563.6
914.132	1796.2621	1440.7	555.2
914.2724	1797.9415	1437.1	553.5
914.4128	1799.6202	1444.45	561.1
914.5531	1801.2982	1433.55	549.6
914.6934	1802.9755	1438.8	553
914.8337	1804.6519	1435.4	550.2
914.9739	1806.3277	1437.1	551.5
915.1142	1808.0027	1432.4	547.85
915.2544	1809.6769	1428.75	543.6
915.3946	1811.3504	1427.45	538.85
915.5348	1813.0231	1430.65	545.15
915.675	1814.6951	1425.7	541.75
915.8151	1816.3664	1419.7	532.5
915.9553	1818.0369	1423.1	539.95
916.0954	1819.7067	1418.65	534.15
916.2355	1821.3757	1415.75	527.05
916.3755	1823.044	1419.2	533.35
916.5156	1824.7115	1418.7	532.9
916.6556	1826.3783	1413.4	528.85
916.7956	1828.0443	1408.55	525.2
916.9356	1829.7096	1415.05	530.55
917.0756	1831.3741	1413.4	526.85
917.2155	1833.0379	1413.25	529.05
917.3555	1834.701	1413.25	526.95
917.4954	1836.3633	1406	521.9
917.6353	1838.0248	1407.45	521.3
917.7751	1839.6856	1401.2	514.5
917.915	1841.3457	1399.25	515.65
918.0548	1843.005	1406.3	522.35
918.1946	1844.6636	1392.35	509.25
918.3344	1846.3214	1404.35	520.65
918.4742	1847.9785	1396.5	513.15
918.6139	1849.6349	1390.95	503.45
918.7537	1851.2904	1403.1	506.65
918.8934	1852.9453	1392.5	507
919.0331	1854.5994	1396.05	506.5
919.1727	1856.2528	1396.05	504.75
919.3124	1857.9054	1394.45	508.65
919.452	1859.5572	1390	506.2
919.5916	1861.2083	1382.05	496.65
919.7312	1862.8587	1387.45	502.05
919.8708	1864.5084	1387.8	500.8
920.0103	1866.1572	1385.8	501.6
920.1498	1867.8054	1382.2	498.45
920.2893	1869.4528	1374	487.6
920.4288	1871.0994	1381.8	496.9
920.5683	1872.7453	1387.85	499.7
920.7077	1874.3905	1382.25	492.95
920.8471	1876.0349	1377.4	492.15
920.9865	1877.6786	1378.15	491.25
921.1259	1879.3215	1373.35	488.5
921.2653	1880.9637	1368.8	481.85
921.4046	1882.6051	1377.75	494.15
921.5439	1884.2458	1370.25	484.6
921.6832	1885.8858	1366.7	483.2
921.8225	1887.525	1364.75	478.1
921.9617	1889.1634	1364.8	481.55
922.101	1890.8011	1363.7	476.25
922.2402	1892.4381	1362.4	480.05
922.3794	1894.0743	1363.85	478.3
922.5185	1895.7098	1361.8	476.7
922.6577	1897.3446	1364.45	478
922.7968	1898.9786	1363.55	474.8
922.9359	1900.6118	1357.55	472.9
923.075	1902.2443	1355.95	471.3
923.214	1903.8761	1351.65	470
923.3531	1905.5071	1353.55	466.4
923.4921	1907.1374	1344.65	456.7
923.6311	1908.7669	1351.1	464.55
923.77	1910.3957	1343.9	458.85
923.909	1912.0237	1350.75	466.7
924.0479	1913.651	1347.4	460.3
924.1868	1915.2776	1350	465.4
924.3257	1916.9034	1340.7	456.3
924.4646	1918.5285	1340.15	456.9
924.6034	1920.1528	1339.5	454.4
924.7422	1921.7764	1339.8	454.4
924.881	1923.3992	1335.9	449.6
925.0198	1925.0213	1329.7	443.15
925.1586	1926.6427	1330.95	447.5
925.2973	1928.2633	1402.75	448.5
925.436	1929.8832	1330.5	444.35
925.5747	1931.5023	1320.3	434.05
925.7134	1933.1207	1323.85	437.35
925.852	1934.7383	1324.9	439.65
925.9906	1936.3552	1323.25	438.6
926.1292	1937.9714	1327.4	440.55
926.2678	1939.5868	1322.65	436.05
926.4064	1941.2015	1330	444.5
926.5449	1942.8154	1317.4	432.75
926.6834	1944.4286	1320.1	436.1
926.8219	1946.041	1336.75	431.75
926.9604	1947.6528	1318.55	429.1
927.0988	1949.2637	1308.3	423.6
927.2372	1950.8739	1304.6	418.5
927.3756	1952.4834	1310.2	424.95
927.514	1954.0921	1311.4	425.05
927.6523	1955.7001	1314.6	425.05
927.7907	1957.3074	1310	425.9
927.929	1958.9139	1311	427.7
928.0673	1960.5197	1301.3	415.25
928.2055	1962.1247	1296.9	411.1
928.3438	1963.729	1292.35	408.4
928.482	1965.3325	1320.4	412.7
928.6202	1966.9353	1298.45	416.7
928.7584	1968.5374	1295.75	409.65
928.8965	1970.1387	1296.85	412.25
929.0346	1971.7393	1297.95	412
929.1727	1973.3392	1293.55	409.75
929.3108	1974.9383	1288.4	404.8
929.4489	1976.5366	1289.75	403.15
929.5869	1978.1342	1296.3	413.55
929.7249	1979.7311	1287.7	402.65
929.8629	1981.3273	1284.85	399.8
930.0009	1982.9227	1292.3	405.75
930.1388	1984.5173	1288.65	404.5
930.2767	1986.1112	1278.4	395.85
930.4146	1987.7044	1284.45	399.9
930.5525	1989.2968	1280.7	395.2
930.6904	1990.8885	1288.35	399.9
930.8282	1992.4795	1278.4	391.5
930.966	1994.0697	1278.55	394.25
931.1038	1995.6592	1278.05	395.5
931.2415	1997.2479	1273.1	389.2
931.3793	1998.8359	1272.3	389
931.517	2000.4232	1275.2	391.65
931.6547	2002.0097	1277.25	395.45
931.7923	2003.5955	1276.15	391.3
931.93	2005.1805	1269.2	383.9
932.0676	2006.7648	1267.75	382.7
932.2052	2008.3484	1271.05	386.9
932.3427	2009.9312	1272.25	386.7
932.4803	2011.5133	1263.1	381.7
932.6178	2013.0946	1263.5	379.9
932.7553	2014.6752	1263.5	380.9
932.8928	2016.2551	1265.65	379
933.0302	2017.8342	1261.1	377.65
933.1676	2019.4126	1257.5	374.9
933.305	2020.9902	1259.8	377.2
933.4424	2022.5672	1264.65	380.85
933.5798	2024.1433	1268.35	379.2
933.7171	2025.7188	1261.85	381.55
933.8544	2027.2935	1260.05	375.55
933.9917	2028.8674	1257.95	376.25
934.129	2030.4406	1257.25	373.8
934.2662	2032.0131	1257.15	375.75
934.4034	2033.5849	1260.45	369.9
934.5406	2035.1559	1248	364.85
934.6778	2036.7261	1251.85	367.8
934.8149	2038.2957	1251.55	368.5
934.952	2039.8645	1252.4	369.4
935.0891	2041.4325	1257.65	370.7
935.2262	2042.9998	1252.6	368.8
935.3632	2044.5664	1249.9	365.7
935.5002	2046.1323	1247.65	364.45
935.6372	2047.6974	1249.15	365
935.7742	2049.2617	1253.85	370.35
935.9111	2050.8254	1255.8	368.95
936.048	2052.3883	1251.25	367.7
936.1849	2053.9504	1245.25	361.2
936.3218	2055.5118	1244.6	359.9
936.4586	2057.0725	1251.65	366.05
936.5955	2058.6325	1247.25	364.95
936.7323	2060.1917	1243.65	359.95
936.869	2061.7502	1247.05	359.35
937.0058	2063.3079	1242.3	358.85
937.1425	2064.8649	1249.05	362.9
937.2792	2066.4212	1245.15	360.85
937.4159	2067.9767	1245.3	360.95
937.5525	2069.5315	1241.05	357.6
937.6891	2071.0856	1237.7	354.5
937.8257	2072.6389	1238.35	353.8
937.9623	2074.1915	1235.25	353.15
938.0989	2075.7433	1236.9	351.4
938.2354	2077.2945	1236.5	355.9
938.3719	2078.8448	1231.3	346.6
938.5084	2080.3945	1227.55	343.6
938.6448	2081.9434	1231.95	348.25
938.7812	2083.4916	1227.35	344.25
938.9176	2085.039	1233.05	346.8
939.054	2086.5857	1229.25	342.85
939.1903	2088.1317	1232.9	349.8
939.3267	2089.677	1236.65	353.35
939.463	2091.2215	1231.15	347.85
939.5992	2092.7652	1228.15	342.95
939.7355	2094.3083	1233.8	350.4
939.8717	2095.8506	1226.45	344.45
940.0079	2097.3921	1226.25	343.65
940.1441	2098.933	1226.55	344.35
940.2802	2100.4731	1227.8	343.65
940.4163	2102.0124	1237.7	335.15
940.5524	2103.5511	1228.35	345
940.6885	2105.089	1225.9	342.85
940.8245	2106.6261	1226.45	342.7
940.9606	2108.1626	1222.35	336.55
941.0965	2109.6983	1252.4	337.5
941.2325	2111.2332	1227.8	344.6
941.3684	2112.7675	1219.85	334.8
941.5044	2114.301	1224.75	340.35
941.6403	2115.8337	1223.7	339.4
941.7761	2117.3657	1218.55	332.65
941.912	2118.897	1224.85	340.95
942.0478	2120.4276	1226.75	336.05
942.1835	2121.9575	1218.85	335.7
942.3193	2123.4866	1231.85	333.8
942.455	2125.0149	1223.75	338
942.5907	2126.5426	1213.95	330.45
942.7264	2128.0695	1218.25	330.35
942.8621	2129.5956	1209.4	327.9
942.9977	2131.1211	1219.45	332.75
943.1333	2132.6458	1209.95	326.6
943.2689	2134.1698	1213.85	328.55
943.4044	2135.693	1211.85	327.3
943.54	2137.2155	1216.2	330.3
943.6755	2138.7373	1213.1	327.35
943.8109	2140.2584	1212	327.8
943.9464	2141.7787	1213.8	324.8
944.0818	2143.2983	1210.3	328.05
944.2172	2144.8171	1206.75	325.4
944.3526	2146.3353	1213.4	329.95
944.4879	2147.8527	1206.3	323.4
944.6232	2149.3693	1210.6	326.65
944.7585	2150.8853	1207.45	323.35
944.8938	2152.4005	1201	316.15
945.029	2153.9149	1211.1	324.55
945.1642	2155.4287	1299.4	316.5
945.2994	2156.9417	1204.4	318.85
945.4346	2158.454	1205.55	320.75
945.5697	2159.9655	1198.9	314.15
945.7048	2161.4764	1201.9	318.2
945.8399	2162.9865	1200.5	315.5
945.9749	2164.4958	1199.65	312.95
946.1099	2166.0045	1207.7	320.1
946.2449	2167.5124	1195.35	312.1
946.3799	2169.0195	1197.75	314
946.5148	2170.526	1198.75	311.3
946.6498	2172.0317	1194.25	310.5
946.7846	2173.5367	1186.6	302.5
946.9195	2175.0409	1194.55	311.4
947.0543	2176.5445	1194.15	312.3
947.1891	2178.0473	1191.6	306.2
947.3239	2179.5494	1195.85	307.95
947.4587	2181.0507	1186.8	301.45
947.5934	2182.5513	1191.7	309
947.7281	2184.0512	1186.95	303
947.8628	2185.5504	1184.9	299.2
947.9974	2187.0488	1188.4	305.45
948.132	2188.5465	1185.15	303.75
948.2666	2190.0435	1185.75	299.95
948.4012	2191.5397	1183.4	301.55
948.5357	2193.0353	1180.05	295.8
948.6702	2194.5301	1184.5	299.3
948.8047	2196.0241	1186.8	301.45
948.9392	2197.5175	1180.1	296.75
949.0736	2199.0101	1181.75	293
949.208	2200.502	1176.35	292.1
949.3424	2201.9931	1174.65	290.75
949.4767	2203.4835	1181.35	296.2
949.611	2204.9733	1190	287.5
949.7453	2206.4622	1180.2	297.95
949.8796	2207.9505	1177.55	291.05
950.0138	2209.438	1166.95	282.8
950.148	2210.9248	1176.85	292.25
950.2822	2212.4109	1174.3	291.05
950.4164	2213.8962	1170.45	285.3
950.5505	2215.3809	1174.05	290.35
950.6846	2216.8648	1174.35	289.1
950.8186	2218.3479	1173.7	287.5
950.9527	2219.8304	1169.75	283.55
951.0867	2221.3121	1169.05	282.3
951.2207	2222.7931	1164.4	279.85
951.3546	2224.2733	1167.65	284.15
951.4886	2225.7529	1165.85	282.4
951.6225	2227.2317	1170.7	283.15
951.7563	2228.7098	1165.5	282.8
951.8902	2230.1872	1156.45	273.5
952.024	2231.6638	1161.95	279.55
952.1578	2233.1397	1161.4	273.9
952.2916	2234.6149	1156.4	272.9
952.4253	2236.0894	1161.9	276.15
952.559	2237.5632	1162.05	276.85
952.6927	2239.0362	1158.1	275
952.8263	2240.5085	1158.25	275.55
952.9599	2241.9801	1156.6	271.35
953.0935	2243.4509	1158.35	275.25
953.2271	2244.921	1152.9	269.7
953.3606	2246.3904	1158.75	271.75
953.4941	2247.8591	1154.1	270.95
953.6276	2249.3271	1148.45	265.1
953.7611	2250.7943	1151.25	265.65
953.8945	2252.2608	1149.05	265.4
954.0279	2253.7266	1146.1	262.35
954.1612	2255.1917	1144.2	262.35
954.2946	2256.656	1140.65	255.5
954.4279	2258.1197	1148.2	265.1
954.5612	2259.5826	1145.75	259.8
954.6944	2261.0447	1150.75	265.75
954.8276	2262.5062	1144.55	259.45
954.9608	2263.9669	1147	261.9
955.094	2265.4269	1142.05	258.25
955.2271	2266.8862	1142.65	259.85
955.3602	2268.3448	1142.75	259.65
955.4933	2269.8026	1143.3	256.95
955.6264	2271.2598	1142.95	258.45
955.7594	2272.7162	1141.55	259.25
955.8924	2274.1719	1143.1	261.05
956.0253	2275.6268	1141.25	255.8
956.1583	2277.0811	1143.45	260.1
956.2912	2278.5346	1140	258.25
956.4241	2279.9874	1136.9	253.05
956.5569	2281.4395	1134.65	250.7
956.6897	2282.8908	1136.85	248.15
956.8225	2284.3414	1138.3	251.9
956.9553	2285.7914	1133.3	249.85
957.088	2287.2406	1138.8	254.05
957.2207	2288.689	1132.15	247.55
957.3534	2290.1368	1134.9	249.8
957.486	2291.5838	1134.5	249.2
957.6186	2293.0302	1131.95	246.5
957.7512	2294.4758	1127.2	242.5
957.8838	2295.9206	1131.4	247.5
958.0163	2297.3648	1129.6	245.05
958.1488	2298.8082	1132	248.35
958.2813	2300.251	1130.95	247.55
958.4137	2301.693	1128.85	242.1
958.5461	2303.1343	1122.75	239.2
958.6785	2304.5748	1124.75	241.05
958.8108	2306.0147	1129.1	246.6
958.9432	2307.4538	1128.4	242.25
959.0754	2308.8922	1121.75	242.15
959.2077	2310.3299	1128.6	245.2
959.3399	2311.7669	1119.35	234.8
959.4721	2313.2031	1122.1	238.55
959.6043	2314.6387	1121.55	239
959.7365	2316.0735	1117.7	234.15
959.8686	2317.5076	1115.6	230.15
960.0006	2318.941	1117.85	234.25
960.1327	2320.3737	1114.55	229.05
960.2647	2321.8056	1121.3	233.3
960.3967	2323.2369	1118.5	234.25
960.5287	2324.6674	1122.55	235.55
960.6606	2326.0972	1119.05	232.8
960.7925	2327.5263	1117.8	234.25
960.9244	2328.9547	1123.65	238.3
961.0562	2330.3823	1119.95	236.95
961.1881	2331.8092	1122.15	235.2
961.3198	2333.2355	1113.65	229.5
961.4516	2334.661	1114.6	228.8
961.5833	2336.0858	1111.45	226.2
961.715	2337.5098	1114.35	228.2
961.8467	2338.9332	1110.9	226.2
961.9783	2340.3558	1113.7	227.05
962.1099	2341.7778	1102.55	217.35
962.2415	2343.199	1108.2	222.6
962.373	2344.6195	1102.75	217.6
962.5045	2346.0393	1104	219.85
962.636	2347.4583	1106.15	221.15
962.7675	2348.8767	1107.6	222.25
962.8989	2350.2943	1104.15	219.75
963.0303	2351.7113	1110.05	224.45
963.1617	2353.1275	1103.7	217.3
963.293	2354.543	1132.55	222.35
963.4243	2355.9578	1097.4	213.8
963.5556	2357.3718	1099.7	215.15
963.6868	2358.7852	1104.15	218.35
963.818	2360.1978	1100.75	214.8
963.9492	2361.6098	1097.75	216.25
964.0803	2363.021	1098.3	210
964.2114	2364.4315	1096.85	212.75
964.3425	2365.8413	1099.75	211.05
964.4736	2367.2504	1094.4	209.05
964.6046	2368.6587	1090.6	205.65
964.7356	2370.0664	1091.8	208.55
964.8666	2371.4733	1094.8	210.1
964.9975	2372.8795	1090.95	206.85
965.1284	2374.285	1096.9	211.75
965.2593	2375.6899	1089.6	206.6
965.3901	2377.0939	1089.55	204.95
965.5209	2378.4973	1088.1	204.1
965.6517	2379.9	1090.2	205.8
965.7825	2381.3019	1091.1	206.65
965.9132	2382.7032	1087.05	203.6
966.0439	2384.1037	1091.4	209.2
966.1745	2385.5035	1089.05	204.55
966.3051	2386.9027	1086	203.5
966.4357	2388.3011	1090.2	201.45
966.5663	2389.6987	1083.65	199.8
966.6968	2391.0957	1081.25	197.75
966.8273	2392.492	1085.15	199.9
966.9578	2393.8876	1083.65	199.4
967.0882	2395.2824	1082.4	196.7
967.2186	2396.6765	1080.9	196.4
967.349	2398.07	1078.8	196.5
967.4793	2399.4627	1082.85	195.45
967.6097	2400.8547	1080.55	195.95
967.7399	2402.246	1083.35	191.85
967.8702	2403.6366	1078.5	192
968.0004	2405.0265	1075.85	192
968.1306	2406.4156	1074.4	184.55
968.2607	2407.8041	1075.15	186.75
968.3909	2409.1918	1077.7	190.5
968.521	2410.5789	1075.35	189.45
968.651	2411.9652	1074.4	187
968.781	2413.3508	1073.45	189.55
968.911	2414.7358	1073.95	187.85
969.041	2416.12	1071.05	187.25
969.1709	2417.5035	1069.45	184.6
969.3008	2418.8863	1071.25	187.15
969.4307	2420.2684	1066.65	180.75
969.5606	2421.6497	1071.6	187.8
969.6904	2423.0304	1069.95	184
969.8201	2424.4104	1066.9	180.45
969.9499	2425.7896	1064.45	177.85
970.0796	2427.1682	1065.4	181.8
970.2093	2428.546	1066.1	181.15
970.3389	2429.9232	1066.85	181.7
970.4685	2431.2996	1061.15	177.5
970.5981	2432.6753	1062.85	178
970.7277	2434.0503	1063.7	177.65
970.8572	2435.4246	1062.15	177.5
970.9867	2436.7982	1063.05	176.55
971.1161	2438.1711	1062	177.75
971.2456	2439.5433	1060.95	175.75
971.375	2440.9148	1066.65	177.4
971.5043	2442.2856	1058.15	172.85
971.6336	2443.6557	1056.85	171.45
971.7629	2445.025	1052.75	167.2
971.8922	2446.3937	1060.85	175.4
972.0214	2447.7617	1059.95	172.75
972.1506	2449.1289	1059.05	175.6
972.2798	2450.4955	1060.2	172.05
972.4089	2451.8613	1055.1	170.5
972.538	2453.2265	1051.5	168.4
972.6671	2454.5909	1057.8	172.7
972.7961	2455.9546	1051.55	167.3
972.9251	2457.3177	1058.4	175.45
973.0541	2458.68	1052.9	167.05
973.1831	2460.0416	1054.35	170.3
973.312	2461.4025	1053.55	167.8
973.4408	2462.7627	1065.5	168.95
973.5697	2464.1222	1053.45	169
973.6985	2465.4811	1052.5	166.5
973.8273	2466.8392	1047.5	163.15
973.956	2468.1966	1049.35	161.4
974.0847	2469.5533	1049.75	162.65
974.2134	2470.9093	1049.05	162.05
974.3421	2472.2645	1047.45	162.2
974.4707	2473.6191	1051.15	166.05
974.5993	2474.973	1045.75	158.65
974.7278	2476.3262	1051.25	164.85
974.8563	2477.6787	1043.45	159.25
974.9848	2479.0305	1044.6	161.45
975.1132	2480.3816	1049.55	164.05
975.2417	2481.7319	1045.35	160.3
975.37	2483.0816	1051.15	164.75
975.4984	2484.4306	1045.05	158.85
975.6267	2485.7789	1043.45	159.7
975.755	2487.1264	1045.55	159.85
975.8833	2488.4733	1040.75	155.35
976.0115	2489.8195	1052.8	161.6
976.1397	2491.165	1043.05	155.45
976.2678	2492.5097	1045.45	157.75
976.3959	2493.8538	1043.75	159.15
976.524	2495.1972	1039.55	155.05
976.6521	2496.5398	1038.5	150.75
976.7801	2497.8818	1038	150.7
976.9081	2499.2231	1040.3	156.25
977.036	2500.5637	1038.1	151.4
977.164	2501.9035	1036.8	151.45
977.2918	2503.2427	1042.15	152.15
977.4197	2504.5812	1033.95	150.95
977.5475	2505.919	1036.9	150.4
977.6753	2507.256	1037.25	153.15
977.8031	2508.5924	1034.95	150.95
977.9308	2509.9281	1038.65	147.75
978.0585	2511.2631	1033.55	147.85
978.1861	2512.5974	1032.05	147.75
978.3137	2513.9309	1031.65	146.65
978.4413	2515.2638	1055.5	147.6
978.5689	2516.596	1030.85	147.65
978.6964	2517.9275	1031.55	147.5
978.8239	2519.2583	1029.1	144.05
978.9513	2520.5884	1032.05	144.6
979.0788	2521.9178	1028.15	142.25
979.2062	2523.2465	1028.25	144.35
979.3335	2524.5745	1025.65	141.6
979.4608	2525.9018	1028.95	145.2
979.5881	2527.2284	1028.2	144.4
979.7154	2528.5543	1023.8	140.9
979.8426	2529.8796	1029.35	143.8
979.9698	2531.2041	1022.55	137
980.0969	2532.5279	1024.05	141.65
980.224	2533.851	1023.95	138.15
980.3511	2535.1735	1026.95	142.5
980.4781	2536.4952	1022.15	137.9
980.6052	2537.8163	1026	140.95
980.7321	2539.1366	1023.75	138.05
980.8591	2540.4562	1025.05	139.95
980.986	2541.7752	1026.65	143.05
981.1129	2543.0935	1021.7	137.55
981.2397	2544.411	1023.4	138.7
981.3665	2545.7279	1022.45	138.3
981.4933	2547.0441	1020.05	135
981.62	2548.3596	1027.55	139.05
981.7467	2549.6744	1021.05	137.25
981.8734	2550.9885	1030.45	136.9
982.0001	2552.3019	1017.45	135.7
982.1267	2553.6146	1021.75	138.15
982.2532	2554.9266	1017.9	132.55
982.3798	2556.2379	1018.1	134.05
982.5063	2557.5485	1016.15	134.55
982.6327	2558.8585	1024.5	132.15
982.7592	2560.1677	1023.2	133.6
982.8856	2561.4762	1018.65	132.05
983.0119	2562.7841	1023.2	137.05
983.1383	2564.0913	1015.7	133.3
983.2646	2565.3977	1013.8	130
983.3908	2566.7035	1018	133.25
983.517	2568.0086	1014.6	128.75
983.6432	2569.313	1016.15	131.45
983.7694	2570.6167	1019.1	131.35
983.8955	2571.9197	1012.8	128.75
984.0216	2573.222	1016.3	130.85
984.1476	2574.5236	1012.65	128.15
984.2737	2575.8246	1017.5	131.2
984.3996	2577.1248	1019.6	131.65
984.5256	2578.4244	1011.55	127.2
984.6515	2579.7232	1012.75	127.6
984.7774	2581.0214	1045.7	128.6
984.9032	2582.3189	1012.7	128.75
985.029	2583.6157	1024.65	125.5
985.1548	2584.9118	1011.3	126.7
985.2806	2586.2072	1013.75	130.9
985.4063	2587.5019	1015.25	131.6
985.5319	2588.7959	1012.25	125.4
985.6576	2590.0893	1013	126.95
985.7832	2591.3819	1010.55	125.05
985.9087	2592.6739	1005.4	122.85
986.0343	2593.9652	1013.7	128
986.1597	2595.2557	1009.8	124.1
986.2852	2596.5456	1008.1	120.9
986.4106	2597.8348	1007.85	124.55
986.536	2599.1234	1009.7	127.2
986.6614	2600.4112	1007.9	123.75
986.7867	2601.6983	1013	124.3
986.912	2602.9848	1012.5	126.45
987.0372	2604.2705	1015.75	125.5
987.1624	2605.5556	1005.05	121.7
987.2876	2606.84	1006.75	119.5
987.4128	2608.1237	1004.3	116.3
987.5379	2609.4067	1008	121.35
987.6629	2610.689	1016.35	122.8
987.788	2611.9707	1006.6	118.1
987.913	2613.2516	1009.8	120.7
988.0379	2614.5319	996.6	112.1
988.1629	2615.8115	999.95	115.8
988.2878	2617.0903	1006.35	120.2
988.4126	2618.3685	1002.3	116.95
988.5375	2619.6461	1000.9	114.9
988.6622	2620.9229	998.55	114.45
988.787	2622.199	1000.7	114.7
988.9117	2623.4745	1000.3	112.75
989.0364	2624.7493	998.8	114.8
989.161	2626.0234	996.2	114.5
989.2857	2627.2968	996.45	113.2
989.4102	2628.5695	1001.7	116.35
989.5348	2629.8415	996.1	109.9
989.6593	2631.1128	998.25	112.15
989.7837	2632.3835	992.85	109.75
989.9082	2633.6535	997.3	111.75
990.0326	2634.9228	994.15	110.4
990.1569	2636.1914	994.2	110.7
990.2812	2637.4593	997.25	111.15
990.4055	2638.7265	996.45	111.55
990.5298	2639.9931	994.85	110.7
990.654	2641.259	995.85	110.5
990.7782	2642.5242	994	110.6
990.9023	2643.7887	993.25	108.3
991.0264	2645.0525	996.1	111.85
991.1505	2646.3156	1011.65	112.25
991.2745	2647.5781	990.05	108.05
991.3985	2648.8398	990	105.5
991.5225	2650.1009	996.1	103.8
991.6464	2651.3613	990.3	105.45
991.7703	2652.6211	988.95	104.6
991.8942	2653.8801	987.75	104.45
992.018	2655.1385	994	107.9
992.1418	2656.3961	989.5	105.1
992.2655	2657.6531	986.7	103
992.3892	2658.9094	991.1	107.55
992.5129	2660.1651	985.5	103.55
992.6366	2661.42	985.4	99.8
992.7602	2662.6743	985.2	101.15
992.8837	2663.9279	986.7	102.6
993.0073	2665.1808	988.7	104.45
993.1307	2666.433	988.75	103.75
993.2542	2667.6846	987.3	104
993.3776	2668.9354	988.6	103.15
993.501	2670.1856	986.7	101.75
993.6244	2671.4351	984.75	101.05
993.7477	2672.6839	989.65	104.65
993.8709	2673.9321	985.4	103.2
993.9942	2675.1795	986.35	100.85
994.1174	2676.4263	987.45	103.7
994.2405	2677.6724	985.75	101.1
994.3637	2678.9179	987	103.1
994.4868	2680.1626	985.85	102.25
994.6098	2681.4067	987.3	102.05
994.7328	2682.6501	984.4	99.75
994.8558	2683.8928	983.1	98.05
994.9788	2685.1348	981.4	97.7
995.1017	2686.3761	983.25	97.75
995.2245	2687.6168	978.45	94.3
995.3474	2688.8568	982.3	97.4
995.4702	2690.0961	981.1	99.55
995.5929	2691.3348	982.75	98
995.7156	2692.5727	979.5	94.3
995.8383	2693.81	978.55	95.15
995.961	2695.0466	976.8	93.15
996.0836	2696.2826	976.6	93.8
996.2062	2697.5178	981.65	94.05
996.3287	2698.7524	978.4	91.95
996.4512	2699.9863	979.35	92.75
996.5737	2701.2195	978.3	95.65
996.6961	2702.452	980.8	96.45
996.8185	2703.6839	976.7	92.8
996.9408	2704.9151	977.5	93.35
997.0631	2706.1456	976.1	93.5
997.1854	2707.3755	977.9	93.25
997.3077	2708.6046	980.35	94.5
997.4299	2709.8331	978.5	92.65
997.552	2711.0609	977.7	92.4
997.6742	2712.2881	977.2	90.1
997.7963	2713.5145	980.3	92.4
997.9183	2714.7403	976.75	90.1
998.0403	2715.9654	978.9	95.55
998.1623	2717.1899	996.95	98.2
998.2842	2718.4136	980.5	98.4
998.4062	2719.6367	980.9	99.65
998.528	2720.8591	988	97
998.6498	2722.0809	981.65	96.85
998.7716	2723.3019	986.4	99.25
998.8934	2724.5223	982.35	96.45
999.0151	2725.7421	982.95	97.35
999.1368	2726.9611	983	96.25
999.2584	2728.1795	983.4	93.55
999.38	2729.3972	981.5	97.55
999.5016	2730.6142	985.65	91.85
999.6231	2731.8306	976.1	90.85
999.7446	2733.0462	973.95	89
999.8661	2734.2612	981.55	92.5
999.9875	2735.4756	976.65	90.7
1000.1089	2736.6892	974.25	88.8
1000.2302	2737.9022	968.2	85
1000.3515	2739.1145	972.45	87.15
1000.4728	2740.3262	978.55	87.15
1000.594	2741.5372	968.95	84.5
1000.7152	2742.7475	968.65	84.85
1000.8363	2743.9571	971.4	87.3
1000.9575	2745.1661	971.8	81.65
1001.0785	2746.3744	967.6	81.95
1001.1996	2747.582	964.65	80.15
1001.3206	2748.7889	967.6	80.1
1001.4415	2749.9952	964.55	79.15
1001.5625	2751.2008	967.1	81.5
1001.6833	2752.4057	967.55	79
1001.8042	2753.61	964.5	78.75
1001.925	2754.8136	966.25	78.45
1002.0458	2756.0165	962.6	80.35
1002.1665	2757.2188	961.2	76.95
1002.2872	2758.4204	961.3	76.65
1002.4078	2759.6213	964.25	77.65
1002.5285	2760.8215	964.55	75.65
1002.649	2762.0211	963.4	77.75
1002.7696	2763.22	966.8	79.3
1002.8901	2764.4182	962.7	75.15
1003.0106	2765.6158	958.65	74.05
1003.131	2766.8127	959.6	75.25
1003.2514	2768.009	961.15	76.5
1003.3717	2769.2045	961.95	78.2
1003.492	2770.3994	962.45	75.2
1003.6123	2771.5936	956.6	73.4
1003.7325	2772.7872	957.9	73.6
1003.8527	2773.9801	958.7	72.4
1003.9729	2775.1723	974.9	75.75
1004.093	2776.3639	960.65	77.8
1004.2131	2777.5548	958.7	72.1
1004.3331	2778.745	957.7	71.4
1004.4531	2779.9346	957	71.55
1004.5731	2781.1235	956.85	70.1
1004.693	2782.3117	953.2	70.15
1004.8129	2783.4992	954.4	70.7
1004.9328	2784.6861	960.2	77.2
1005.0526	2785.8723	957.95	74.6
1005.1723	2787.0579	952.85	69.4
1005.2921	2788.2428	956.65	72.9
1005.4118	2789.427	954.7	72.35
1005.5314	2790.6106	953.15	69.25
1005.651	2791.7935	958.15	71.55
1005.7706	2792.9757	952.5	70.85
1005.8902	2794.1573	958	71.6
1006.0097	2795.3382	955.25	71.65
1006.1291	2796.5184	951.9	67.85
1006.2485	2797.698	953	67.5
1006.3679	2798.8769	953.8	71.1
1006.4873	2800.0551	956.3	70.3
1006.6066	2801.2327	956.35	70.9
1006.7258	2802.4096	957.35	73.55
1006.8451	2803.5859	957.95	74.65
1006.9642	2804.7615	957.6	75.2
1007.0834	2805.9364	956.75	73
1007.2025	2807.1106	954.55	71.1
1007.3216	2808.2842	957.9	73.65
1007.4406	2809.4572	958.5	74.85
1007.5596	2810.6294	958.8	74.2
1007.6785	2811.801	959	76.55
1007.7975	2812.972	960.75	76.35
1007.9163	2814.1423	960.95	77.55
1008.0352	2815.3119	962.95	78.7
1008.154	2816.4808	967.1	83.05
1008.2727	2817.6491	969.35	84.35
1008.3914	2818.8167	967.95	84.95
1008.5101	2819.9837	972.6	83.2
1008.6288	2821.15	980.85	96.1
1008.7474	2822.3157	979.65	96.45
1008.8659	2823.4807	986.6	101.55
1008.9844	2824.645	994.6	108.75
1009.1029	2825.8086	996.15	113.65
1009.2214	2826.9716	1005.55	122.55
1009.3398	2828.134	1006.15	124.7
1009.4581	2829.2957	1015.45	129.95
1009.5764	2830.4567	1019.8	137.3
1009.6947	2831.617	1023.65	138.25
1009.813	2832.7767	1023.65	141.75
1009.9312	2833.9358	1026.1	142.35
1010.0493	2835.0941	1028.7	143.4
1010.1675	2836.2519	1023.15	140.7
1010.2855	2837.4089	1019.6	134.95
1010.4036	2838.5653	1017.2	133.2
1010.5216	2839.7211	1011.6	126.85
1010.6396	2840.8761	1015.6	130.3
1010.7575	2842.0306	1009.4	124.8
1010.8754	2843.1843	1011.2	126
1010.9932	2844.3374	1012.65	126.8
1011.111	2845.4899	1014.5	130.55
1011.2288	2846.6417	1012.4	129.7
1011.3465	2847.7928	1016.2	134.2
1011.4642	2848.9433	1013.05	129.6
1011.5818	2850.0931	1018.75	135.3
1011.6995	2851.2422	1022.3	138.15
1011.817	2852.3907	1017.1	132.4
1011.9345	2853.5385	1019.4	131.85
1012.052	2854.6857	1028.85	137.15
1012.1695	2855.8323	1020.65	137.2
1012.2869	2856.9781	1020.9	138.45
1012.4042	2858.1233	1027.65	144.65
1012.5216	2859.2679	1031.25	146.6
1012.6389	2860.4118	1029.1	144
1012.7561	2861.555	1038.35	150.8
1012.8733	2862.6976	1040.7	154.45
1012.9905	2863.8395	1039	155.15
1013.1076	2864.9808	1040.45	156.05
1013.2247	2866.1214	1039.15	154.8
1013.3417	2867.2614	1044.8	159.7
1013.4587	2868.4007	1041.3	153.75
1013.5757	2869.5393	1048.35	161.4
1013.6926	2870.6773	1047.3	159.85
1013.8095	2871.8146	1051	165.05
1013.9263	2872.9513	1054.25	168.6
1014.0431	2874.0874	1052.1	167.4
1014.1599	2875.2227	1051.55	166.75
1014.2766	2876.3574	1053.8	171.35
1014.3933	2877.4915	1054.8	171
1014.51	2878.6249	1055.75	172.2
1014.6266	2879.7577	1056.5	169.85
1014.7431	2880.8898	1070.75	175.8
1014.8596	2882.0212	1065.15	181.8
1014.9761	2883.152	1064.35	179.9
1015.0925	2884.2821	1064.05	181.05
1015.2089	2885.4116	1061.05	177.8
1015.3253	2886.5405	1068.6	184.95
1015.4416	2887.6686	1075.1	189.6
1015.5579	2888.7962	1066.25	184.65
1015.6741	2889.923	1068.9	184.6
1015.7903	2891.0493	1071.25	186.5
1015.9065	2892.1748	1071	185.15
1016.0226	2893.2997	1071.15	188.2
1016.1387	2894.424	1067.2	184.4
1016.2547	2895.5476	1068.25	184
1016.3707	2896.6706	1068.75	187.05
1016.4866	2897.7929	1070.5	185.35
1016.6025	2898.9145	1066.35	182.45
1016.7184	2900.0355	1067.75	184.4
1016.8342	2901.1559	1070.75	186.6
1016.95	2902.2756	1069	182
1017.0658	2903.3946	1061.6	177.85
1017.1815	2904.513	1066.65	180.8
1017.2971	2905.6308	1063.8	180.65
1017.4127	2906.7479	1068.05	185.7
1017.5283	2907.8643	1061.05	177.7
1017.6439	2908.9801	1064.1	180.85
1017.7594	2910.0953	1063.7	180.1
1017.8748	2911.2098	1067.65	180.4
1017.9902	2912.3236	1071.3	177.45
1018.1056	2913.4368	1068.75	182.15
1018.2209	2914.5494	1062.75	178.8
1018.3362	2915.6613	1067.95	177.7
1018.4515	2916.7725	1059.15	174.25
1018.5667	2917.8831	1050.55	166
1018.6819	2918.9931	1055.15	170.55
1018.797	2920.1024	1051.6	166.6
1018.9121	2921.211	1047.65	164.2
1019.0271	2922.319	1050	165.8
1019.1421	2923.4264	1041.45	158.95
1019.2571	2924.5331	1043.6	162.05
1019.372	2925.6391	1044.35	160.85
1019.4869	2926.7445	1039.45	157.4
1019.6017	2927.8493	1044.15	158.5
1019.7165	2928.9534	1042.05	158.15
1019.8313	2930.0569	1048.3	160.75
1019.946	2931.1597	1044.1	159.95
1020.0606	2932.2619	1049.55	164.95
1020.1753	2933.3634	1045.6	162.4
1020.2899	2934.4643	1057.55	166.9
1020.4044	2935.5645	1058.55	165.95
1020.5189	2936.6641	1055.7	166.25
1020.6334	2937.763	1052.4	169.65
1020.7478	2938.8613	1050.75	167.75
1020.8622	2939.959	1055.85	168.55
1020.9765	2941.056	1047.75	165.65
1021.0908	2942.1523	1041.45	154.7
1021.2051	2943.248	1035.95	151.25
1021.3193	2944.3431	1034.15	150.95
1021.4334	2945.4375	1026.3	142.65
1021.5476	2946.5313	1016.6	133.6
1021.6617	2947.6244	1011.15	127
1021.7757	2948.7169	1002.5	118.25
1021.8897	2949.8087	999.75	115.2
1022.0037	2950.8999	993.75	110.2
1022.1176	2951.9904	988.15	104.85
1022.2315	2953.0803	985.1	100
1022.3453	2954.1696	978.35	94.05
1022.4591	2955.2582	974.85	91.7
1022.5728	2956.3462	981.35	98.45
1022.6865	2957.4335	976.25	93.4
1022.8002	2958.5202	975	87.9
1022.9138	2959.6062	973.5	88.55
1023.0274	2960.6916	973.05	91.1
1023.141	2961.7764	977.25	93.55
1023.2545	2962.8605	979.15	96.6
1023.3679	2963.9439	971.65	91.1
1023.4813	2965.0267	974.2	89.8
1023.5947	2966.1089	994.65	87.35
1023.708	2967.1905	973.35	91.6
1023.8213	2968.2714	971.6	88
1023.9346	2969.3516	970.65	86.95
1024.0478	2970.4312	976.7	86.85
1024.1609	2971.5102	971.65	87.6
1024.274	2972.5885	968.55	87.5
1024.3871	2973.6662	977.1	88.4
1024.5002	2974.7432	971.1	88.55
1024.6132	2975.8196	968.2	83
1024.7261	2976.8954	969.6	86.8
1024.839	2977.9705	969.85	85.1
1024.9519	2979.045	969.15	84.1
1025.0647	2980.1188	968.85	86.2
1025.1775	2981.192	966.55	83.35
1025.2902	2982.2645	965.25	80.65
1025.4029	2983.3364	963.45	81.1
1025.5156	2984.4077	963.35	79.65
1025.6282	2985.4783	969.55	80.65
1025.7407	2986.5483	957.15	73.4
1025.8532	2987.6177	959.1	74.95
1025.9657	2988.6864	955.55	74.1
1026.0782	2989.7545	956.3	71.25
1026.1906	2990.8219	950.8	68.45
1026.3029	2991.8887	951.75	67.35
1026.4152	2992.9548	953.05	70.7
1026.5275	2994.0204	949	67.7
1026.6397	2995.0852	943.3	62.3
1026.7519	2996.1495	942.55	58.7
1026.864	2997.2131	938.6	54.55
1026.9761	2998.276	940.4	55.3
1027.0882	2999.3383	935.75	49.5
1027.2002	3000.4	933.05	48.35
1027.3122	3001.4611	934	50.7
1027.4241	3002.5215	933.95	49.4
1027.536	3003.5812	930.65	46.9
1027.6478	3004.6404	929.7	46.2
1027.7596	3005.6989	932.4	47.75
1027.8714	3006.7567	928.75	45.75
1027.9831	3007.8139	947.4	43.05
1028.0947	3008.8705	925.3	40.35
1028.2064	3009.9264	927.85	40.85
1028.3179	3010.9818	925.4	43.1
1028.4295	3012.0364	927.7	41.15
1028.541	3013.0905	924.6	41
1028.6524	3014.1439	923.2	39.75
1028.7638	3015.1966	917.4	33.9
1028.8752	3016.2487	923.95	41.7
1028.9865	3017.3002	925.55	37.85
1029.0978	3018.3511	919.6	37.05
1029.209	3019.4013	921.4	37.2
1029.3202	3020.4509	920	37.8
1029.4314	3021.4998	921.25	37.4
1029.5425	3022.5481	921.55	37.8
1029.6535	3023.5958	920.05	37.5
1029.7645	3024.6428	921.45	35.6
1029.8755	3025.6892	920.25	38.55
1029.9864	3026.735	919.45	34.9
1030.0973	3027.7802	919.5	35.8
1030.2082	3028.8247	921.4	37.55
1030.319	3029.8685	920	35.05
1030.4297	3030.9118	920.75	37.5
1030.5404	3031.9544	916.95	34.95
1030.6511	3032.9963	921.4	38.1
1030.7617	3034.0376	920.35	38.1
1030.8723	3035.0783	921.75	36.45
1030.9829	3036.1184	917.65	32.95
1031.0934	3037.1578	918.85	36.15
1031.2038	3038.1966	919.1	33.75
1031.3142	3039.2348	916.4	34.15
1031.4246	3040.2723	929.5	38.4
1031.5349	3041.3092	918.05	34.55
1031.6452	3042.3455	918	34.3
1031.7554	3043.3811	919.15	35.4
1031.8656	3044.4161	922.5	38.1
1031.9758	3045.4505	920.4	36.9
1032.0859	3046.4842	921.95	35.85
1032.1959	3047.5173	917	33.55
1032.3059	3048.5498	921	36.5
1032.4159	3049.5816	919.65	36.65
1032.5258	3050.6128	921.25	35.9
1032.6357	3051.6434	918.95	33.35
1032.7455	3052.6734	922.45	37.95
1032.8553	3053.7027	918.55	36.5
1032.9651	3054.7314	919.4	36.75
1033.0748	3055.7594	920.55	36.6
1033.1845	3056.7868	921.65	37.2
1033.2941	3057.8136	918.8	35.7
1033.4037	3058.8398	918.6	35.35
1033.5132	3059.8653	922.55	40.55
1033.6227	3060.8902	918.6	35.65
1033.7321	3061.9145	920.85	36.85
1033.8415	3062.9381	919.1	35.8
1033.9509	3063.9612	934.25	33.85
1034.0602	3064.9835	922.15	37.45
1034.1694	3066.0053	919.3	33.25
1034.2787	3067.0264	921.5	36.05
1034.3878	3068.0469	921.3	37.65
1034.497	3069.0668	922.95	37.6
1034.6061	3070.086	918.95	36.25
1034.7151	3071.1046	922.4	36.75
1034.8241	3072.1226	919.8	34.8
1034.9331	3073.1399	916.6	34.15
1035.042	3074.1567	919.3	35.75
1035.1508	3075.1727	919.65	34.6
1035.2597	3076.1882	917.4	34.9
1035.3684	3077.203	916.25	32.8
1035.4772	3078.2173	917.05	33.95
1035.5859	3079.2308	918.6	33.7
1035.6945	3080.2438	918.15	32.5
1035.8031	3081.2561	917.65	33.6
1035.9117	3082.2678	913.7	30.25
1036.0202	3083.2789	912.35	30.6
1036.1286	3084.2893	913.1	32.1
1036.2371	3085.2991	915.1	31.5
1036.3454	3086.3083	920.45	31.45
1036.4538	3087.3169	916.6	31.6
1036.562	3088.3248	912.8	29.4
1036.6703	3089.3321	914.4	28.8
1036.7785	3090.3388	910.2	28.95
1036.8866	3091.3449	908.65	25
1036.9948	3092.3503	915.5	29.55
1037.1028	3093.3551	908.45	24.75
1037.2108	3094.3593	910.1	28.15
1037.3188	3095.3629	908.4	24.25
1037.4267	3096.3658	909.6	23.5
1037.5346	3097.3681	909.7	27.85
1037.6425	3098.3698	911.65	27.8
1037.7503	3099.3708	917.15	28.6
1037.858	3100.3713	909.5	27
1037.9657	3101.3711	910.25	25.25
1038.0734	3102.3702	1043.3	23.75
1038.181	3103.3688	912.75	27.05
1038.2886	3104.3667	907.1	25.95
1038.3961	3105.364	909.05	26.1
1038.5036	3106.3607	912.45	28.15
1038.611	3107.3568	909.8	24.05
1038.7184	3108.3522	905.3	24.15
1038.8257	3109.347	908.6	24.75
1038.933	3110.3412	913.5	25.3
1039.0403	3111.3348	904.5	20.7
1039.1475	3112.3277	904.75	22.05
1039.2547	3113.32	905.15	22.7
1039.3618	3114.3117	904.45	19.25
1039.4689	3115.3028	903.85	21.1
1039.5759	3116.2932	907.3	20.3
1039.6829	3117.2831	912.25	24.65
1039.7898	3118.2723	905.15	21.7
1039.8967	3119.2608	907.3	24.45
1040.0035	3120.2488	904.25	19.9
1040.1103	3121.2361	904.65	20.2
1040.2171	3122.2229	903.95	20.25
1040.3238	3123.209	907.05	22.05
1040.4305	3124.1944	903.15	18.85
1040.5371	3125.1793	906.05	21.15
1040.6437	3126.1635	903.05	21.15
1040.7502	3127.1471	903.05	20.7
1040.8567	3128.1301	902.95	20.45
1040.9631	3129.1125	902.5	19.6
1041.0695	3130.0942	902.25	18.35
1041.1759	3131.0753	911.85	20.3
1041.2822	3132.0558	905.85	18.45
1041.3884	3133.0357	903.7	18.85
1041.4946	3134.015	900.25	13
1041.6008	3134.9936	903.95	17.55
1041.7069	3135.9716	920.35	17.75
1041.813	3136.949	903.6	20.7
1041.919	3137.9258	922.7	22.2
1042.025	3138.902	905.6	17.35
1042.1309	3139.8775	903.1	23.2
1042.2368	3140.8524	901.65	18.15
1042.3427	3141.8267	900.85	16.2
1042.4485	3142.8004	901.45	17.8
1042.5542	3143.7735	907.15	17.25
1042.6599	3144.7459	902.55	16.25
1042.7656	3145.7178	903.1	18.75
1042.8712	3146.689	899.1	16.65
1042.9768	3147.6596	899.8	14
1043.0823	3148.6295	900.8	16.65
1043.1878	3149.5989	900.6	15.75
1043.2932	3150.5676	900.95	18.65
1043.3986	3151.5357	898.2	16.35
1043.5039	3152.5032	899.95	16.8
1043.6092	3153.4701	899.25	16.45
1043.7145	3154.4364	903.45	19.05
1043.8197	3155.402	898.7	18.1
1043.9248	3156.367	902.65	18.15
1044.03	3157.3315	937.4	18.4
1044.135	3158.2952	901.4	14.85
1044.24	3159.2584	897.2	14.75
1044.345	3160.221	899.4	13.9
1044.4499	3161.1829	900.15	16.55
1044.5548	3162.1442	900.65	17.75
1044.6596	3163.105	900.6	19.15
1044.7644	3164.065	898.65	16
1044.8692	3165.0245	901.55	18.45
1044.9739	3165.9834	897.2	14.75
1045.0785	3166.9416	899.95	18
1045.1831	3167.8993	900.75	16.3
1045.2877	3168.8563	898.55	14.9
1045.3922	3169.8127	901.1	19.05
1045.4966	3170.7684	899.15	15.7
1045.6011	3171.7236	899.85	14.55
1045.7054	3172.6782	900.65	16.75
1045.8098	3173.6321	896.45	11.45
1045.914	3174.5854	901.9	14
1046.0183	3175.5381	900.05	17.6
1046.1224	3176.4902	898.4	16.6
1046.2266	3177.4417	898.9	16.35
1046.3307	3178.3926	897.6	15.9
1046.4347	3179.3428	896.15	14
1046.5387	3180.2924	897.05	15.8
1046.6427	3181.2415	896	9.7
1046.7466	3182.1899	900.05	15.25
1046.8504	3183.1377	897.1	14
1046.9542	3184.0848	900.5	12.7
1047.058	3185.0314	896.7	12.6
1047.1617	3185.9773	898.6	14.3
1047.2654	3186.9227	897.95	13.5
1047.369	3187.8674	898	14.7
1047.4726	3188.8115	898.85	12.2
1047.5761	3189.755	895.9	12.7
1047.6796	3190.6979	896.65	12.3
1047.783	3191.6402	897.7	14.45
1047.8864	3192.5818	897.55	15.8
1047.9898	3193.5229	903.8	12.6
1048.0931	3194.4633	897.7	16.15
1048.1963	3195.4031	895.8	11.6
1048.2995	3196.3423	896.9	14.55
1048.4027	3197.2809	896	12.65
1048.5058	3198.2189	897.2	13.55
1048.6089	3199.1563	903.05	12.9
1048.7119	3200.0931	896.3	12.7
1048.8148	3201.0292	893.95	12.8
1048.9178	3201.9648	897.3	14.3
1049.0206	3202.8997	898.1	12.5
1049.1235	3203.834	897.35	13.65
1049.2262	3204.7677	895.9	10.6
1049.329	3205.7008	897.95	11.55
1049.4317	3206.6333	894.25	11.95
1049.5343	3207.5652	901.1	15.05
1049.6369	3208.4964	896.2	11.3
1049.7394	3209.4271	894.9	11.7
1049.8419	3210.3571	895.05	12.9
1049.9444	3211.2865	894.35	8.75
1050.0468	3212.2154	896.2	12.4
1050.1491	3213.1436	896.3	10.15
1050.2514	3214.0712	901.95	12.55
1050.3537	3214.9982	896	13.45
1050.4559	3215.9246	895.1	14.6
1050.5581	3216.8503	895.3	14.15
1050.6602	3217.7755	894.9	13.35
1050.7623	3218.7001	894.4	10.45
1050.8643	3219.624	895	12.8
1050.9663	3220.5473	893.65	8.55
1051.0682	3221.4701	896.15	12.45
1051.1701	3222.3922	894.8	8.1
1051.2719	3223.3137	896.55	12.7
1051.3737	3224.2346	895.1	12.4
1051.4754	3225.1549	894.75	14.15
1051.5771	3226.0746	892.9	8.55
1051.6788	3226.9937	895.95	11.65
1051.7804	3227.9121	892.8	9.15
1051.8819	3228.83	895.7	13.3
1051.9834	3229.7473	894.85	8.65
1052.0849	3230.6639	894.25	10.4
1052.1863	3231.5799	896.1	12.55
1052.2876	3232.4954	895.05	11.7
1052.3889	3233.4102	892.95	9.25
1052.4902	3234.3244	894.3	11.15
1052.5914	3235.238	894.15	11.95
1052.6926	3236.151	909.75	12.15
1052.7937	3237.0634	894	11.3
1052.8948	3237.9752	893.55	11.55
1052.9958	3238.8864	893.65	9.9
1053.0968	3239.797	892.15	8.95
1053.1977	3240.7069	893.9	10.25
1053.2986	3241.6163	894.05	9.05
1053.3994	3242.5251	893.1	9.05
1053.5002	3243.4332	893	10.85
1053.6009	3244.3408	893	8.55
1053.7016	3245.2477	894.45	10.45
1053.8022	3246.154	893.4	8.2
1053.9028	3247.0598	895.2	12.1
1054.0034	3247.9649	894.45	11
1054.1039	3248.8694	894.05	10.05
1054.2043	3249.7733	892.05	8.35
1054.3047	3250.6766	893.35	9.55
1054.4051	3251.5793	893.55	9.1
1054.5054	3252.4814	893.35	10.25
1054.6056	3253.3829	892.5	10.75
1054.7058	3254.2838	892.05	9.1
1054.806	3255.1841	893.3	9.8
1054.9061	3256.0838	890.55	7.45
1055.0061	3256.9829	890.45	10.2
1055.1062	3257.8814	895.85	8.85
1055.2061	3258.7792	895.4	11.2
1055.306	3259.6765	892.95	9.5
1055.4059	3260.5731	891.1	7.9
1055.5057	3261.4692	891.7	8.8
1055.6055	3262.3647	891.7	8.8
1055.7052	3263.2595	891.25	7
1055.8049	3264.1538	890.75	8.8
1055.9045	3265.0474	892.9	7.45
1056.0041	3265.9404	892.05	9.2
1056.1036	3266.8329	888.8	4.65
1056.2031	3267.7247	901.1	6.35
1056.3025	3268.616	891.05	9.05
1056.4019	3269.5066	889.05	4.4
1056.5013	3270.3966	892.6	7.95
1056.6005	3271.286	888.55	8.8
