Software Version:	3.9.2.0
Unit SN:	10000200
Spectrometer SN:	6960
Date:	3/26/2024 12:55:45 PM
Data Line Index:	25
Spectral Points:	2048
Integration time (ms):	125
Averages:	20
Delay (ms):	30000
Sequence Number:	1
Processing:	dark subtract
Laser Power (mW):	300
Laser Current (mA):	815
Laser Diode Temp (C):	25
Laser Case Temp (C):	25.1
System Temp (C):	25
Spectrometer Temp (C):	23
CCD Temp (C):	0.036
Secondary Temp (C):	20.01
Heatsink Temp (C):	21.415
CCDPCB Temp (C):	35.04
SecondaryPCB Temp (C):	29.093

Wavelength	RamanShift	Raw Counts	Dark Subtracted
787.061	30.1047	429.3	19
787.2016	32.3739	430.35	20.35
787.3422	34.6426	430.95	18.95
787.4828	36.9109	436.55	22.9
787.6235	39.1787	442.35	23.2
787.7642	41.4461	447.95	25.7
787.9049	43.7131	451.95	25.05
788.0456	45.9796	455.65	27.2
788.1863	48.2456	459.55	26.65
788.3271	50.5112	468.85	31.1
788.4679	52.7764	474	34.4
788.6087	55.0411	474.05	29.65
788.7496	57.3054	483.75	35.2
788.8904	59.5692	485.5	36.85
789.0313	61.8326	492.4	39.75
789.1722	64.0955	500.4	43.2
789.3132	66.3579	510.7	49.55
789.4541	68.6199	518.6	54.2
789.5951	70.8815	533.25	67.15
789.7361	73.1426	558.8	89.6
789.8771	75.4032	623.05	148.35
790.0181	77.6634	779.6	300.35
790.1592	79.9231	1139.2	656.7
790.3003	82.1824	1889.95	1401.55
790.4414	84.4412	3176.15	2683.9
790.5825	86.6995	4915.35	4419.65
790.7237	88.9574	6638.9	6137.05
790.8648	91.2148	7917.4	7413.05
791.006	93.4717	8573.2	8063.95
791.1472	95.7282	8843.65	8329.95
791.2885	97.9842	8916.5	8402.4
791.4297	100.2398	8925.35	8407.95
791.571	102.4949	8883.05	8364.85
791.7123	104.7495	8859	8335.9
791.8536	107.0036	8792.7	8268.55
791.9949	109.2573	8748.35	8225.7
792.1363	111.5105	8666.35	8142.7
792.2777	113.7632	8577.6	8051.65
792.4191	116.0154	8523.45	7985.4
792.5605	118.2672	8462.6	7930.6
792.7019	120.5185	8347.2	7815.4
792.8434	122.7693	8258.85	7723.8
792.9849	125.0197	8182.45	7644.85
793.1264	127.2696	8115	7575.8
793.2679	129.519	8093.05	7549.4
793.4094	131.7679	8047.95	7504.95
793.551	134.0163	8028.45	7480.4
793.6926	136.2642	8015.65	7460.25
793.8342	138.5117	8028.15	7471.45
793.9758	140.7587	7984.4	7426.05
794.1175	143.0052	7966.6	7405.15
794.2591	145.2512	7909.65	7347
794.4008	147.4967	7856.6	7293.95
794.5425	149.7417	7784.8	7219.4
794.6842	151.9863	7738.15	7169.45
794.826	154.2304	7706.55	7134.75
794.9677	156.4739	7679.8	7103.65
795.1095	158.717	7678.85	7101.15
795.2513	160.9596	7692.95	7110.25
795.3931	163.2017	7694.35	7111.95
795.535	165.4433	7726.65	7139.85
795.6768	167.6844	7714.3	7126.9
795.8187	169.925	7710.4	7119.45
795.9606	172.1651	7632.15	7039.65
796.1025	174.4047	7581.75	6983.75
796.2445	176.6439	7526.3	6925.85
796.3864	178.8825	7488.2	6885.15
796.5284	181.1206	7489.6	6879.95
796.6704	183.3582	7456.75	6843.15
796.8124	185.5954	7430.45	6818.35
796.9544	187.832	7435.5	6818.3
797.0965	190.0681	7436.5	6819.3
797.2386	192.3037	7448.3	6826.5
797.3806	194.5388	7444.65	6819.5
797.5228	196.7734	7454.85	6828.35
797.6649	199.0075	7483.9	6851.5
797.807	201.2411	7513.9	6879.7
797.9492	203.4742	7521.9	6886.25
798.0914	205.7068	7566.95	6931.15
798.2336	207.9389	7572.35	6938.15
798.3758	210.1704	7593.7	6953.65
798.518	212.4015	7584.2	6940.3
798.6603	214.632	7613.4	6970.6
798.8025	216.862	7596.45	6961.45
798.9448	219.0915	7576.6	6950.2
799.0871	221.3205	7572.35	6946.35
799.2294	223.549	7597.25	6976.1
799.3718	225.777	7615.9	6995.25
799.5141	228.0044	7617.2	6993.15
799.6565	230.2314	7587	6966.2
799.7989	232.4578	7579.25	6954.9
799.9413	234.6837	7584.3	6952.55
800.0837	236.909	7564.7	6932.55
800.2262	239.1339	7540.8	6883.8
800.3687	241.3582	7536.25	6891.85
800.5111	243.582	7526.05	6849.75
800.6536	245.8053	7551.95	6889.3
800.7961	248.0281	7525.05	6868
800.9387	250.2503	7534.35	6875.45
801.0812	252.472	7552.95	6887.55
801.2238	254.6932	7576.9	6907.8
801.3664	256.9139	7556.85	6885.6
801.509	259.134	7565.65	6891.1
801.6516	261.3536	7567	6895.7
801.7942	263.5727	7601.7	6927.25
801.9369	265.7912	7608.35	6933.25
802.0795	268.0092	7692.55	7020.65
802.2222	270.2267	7733.85	7057.95
802.3649	272.4436	7769.1	7089.6
802.5076	274.6601	7837.35	7150.8
802.6504	276.8759	7815.55	7133.4
802.7931	279.0913	7848.2	7165.1
802.9359	281.3061	7856.6	7170.2
803.0787	283.5204	7887.05	7197.65
803.2215	285.7341	7941.9	7250.65
803.3643	287.9473	7964.5	7262.4
803.5071	290.16	7951.3	7252.45
803.6499	292.3721	7909.5	7218.45
803.7928	294.5837	7880.75	7189.6
803.9357	296.7947	7806.8	7113.85
804.0786	299.0052	7767.15	7073.75
804.2215	301.2152	7720.45	7022.1
804.3644	303.4246	7746.05	7052.75
804.5074	305.6334	7736.45	7041.75
804.6503	307.8418	7699.6	7000.65
804.7933	310.0495	7722.35	7023.15
804.9363	312.2568	7664.4	6966.7
805.0793	314.4635	7595.85	6895.4
805.2223	316.6696	7537.05	6833.95
805.3653	318.8752	7473.85	6764.25
805.5084	321.0802	7437.55	6735.3
805.6514	323.2847	7428.95	6724.45
805.7945	325.4887	7409.05	6704.4
805.9376	327.692	7417.05	6708.6
806.0807	329.8949	7472.05	6762.1
806.2238	332.0972	7534.35	6823.3
806.367	334.2989	7570	6855.25
806.5101	336.5001	7574.1	6859.85
806.6533	338.7007	7549.15	6834.05
806.7965	340.9008	7513.75	6795.15
806.9397	343.1003	7452.2	6731.15
807.0829	345.2992	7383.95	6663
807.2261	347.4976	7340.3	6619.15
807.3693	349.6955	7303.75	6574.45
807.5126	351.8927	7275.1	6549.1
807.6559	354.0895	7247.25	6512.05
807.7991	356.2856	7267.8	6538.9
807.9424	358.4812	7226.45	6497.5
808.0857	360.6763	7235.55	6503.95
808.2291	362.8707	7229	6499.45
808.3724	365.0646	7235.55	6502.2
808.5158	367.258	7204.45	6470.7
808.6591	369.4508	7210.85	6471.2
808.8025	371.643	7250.55	6511.95
808.9459	373.8346	7266.9	6527.55
809.0893	376.0257	7321.1	6575.1
809.2327	378.2162	7357.5	6612.35
809.3762	380.4062	7379.95	6631.1
809.5196	382.5956	7344.85	6596.75
809.6631	384.7844	7287.1	6539.45
809.8066	386.9726	7238.3	6489.25
809.9501	389.1603	7182.55	6434.6
810.0936	391.3474	7181.95	6394.1
810.2371	393.5339	7126.85	6379.25
810.3806	395.7199	7117.35	6375
810.5241	397.9052	7137.6	6397.8
810.6677	400.09	7190.1	6449
810.8113	402.2743	7233.4	6494.3
810.9548	404.4579	7252.7	6512
811.0984	406.641	7314	6569.05
811.2421	408.8235	7324.1	6578.55
811.3857	411.0054	7378.45	6630.35
811.5293	413.1868	7488.8	6741.65
811.673	415.3675	7620.55	6870.7
811.8166	417.5477	7655.05	6902.65
811.9603	419.7273	7595.6	6840.8
812.104	421.9064	7437.5	6674.1
812.2477	424.0848	7351.3	6592.15
812.3914	426.2627	7255.1	6494.35
812.5351	428.4399	7184	6421.6
812.6788	430.6166	7121.35	6355.85
812.8226	432.7928	7063.15	6296
812.9663	434.9683	6996.05	6229.65
813.1101	437.1432	6962.1	6193.1
813.2539	439.3176	6919.15	6149.4
813.3977	441.4914	6883.15	6113.35
813.5415	443.6645	6899.15	6126.45
813.6853	445.8371	6871.95	6100.3
813.8291	448.0091	6875.05	6104.1
813.973	450.1806	6850.25	6077.05
814.1168	452.3514	6840.8	6063.85
814.2607	454.5216	6824.45	6039.15
814.4046	456.6913	6804.85	6026.55
814.5485	458.8603	6827.9	6051.95
814.6924	461.0288	6820.95	6045.65
814.8363	463.1967	6799.35	6022.4
814.9802	465.3639	6818.75	6040.8
815.1241	467.5306	6813	6034.75
815.2681	469.6967	6783.65	6003.25
815.412	471.8622	6771.35	5991.05
815.556	474.0271	6756.4	5975.25
815.7	476.1914	6760.5	5976.65
815.844	478.3551	6770.65	5990.3
815.988	480.5182	6774.2	5992.15
816.132	482.6807	6779.15	5993.45
816.276	484.8426	6807.3	6023.9
816.4201	487.0039	6841.8	6057.05
816.5641	489.1647	6898.95	6112.8
816.7082	491.3248	6968.15	6181.7
816.8522	493.4843	6960.45	6176.2
816.9963	495.6432	6957.75	6171.1
817.1404	497.8015	6921.95	6131.8
817.2845	499.9592	6885.6	6099.2
817.4286	502.1163	6820.4	6030.15
817.5727	504.2728	6771.15	5979.15
817.7168	506.4287	6748.05	5958.1
817.861	508.5839	6733.05	5944.5
818.0051	510.7386	6734	5946.1
818.1493	512.8927	6731.85	5937.5
818.2935	515.0461	6739.7	5947.15
818.4377	517.199	6763.2	5972.55
818.5818	519.3512	6774.05	5980.5
818.726	521.5029	6834.85	6036.8
818.8703	523.6539	6918.15	6123.3
819.0145	525.8043	6919.35	6122.4
819.1587	527.9541	6876.95	6080.6
819.303	530.1033	6804.8	6005.7
819.4472	532.2519	6736.75	5940.15
819.5915	534.3999	6696.6	5895.55
819.7357	536.5472	6711.55	5913.5
819.88	538.694	6700.8	5903.35
820.0243	540.8401	6719.6	5919.25
820.1686	542.9856	6743.4	5942.25
820.3129	545.1305	6771.5	5966.95
820.4572	547.2748	6782.45	5979.8
820.6016	549.4185	6807.7	6004.3
820.7459	551.5615	6788.9	5984.05
820.8902	553.704	6809.95	6006.25
821.0346	555.8458	6788.3	5985.75
821.1789	557.987	6828.05	6023.1
821.3233	560.1276	6826.45	6020.7
821.4677	562.2675	6919.9	6116.55
821.6121	564.4069	7010.1	6204.75
821.7565	566.5456	7056.8	6250.5
821.9009	568.6837	7048.75	6242.95
822.0453	570.8212	6942.6	6137.8
822.1897	572.958	6831.25	6022.65
822.3342	575.0942	6767.95	5962.2
822.4786	577.2299	6730.75	5922.45
822.6231	579.3648	6702	5893.15
822.7675	581.4992	6643.1	5835.1
822.912	583.6329	6635.6	5828.55
823.0565	585.766	6636.8	5827.25
823.201	587.8985	6692.85	5885.2
823.3454	590.0304	6730.6	5908.75
823.4899	592.1616	6771.4	5959.2
823.6345	594.2922	6777.9	5965.55
823.779	596.4222	6751.9	5938.65
823.9235	598.5515	6689.2	5876.2
824.068	600.6802	6604.7	5791.2
824.2126	602.8083	6535.1	5719.75
824.3571	604.9358	6526.05	5706.8
824.5017	607.0626	6491.25	5676.2
824.6462	609.1888	6507.2	5690.7
824.7908	611.3144	6518.8	5701.55
824.9354	613.4393	6548	5731.4
825.08	615.5636	6595.5	5777.35
825.2246	617.6873	6648.25	5830.75
825.3692	619.8103	6720	5901.05
825.5138	621.9327	6728.85	5906.35
825.6584	624.0544	6682.3	5865
825.803	626.1756	6636.2	5820.15
825.9477	628.2961	6568.55	5749.05
826.0923	630.4159	6532.45	5711.7
826.237	632.5351	6510.8	5692.05
826.3816	634.6537	6492.05	5669.45
826.5263	636.7716	6504.5	5681.6
826.6709	638.8889	6482.7	5659.6
826.8156	641.0056	6499.7	5678.05
826.9603	643.1216	6498	5675.05
827.105	645.237	6549.55	5723.25
827.2497	647.3518	6507.4	5681.2
827.3944	649.4659	6484.95	5661.35
827.5391	651.5793	6444.9	5618.95
827.6838	653.6922	6420.15	5595.95
827.8285	655.8043	6397.35	5571.45
827.9733	657.9159	6385.5	5560.05
828.118	660.0268	6355.1	5527.15
828.2627	662.137	6337.4	5511.05
828.4075	664.2466	6347.85	5517.8
828.5522	666.3556	6369.4	5542
828.697	668.4639	6350.9	5520.3
828.8418	670.5716	6331.7	5504.15
828.9865	672.6786	6318.8	5487.95
829.1313	674.785	6296.2	5464.55
829.2761	676.8907	6289.85	5459.05
829.4209	678.9958	6282.7	5452.6
829.5657	681.1002	6285.7	5455.2
829.7105	683.204	6295.85	5461.75
829.8553	685.3072	6272.25	5438.9
830.0001	687.4097	6249	5416.5
830.1449	689.5115	6270.65	5436.25
830.2898	691.6127	6275.85	5443.15
830.4346	693.7132	6260.25	5427.15
830.5794	695.8131	6272.6	5429.9
830.7243	697.9123	6249.8	5412.65
830.8691	700.0109	6270.05	5435.95
831.014	702.1089	6257.75	5424
831.1588	704.2061	6271.35	5437.4
831.3037	706.3028	6293.6	5455.4
831.4486	708.3987	6313.3	5476.05
831.5935	710.4941	6314.6	5480.5
831.7383	712.5887	6345.45	5508.4
831.8832	714.6827	6336.1	5492.9
832.0281	716.7761	6318.4	5483
832.173	718.8688	6312.1	5473.95
832.3179	720.9608	6312.85	5470.55
832.4628	723.0522	6310.45	5468.85
832.6077	725.1429	6306.5	5468.5
832.7527	727.233	6338	5501.45
832.8976	729.3224	6393.75	5555.6
833.0425	731.4112	6450.3	5610.45
833.1874	733.4993	6471.6	5629.95
833.3324	735.5867	6449.4	5609.05
833.4773	737.6735	6378.5	5536.5
833.6222	739.7596	6274.3	5432.3
833.7672	741.845	6252.1	5411.85
833.9122	743.9298	6239.15	5395.25
834.0571	746.014	6225.2	5382.15
834.2021	748.0974	6261.9	5417.5
834.347	750.1802	6257.7	5412.45
834.492	752.2624	6247.4	5404.9
834.637	754.3439	6213.75	5368.55
834.782	756.4247	6176.45	5323
834.9269	758.5048	6140.3	5297.6
835.0719	760.5843	6152.8	5307.9
835.2169	762.6631	6163.4	5319.3
835.3619	764.7413	6198.95	5353.8
835.5069	766.8188	6297.2	5450.45
835.6519	768.8956	6345.3	5496.65
835.7969	770.9718	6414.25	5567.05
835.9419	773.0473	6394.15	5548.5
836.0869	775.1221	6346.8	5501.95
836.232	777.1962	6325.05	5478.9
836.377	779.2697	6351.4	5505.1
836.522	781.3426	6464.85	5599.3
836.667	783.4147	6552.75	5704.3
836.8121	785.4862	6577	5730.8
836.9571	787.557	6472.65	5624.45
837.1021	789.6271	6341.15	5492.8
837.2472	791.6966	6194.95	5347.65
837.3922	793.7654	6067.2	5216.9
837.5373	795.8335	5983.9	5135.2
837.6823	797.901	5942.7	5095.5
837.8274	799.9678	5904.5	5052.65
837.9724	802.0339	5885.45	5037.1
838.1175	804.0993	5902.75	5045.95
838.2626	806.1641	5883.2	5031.5
838.4076	808.2282	5858.65	5007.25
838.5527	810.2916	5844.25	4993.35
838.6978	812.3544	5816.55	4967.5
838.8428	814.4164	5788.2	4940.15
838.9879	816.4778	5786.75	4936.35
839.133	818.5385	5784.3	4934.2
839.2781	820.5986	5835	4982.75
839.4232	822.658	5869.45	5016.2
839.5682	824.7166	5914.55	5062.5
839.7133	826.7747	6039.7	5190.05
839.8584	828.832	6082.15	5230.25
840.0035	830.8886	6131.6	5276.2
840.1486	832.9446	6179.6	5326.3
840.2937	834.9999	6159.5	5307.7
840.4388	837.0545	6110.25	5255.55
840.5839	839.1085	5982.75	5129.75
840.729	841.1618	5891.65	5033.3
840.8741	843.2143	5813.45	4960.4
841.0192	845.2662	5740.5	4885.1
841.1643	847.3175	5747.75	4897.3
841.3095	849.368	5687.8	4833.4
841.4546	851.4179	5686.15	4832.5
841.5997	853.467	5665.05	4810.2
841.7448	855.5155	5682.2	4826.4
841.8899	857.5633	5677.2	4823.45
842.0351	859.6105	5651.1	4794.8
842.1802	861.6569	5637.65	4782.95
842.3253	863.7027	5615.65	4759.7
842.4704	865.7478	5599.35	4743.05
842.6156	867.7922	5594.2	4738.7
842.7607	869.8359	5566.55	4708.4
842.9058	871.8789	5560.6	4704.7
843.0509	873.9212	5578.8	4692.35
843.1961	875.9629	5531.3	4674.55
843.3412	878.0039	5561.25	4704
843.4863	880.0441	5540.45	4683
843.6315	882.0837	5576.5	4718.75
843.7766	884.1226	5561.45	4704.55
843.9218	886.1609	5605.25	4749.45
844.0669	888.1984	5646.15	4790.55
844.212	890.2352	5709.65	4853.45
844.3572	892.2714	5715.3	4852.8
844.5023	894.3069	5685.2	4826
844.6475	896.3416	5607.4	4750.15
844.7926	898.3757	5545.45	4687.1
844.9377	900.4091	5509.35	4651.4
845.0829	902.4418	5513.5	4650.65
845.228	904.4739	5501.35	4639.75
845.3732	906.5052	5530.05	4669.45
845.5183	908.5358	5537.65	4678.65
845.6635	910.5658	5517	4655.9
845.8086	912.595	5469.4	4611.25
845.9538	914.6236	5420.8	4562.15
846.0989	916.6515	5375.55	4514
846.2441	918.6786	5345.5	4484.6
846.3892	920.7051	5337.1	4474.85
846.5344	922.7309	5334.8	4473
846.6795	924.756	5304.9	4445.1
846.8246	926.7804	5298	4433.45
846.9698	928.8041	5275.15	4411.75
847.1149	930.8272	5307.15	4444.65
847.2601	932.8495	5303.7	4438.35
847.4052	934.8711	5303.95	4440.6
847.5504	936.892	5295.35	4434.3
847.6955	938.9123	5305.6	4442
847.8407	940.9318	5315.9	4454.2
847.9858	942.9506	5336.4	4473.6
848.131	944.9688	5315.7	4451.9
848.2761	946.9862	5282.5	4417.7
848.4213	949.003	5229.4	4364.6
848.5664	951.019	5200.4	4336.6
848.7115	953.0344	5163.1	4299.35
848.8567	955.0491	5134.95	4270.75
849.0018	957.063	5117.2	4251.9
849.147	959.0763	5144.05	4273.7
849.2921	961.0888	5110.3	4243.5
849.4373	963.1007	5093.5	4227.7
849.5824	965.1119	5076.4	4213.4
849.7275	967.1223	5060.7	4196.85
849.8727	969.1321	5040.3	4176.65
850.0178	971.1412	5035.3	4171.6
850.1629	973.1495	5013.1	4148.9
850.3081	975.1572	5040.95	4129.05
850.4532	977.1641	5014.55	4148.3
850.5983	979.1704	5008.3	4142.25
850.7435	981.1759	4985.35	4115.1
850.8886	983.1808	4973.75	4106.4
851.0337	985.1849	4969.2	4092.35
851.1788	987.1884	4935.95	4068.15
851.324	989.1911	4939.1	4068.6
851.4691	991.1932	4932.55	4064.25
851.6142	993.1945	4933.2	4067.45
851.7593	995.1951	4907.75	4039.5
851.9045	997.1951	4888.05	4014.5
852.0496	999.1943	4874.6	4008.7
852.1947	1001.1928	4853.85	3985.8
852.3398	1003.1906	4840.65	3972.3
852.4849	1005.1877	4863.2	3993.25
852.63	1007.1841	4878	4007.85
852.7751	1009.1798	4879.85	4013.15
852.9202	1011.1748	4861.85	3995.05
853.0653	1013.1691	4821.75	3952.6
853.2104	1015.1627	4785.35	3918.2
853.3555	1017.1556	4729	3859.5
853.5006	1019.1477	4694.2	3823.15
853.6457	1021.1392	4658.25	3790.45
853.7908	1023.1299	4631.4	3763.2
853.9359	1025.12	4621.65	3751.35
854.081	1027.1093	4612.65	3744.9
854.2261	1029.0979	4608.6	3741.6
854.3712	1031.0859	4616.35	3748.75
854.5163	1033.0731	4636.45	3767.05
854.6613	1035.0596	4632.15	3763.65
854.8064	1037.0454	4621.85	3751.3
854.9515	1039.0304	4608.85	3740.8
855.0965	1041.0148	4538.55	3669.35
855.2416	1042.9985	4509.05	3639.65
855.3867	1044.9814	4484.4	3615.2
855.5317	1046.9636	4465.8	3593.1
855.6768	1048.9452	4461.55	3593
855.8219	1050.926	4454.25	3585.15
855.9669	1052.9061	4472.9	3605.5
856.112	1054.8855	4478.3	3608.45
856.257	1056.8642	4479.45	3610
856.4021	1058.8421	4465.6	3588.75
856.5471	1060.8194	4455.7	3584.35
856.6921	1062.7959	4435.85	3566.05
856.8372	1064.7717	4446.25	3573.65
856.9822	1066.7469	4426	3554.15
857.1272	1068.7213	4406.15	3533.6
857.2723	1070.695	4428.4	3558
857.4173	1072.6679	4439.45	3565.1
857.5623	1074.6402	4447.6	3577.9
857.7073	1076.6117	4464.9	3587.5
857.8523	1078.5826	4443.1	3571.55
857.9973	1080.5527	4408.15	3535.25
858.1423	1082.5221	4336.7	3464.65
858.2873	1084.4908	4304.65	3430.6
858.4323	1086.4587	4276.9	3404.3
858.5773	1088.426	4267.05	3393.45
858.7223	1090.3925	4233.05	3357.15
858.8673	1092.3584	4221.15	3347.9
859.0123	1094.3235	4227.85	3354.35
859.1573	1096.2879	4248.8	3375.35
859.3022	1098.2515	4250.7	3377.85
859.4472	1100.2145	4273.1	3400.35
859.5922	1102.1767	4293.1	3416.5
859.7371	1104.1382	4319.6	3443.95
859.8821	1106.099	4385.95	3510.8
860.027	1108.0591	4434.85	3562.4
860.172	1110.0185	4472	3596
860.3169	1111.9771	4495.4	3622.6
860.4619	1113.9351	4522.3	3646.95
860.6068	1115.8923	4590.55	3715.95
860.7517	1117.8488	4654.5	3781.4
860.8967	1119.8045	4619.6	3747.25
861.0416	1121.7596	4512.35	3637.5
861.1865	1123.7139	4376.25	3501.8
861.3314	1125.6675	4285.45	3411.15
861.4763	1127.6204	4263.4	3390.9
861.6212	1129.5726	4269.75	3391.6
861.7661	1131.524	4296.9	3424.2
861.911	1133.4748	4242.45	3369.75
862.0559	1135.4248	4183.85	3307.6
862.2008	1137.3741	4109.9	3236.05
862.3457	1139.3226	4065.1	3190.4
862.4905	1141.2705	4051.75	3174.85
862.6354	1143.2176	4032.85	3152.2
862.7803	1145.164	4055.1	3178.15
862.9251	1147.1097	4045.7	3169.8
863.07	1149.0546	4034.3	3156.5
863.2148	1150.9989	4013.95	3139.05
863.3597	1152.9424	3973.1	3097.25
863.5045	1154.8852	3949.8	3074.3
863.6493	1156.8272	3944.15	3070.85
863.7942	1158.7686	3944.85	3064.25
863.939	1160.7092	3915	3037.45
864.0838	1162.6491	3910.5	3031.8
864.2286	1164.5883	3900.45	3024
864.3734	1166.5267	3915.55	3038.75
864.5182	1168.4644	3944.65	3069.45
864.663	1170.4014	3970.4	3090.1
864.8078	1172.3377	3993.95	3120.85
864.9526	1174.2732	4044.55	3169.65
865.0974	1176.2081	4119.3	3245.25
865.2421	1178.1421	4226.9	3349.05
865.3869	1180.0755	4380.2	3503.7
865.5317	1182.0082	4480.65	3603.45
865.6764	1183.9401	4482.3	3604.2
865.8212	1185.8713	4401.9	3524.15
865.9659	1187.8017	4268.6	3391.25
866.1106	1189.7315	4123.2	3249.6
866.2554	1191.6605	4037.6	3133.2
866.4001	1193.5888	3922.15	3046.9
866.5448	1195.5163	3906.4	3028.65
866.6895	1197.4432	3850.7	2972.2
866.8342	1199.3693	3813.05	2937.5
866.9789	1201.2947	3796.1	2911
867.1236	1203.2193	3771.15	2895.55
867.2683	1205.1432	3755.85	2876.75
867.413	1207.0664	3737.15	2860.55
867.5576	1208.9889	3743.5	2863.1
867.7023	1210.9106	3716.25	2838.25
867.847	1212.8316	3708.25	2832.6
867.9916	1214.7519	3716.35	2829.65
868.1363	1216.6715	3723.95	2847.65
868.2809	1218.5903	3742.2	2866.1
868.4255	1220.5084	3734.45	2855.1
868.5701	1222.4257	3759.3	2880.35
868.7148	1224.3424	3744.9	2868.05
868.8594	1226.2583	3762.95	2878.7
869.004	1228.1735	3777.45	2899.8
869.1486	1230.0879	3799.9	2920
869.2932	1232.0016	3831.7	2952.9
869.4377	1233.9146	3865.75	2985.65
869.5823	1235.8269	3869.65	2992.7
869.7269	1237.7384	3876.55	2999.3
869.8715	1239.6492	3866.2	2987.55
870.016	1241.5592	3865.05	2986.2
870.1606	1243.4686	3896.15	3017.75
870.3051	1245.3772	3959.4	3080.45
870.4496	1247.285	4054.85	3174.45
870.5941	1249.1922	4130.2	3250.25
870.7387	1251.0986	4209.25	3330.45
870.8832	1253.0042	4261.3	3381.85
871.0277	1254.9092	4359.85	3480.6
871.1722	1256.8134	4435.3	3556.45
871.3167	1258.7169	4570.9	3689.65
871.4611	1260.6196	4670.7	3790.5
871.6056	1262.5216	4745.25	3864.1
871.7501	1264.4229	4737.2	3859.45
871.8945	1266.3234	4713.5	3833.8
872.039	1268.2232	4650.7	3772.15
872.1834	1270.1223	4566.85	3688.55
872.3278	1272.0207	4499.9	3618.7
872.4723	1273.9183	4462.65	3576.65
872.6167	1275.8151	4468.3	3591.7
872.7611	1277.7113	4481.5	3601
872.9055	1279.6067	4550.35	3670.65
873.0499	1281.5014	4699	3818.55
873.1943	1283.3953	4891.5	4009.85
873.3386	1285.2885	5148	4269.2
873.483	1287.181	5357.75	4476.55
873.6274	1289.0727	5468.25	4589.55
873.7717	1290.9637	5413.9	4533.35
873.9161	1292.854	5282.15	4402.25
874.0604	1294.7435	5084	4202.55
874.2047	1296.6323	4930.6	4048.8
874.349	1298.5204	4804.65	3918.9
874.4933	1300.4077	4653.9	3771.7
874.6376	1302.2943	4577.05	3697.05
874.7819	1304.1802	4527.8	3647.75
874.9262	1306.0653	4496.45	3614.35
875.0705	1307.9497	4455.8	3574.75
875.2147	1309.8333	4418.25	3538.15
875.359	1311.7162	4377.85	3494.65
875.5032	1313.5984	4353.8	3469.3
875.6475	1315.4798	4343.7	3445.8
875.7917	1317.3605	4331	3442.1
875.9359	1319.2405	4345.75	3463.25
876.0801	1321.1197	4368	3485.3
876.2243	1322.9982	4348.8	3463.3
876.3685	1324.876	4285.3	3404.6
876.5127	1326.753	4192.95	3310.1
876.6569	1328.6293	4099.4	3217.3
876.801	1330.5048	3985.45	3101.45
876.9452	1332.3796	3848.8	2968.9
877.0893	1334.2537	3782.15	2876.15
877.2335	1336.127	3700.2	2818.65
877.3776	1337.9996	3656.05	2774.25
877.5217	1339.8714	3628.65	2747.15
877.6658	1341.7426	3638.15	2712.95
877.8099	1343.6129	3580.5	2699.3
877.954	1345.4826	3558.5	2677.4
878.0981	1347.3515	3521.3	2635.3
878.2422	1349.2196	3497.65	2615.75
878.3862	1351.087	3486.1	2603.7
878.5303	1352.9537	3471.7	2590.25
878.6743	1354.8197	3480.85	2598.15
878.8184	1356.6849	3482.05	2599.65
878.9624	1358.5493	3484.1	2602.55
879.1064	1360.4131	3503.25	2621.95
879.2504	1362.276	3536.2	2653.1
879.3944	1364.1383	3596.75	2714.45
879.5384	1365.9998	3605.95	2718.5
879.6823	1367.8606	3590.9	2710.5
879.8263	1369.7206	3573.45	2691.9
879.9702	1371.5799	3581.4	2696.95
880.1142	1373.4384	3573.05	2691.55
880.2581	1375.2962	3553.2	2669.7
880.402	1377.1533	3468.8	2586.4
880.5459	1379.0096	3420.2	2537.3
880.6898	1380.8652	3390.9	2507.75
880.8337	1382.7201	3341.65	2458
880.9776	1384.5742	3300.75	2417.05
881.1215	1386.4275	3270.8	2387.2
881.2653	1388.2802	3232.75	2351.15
881.4092	1390.132	3209.6	2326.25
881.553	1391.9832	3208.15	2325.3
881.6968	1393.8336	3186.15	2303.9
881.8406	1395.6832	3181.9	2297.6
881.9844	1397.5322	3165.8	2282.8
882.1282	1399.3803	3148.9	2261
882.272	1401.2278	3127.5	2245.2
882.4158	1403.0745	3110	2226.9
882.5595	1404.9204	3096.35	2215.05
882.7033	1406.7656	3081.25	2198.55
882.847	1408.6101	3064.1	2181.65
882.9908	1410.4538	3058.95	2174.8
883.1345	1412.2968	3051.8	2169.4
883.2782	1414.139	3044.45	2162.8
883.4219	1415.9805	3055.1	2171.35
883.5656	1417.8213	3066.35	2163.15
883.7092	1419.6613	3072.5	2190.25
883.8529	1421.5006	3102.8	2219.2
883.9965	1423.3391	3132.7	2249.25
884.1402	1425.1769	3177.15	2290.6
884.2838	1427.0139	3269.7	2386.7
884.4274	1428.8502	3354.5	2470.7
884.571	1430.6858	3442.85	2559.6
884.7146	1432.5206	3469.2	2588.65
884.8582	1434.3547	3467	2583.25
885.0018	1436.188	3442.75	2560.2
885.1453	1438.0206	3432.1	2548.9
885.2889	1439.8524	3411.5	2528.1
885.4324	1441.6835	3397.9	2514.55
885.5759	1443.5139	3384.85	2497.25
885.7194	1445.3435	3382.35	2499.75
885.8629	1447.1724	3387.45	2503.6
886.0064	1449.0005	3392	2508.15
886.1499	1450.8279	3370.3	2483.65
886.2933	1452.6545	3362.45	2480.1
886.4368	1454.4804	3357.5	2475.1
886.5802	1456.3056	3354	2464
886.7237	1458.13	3323.45	2440.4
886.8671	1459.9536	3306.35	2421.55
887.0105	1461.7766	3273.5	2388.85
887.1539	1463.5987	3205.65	2321.8
887.2972	1465.4202	3167.45	2282.85
887.4406	1467.2409	3113.5	2227.65
887.584	1469.0608	3087.2	2202.95
887.7273	1470.88	3039.4	2154.5
887.8706	1472.6984	3005.65	2123.65
888.0139	1474.5161	2964.5	2076.6
888.1572	1476.3331	2938.6	2055.95
888.3005	1478.1493	2938.95	2054.6
888.4438	1479.9648	2934.35	2051.75
888.5871	1481.7795	2908.05	2024.05
888.7303	1483.5935	2913	2029.1
888.8736	1485.4067	2921.55	2036.9
889.0168	1487.2192	2917	2031.05
889.16	1489.031	2918.55	2034.1
889.3032	1490.842	2909.8	2027
889.4464	1492.6522	2919.5	2035.1
889.5896	1494.4618	2904.5	2019.45
889.7327	1496.2705	2908.45	2025.15
889.8759	1498.0785	2899.3	2014.15
890.019	1499.8858	2886.4	2001.5
890.1622	1501.6924	2873	1987.45
890.3053	1503.4981	2874.25	1988.3
890.4484	1505.3032	2846.7	1962.5
890.5914	1507.1075	2849.65	1964.9
890.7345	1508.911	2839.1	1956.15
890.8776	1510.7138	2825.9	1940.9
891.0206	1512.5159	2819.1	1934.9
891.1637	1514.3172	2796.75	1913.05
891.3067	1516.1178	2784.65	1901.6
891.4497	1517.9176	2796.1	1909.15
891.5927	1519.7166	2774.1	1892.05
891.7357	1521.515	2763.4	1873.15
891.8786	1523.3126	2763.8	1879.4
892.0216	1525.1094	2745.05	1858.7
892.1645	1526.9055	2727.5	1843.75
892.3074	1528.7008	2724.1	1839.8
892.4503	1530.4954	2705.75	1813.65
892.5932	1532.2893	2697	1814.3
892.7361	1534.0824	2695.8	1807.45
892.879	1535.8747	2686.75	1801.9
893.0218	1537.6663	2681.25	1797
893.1647	1539.4572	2675.65	1789.2
893.3075	1541.2473	2681.75	1796.25
893.4503	1543.0367	2672.2	1788.3
893.5931	1544.8253	2670	1780.75
893.7359	1546.6132	2667.9	1781.85
893.8787	1548.4003	2659.1	1766.5
894.0214	1550.1867	2669.45	1774.8
894.1642	1551.9723	2677.5	1788.5
894.3069	1553.7572	2682.5	1794.55
894.4496	1555.5414	2698.3	1814.05
894.5923	1557.3247	2721.7	1837.4
894.735	1559.1074	2746.05	1860.65
894.8777	1560.8893	2790.85	1908.95
895.0204	1562.6705	2831.6	1946.55
895.163	1564.4509	2881.45	1997.1
895.3056	1566.2305	2884.95	2002
895.4482	1568.0094	2898.4	2012.55
895.5908	1569.7876	2888	2003.4
895.7334	1571.565	2882.55	1997
895.876	1573.3417	2891	2006.95
896.0186	1575.1176	2895.2	2008.6
896.1611	1576.8928	2902.4	2015.25
896.3036	1578.6672	2919.65	2036.15
896.4461	1580.4409	2954.4	2071.5
896.5886	1582.2138	2990.15	2103.9
896.7311	1583.986	3039.8	2156.75
896.8736	1585.7575	3085.95	2201.15
897.0161	1587.5282	3134.3	2251.4
897.1585	1589.2981	3162.4	2278.65
897.3009	1591.0673	3170.95	2284.6
897.4433	1592.8358	3176.75	2291.7
897.5857	1594.6035	3182.75	2293.65
897.7281	1596.3704	3166.05	2282.15
897.8705	1598.1366	3136.5	2251.05
898.0128	1599.9021	3094.4	2209.65
898.1551	1601.6668	3049.45	2163.55
898.2975	1603.4308	3022.75	2137.8
898.4398	1605.194	3013.85	2126.2
898.5821	1606.9564	3008.75	2124.25
898.7243	1608.7182	3069.35	2181.6
898.8666	1610.4791	3150.8	2265.65
899.0088	1612.2394	3260.85	2376.65
899.1511	1613.9988	3421.3	2535.7
899.2933	1615.7576	3533.85	2651.05
899.4355	1617.5156	3609.15	2718.05
899.5776	1619.2728	3605.3	2720.55
899.7198	1621.0293	3521.9	2637.4
899.862	1622.785	3382.35	2496.45
900.0041	1624.54	3221.35	2335.7
900.1462	1626.2942	3076.75	2190.7
900.2883	1628.0477	2922.95	2035.3
900.4304	1629.8005	2814.8	1926.85
900.5725	1631.5525	2724.65	1837.55
900.7145	1633.3037	2641.6	1754.65
900.8566	1635.0542	2580.35	1695.7
900.9986	1636.804	2535.3	1652.05
901.1406	1638.553	2546.95	1613.55
901.2826	1640.3013	2469.55	1585.05
901.4245	1642.0488	2443.3	1556.35
901.5665	1643.7955	2434.55	1551.25
901.7085	1645.5416	2409.75	1523.55
901.8504	1647.2868	2392.85	1507.3
901.9923	1649.0313	2376	1490.35
902.1342	1650.7751	2373.5	1486.6
902.2761	1652.5181	2368.95	1482.3
902.4179	1654.2604	2361.4	1476.95
902.5598	1656.0019	2348.55	1462.5
902.7016	1657.7427	2350.2	1465.75
902.8434	1659.4828	2380.8	1495.55
902.9852	1661.222	2400.6	1516.7
903.127	1662.9606	2432.05	1547.25
903.2687	1664.6984	2484.85	1599.25
903.4105	1666.4354	2519.6	1631.6
903.5522	1668.1717	2506.6	1621.4
903.6939	1669.9072	2459.5	1574.7
903.8356	1671.642	2411.3	1522.35
903.9773	1673.3761	2355.25	1471.2
904.119	1675.1094	2300.85	1418.8
904.2606	1676.8419	2265.6	1380.2
904.4022	1678.5737	2242.85	1356.9
904.5439	1680.3048	2227.6	1341.4
904.6855	1682.0351	2210	1324.25
904.827	1683.7646	2203.65	1315.4
904.9686	1685.4934	2189.65	1303.9
905.1101	1687.2215	2191.5	1306.4
905.2517	1688.9488	2175.25	1289.5
905.3932	1690.6754	2169.75	1285.85
905.5347	1692.4012	2161.75	1278.85
905.6761	1694.1263	2151.9	1265.9
905.8176	1695.8506	2151.3	1266.9
905.9591	1697.5742	2144.9	1260.45
906.1005	1699.297	2132.9	1247.6
906.2419	1701.0191	2132.3	1248.05
906.3833	1702.7404	2116.35	1229.35
906.5246	1704.461	2105.45	1218.85
906.666	1706.1808	2104.9	1215.05
906.8073	1707.8999	2100.8	1216.3
906.9487	1709.6182	2098.85	1213.2
907.09	1711.3358	2091.1	1206
907.2313	1713.0527	2073.75	1191.45
907.3725	1714.7688	2080.5	1188.6
907.5138	1716.4841	2072.1	1185
907.655	1718.1987	2066	1174.7
907.7962	1719.9126	2059.55	1174.9
907.9374	1721.6257	2060.15	1171.85
908.0786	1723.338	2057.85	1168.85
908.2198	1725.0496	2051.2	1166.15
908.3609	1726.7605	2048.45	1162.85
908.502	1728.4706	2047.05	1161.15
908.6431	1730.18	2043.55	1153.75
908.7842	1731.8886	2039.4	1154.3
908.9253	1733.5964	2038.8	1146.9
909.0664	1735.3036	2036.45	1147.25
909.2074	1737.0099	2036.25	1152.35
909.3484	1738.7156	2029.8	1146.2
909.4894	1740.4204	2022.05	1134.85
909.6304	1742.1246	2015.25	1127.7
909.7714	1743.8279	2009.9	1124.75
909.9123	1745.5306	2016.75	1131.65
910.0532	1747.2325	2007.85	1124.7
910.1941	1748.9336	1996.45	1112.35
910.335	1750.634	1999	1113.1
910.4759	1752.3336	2009.35	1123.9
910.6168	1754.0325	1996.95	1112.85
910.7576	1755.7307	1998.2	1114.2
910.8984	1757.4281	2001.45	1115.35
911.0392	1759.1247	1998.9	1103.05
911.18	1760.8206	1987.2	1097.8
911.3208	1762.5158	1998.85	1108.25
911.4615	1764.2102	1982.05	1096.95
911.6022	1765.9039	1979.9	1094.3
911.7429	1767.5968	1974.45	1089.15
911.8836	1769.289	1973.7	1089.65
912.0243	1770.9804	1977.3	1089.45
912.1649	1772.6711	1974.9	1089.65
912.3056	1774.361	1963.95	1077
912.4462	1776.0502	1964	1078.3
912.5868	1777.7386	1957.6	1069.5
912.7274	1779.4263	1966.8	1080.5
912.8679	1781.1132	1954	1066.5
913.0084	1782.7994	1953.85	1066.5
913.149	1784.4849	1952.85	1069.45
913.2895	1786.1696	1944.45	1052.05
913.4299	1787.8535	1946.9	1060.75
913.5704	1789.5367	1938.3	1051.7
913.7108	1791.2192	1951.3	1065.4
913.8513	1792.9009	1948.7	1050.15
913.9917	1794.5818	1932.25	1045.95
914.132	1796.2621	1927.95	1044.6
914.2724	1797.9415	1935.3	1048.45
914.4128	1799.6202	1926.7	1039.9
914.5531	1801.2982	1923.9	1038.8
914.6934	1802.9755	1916.6	1031.45
914.8337	1804.6519	1915.35	1027.75
914.9739	1806.3277	1903.75	1017.5
915.1142	1808.0027	1911.1	1024.9
915.2544	1809.6769	1905.2	1018.9
915.3946	1811.3504	1903.05	1014.2
915.5348	1813.0231	1896.45	1008.1
915.675	1814.6951	1895.95	1009.5
915.8151	1816.3664	1894.6	1006.7
915.9553	1818.0369	1893	1005.9
916.0954	1819.7067	1891.8	1006.55
916.2355	1821.3757	1890.95	1004.3
916.3755	1823.044	1875.1	988.5
916.5156	1824.7115	1884.4	999.8
916.6556	1826.3783	1881.85	995.35
916.7956	1828.0443	1870.55	987.55
916.9356	1829.7096	1874.5	985.1
917.0756	1831.3741	1880.3	990.55
917.2155	1833.0379	1869.9	984.9
917.3555	1834.701	1875.15	987.45
917.4954	1836.3633	1860.4	972.25
917.6353	1838.0248	1865.25	976.5
917.7751	1839.6856	1858.4	973.7
917.915	1841.3457	1860.25	973.6
918.0548	1843.005	1859.85	972.95
918.1946	1844.6636	1863.4	978.6
918.3344	1846.3214	1853.8	967.4
918.4742	1847.9785	1857.15	969.85
918.6139	1849.6349	1845.55	957.75
918.7537	1851.2904	1855.8	961.85
918.8934	1852.9453	1843.35	956.6
919.0331	1854.5994	1848.55	960.2
919.1727	1856.2528	1849.65	958.85
919.3124	1857.9054	1831.8	945.05
919.452	1859.5572	1839.95	952.8
919.5916	1861.2083	1830.3	944.4
919.7312	1862.8587	1832.8	946.8
919.8708	1864.5084	1835	948.05
920.0103	1866.1572	1834.8	948.7
920.1498	1867.8054	1824.7	940.45
920.2893	1869.4528	1822.65	935.35
920.4288	1871.0994	1816	929.1
920.5683	1872.7453	1815.9	927.25
920.7077	1874.3905	1816.55	924.55
920.8471	1876.0349	1807.35	920.85
920.9865	1877.6786	1821.55	934.1
921.1259	1879.3215	1814.3	928.55
921.2653	1880.9637	1811.85	927.25
921.4046	1882.6051	1804.4	919.6
921.5439	1884.2458	1809	920.65
921.6832	1885.8858	1801.1	917.15
921.8225	1887.525	1797.25	910.3
921.9617	1889.1634	1786.45	900.25
922.101	1890.8011	1790.8	904.45
922.2402	1892.4381	1792.25	906.6
922.3794	1894.0743	1794	907.35
922.5185	1895.7098	1780.4	894
922.6577	1897.3446	1786.1	899.3
922.7968	1898.9786	1782.5	893.4
922.9359	1900.6118	1781.4	895.95
923.075	1902.2443	1776.6	890.85
923.214	1903.8761	1780	894.1
923.3531	1905.5071	1765	877.85
923.4921	1907.1374	1767.45	880.25
923.6311	1908.7669	1757.25	870.35
923.77	1910.3957	1758.95	873.75
923.909	1912.0237	1764.45	875.65
924.0479	1913.651	1759.65	873.95
924.1868	1915.2776	1759.9	874.2
924.3257	1916.9034	1758.9	875.55
924.4646	1918.5285	1747.45	862.5
924.6034	1920.1528	1747.65	862.45
924.7422	1921.7764	1742.35	855.95
924.881	1923.3992	1737.2	851.05
925.0198	1925.0213	1733.4	846.8
925.1586	1926.6427	1728.15	842.5
925.2973	1928.2633	1788.4	831.35
925.436	1929.8832	1730.55	843.85
925.5747	1931.5023	1720.65	834.4
925.7134	1933.1207	1721.45	835.65
925.852	1934.7383	1723.3	838.35
925.9906	1936.3552	1710.05	824.25
926.1292	1937.9714	1712.75	827.05
926.2678	1939.5868	1712.55	826.55
926.4064	1941.2015	1706.95	820.25
926.5449	1942.8154	1705.9	819.4
926.6834	1944.4286	1702.5	815.95
926.8219	1946.041	1722.45	813.9
926.9604	1947.6528	1703.65	810.8
927.0988	1949.2637	1691.85	805.5
927.2372	1950.8739	1687.75	801.55
927.3756	1952.4834	1690.65	805.4
927.514	1954.0921	1683.4	797.65
927.6523	1955.7001	1683.05	791.65
927.7907	1957.3074	1675.3	788.25
927.929	1958.9139	1678.8	794.25
928.0673	1960.5197	1678.1	791.05
928.2055	1962.1247	1671.45	787.05
928.3438	1963.729	1675.6	790.45
928.482	1965.3325	1682.85	774
928.6202	1966.9353	1667.85	781.05
928.7584	1968.5374	1667.05	780.25
928.8965	1970.1387	1659.05	773.6
929.0346	1971.7393	1662.9	776
929.1727	1973.3392	1660.3	774
929.3108	1974.9383	1655.45	771
929.4489	1976.5366	1648.65	762.5
929.5869	1978.1342	1645.65	759.8
929.7249	1979.7311	1650.1	764.1
929.8629	1981.3273	1647.2	760.05
930.0009	1982.9227	1642.4	753.75
930.1388	1984.5173	1640.8	755.9
930.2767	1986.1112	1639.4	753.4
930.4146	1987.7044	1632.85	748.6
930.5525	1989.2968	1627.35	739.55
930.6904	1990.8885	1631.7	744
930.8282	1992.4795	1633.25	745.8
930.966	1994.0697	1621.8	735
931.1038	1995.6592	1621.75	735.1
931.2415	1997.2479	1624.2	736.65
931.3793	1998.8359	1618.25	732.5
931.517	2000.4232	1615.95	729.65
931.6547	2002.0097	1616.65	731.4
931.7923	2003.5955	1613.05	725.7
931.93	2005.1805	1613	726.35
932.0676	2006.7648	1609	722.7
932.2052	2008.3484	1613.1	725.15
932.3427	2009.9312	1608.7	722.55
932.4803	2011.5133	1603.85	717.75
932.6178	2013.0946	1606.1	720.35
932.7553	2014.6752	1602.1	717.8
932.8928	2016.2551	1598.3	712.65
933.0302	2017.8342	1597.7	711.2
933.1676	2019.4126	1589.05	705.1
933.305	2020.9902	1595.45	711.85
933.4424	2022.5672	1601.05	715.1
933.5798	2024.1433	1593.95	702.1
933.7171	2025.7188	1580.75	696.25
933.8544	2027.2935	1590.05	703.5
933.9917	2028.8674	1577.1	692.8
934.129	2030.4406	1580.8	694.95
934.2662	2032.0131	1587.15	701.25
934.4034	2033.5849	1584.4	695.3
934.5406	2035.1559	1572.6	684.2
934.6778	2036.7261	1576.6	691.65
934.8149	2038.2957	1570.65	684.95
934.952	2039.8645	1567.9	683.15
935.0891	2041.4325	1568.15	680.4
935.2262	2042.9998	1566.2	681.95
935.3632	2044.5664	1574.3	686.9
935.5002	2046.1323	1566.4	680.65
935.6372	2047.6974	1558.85	671.55
935.7742	2049.2617	1563.05	676.75
935.9111	2050.8254	1580	673.85
936.048	2052.3883	1563.9	676.1
936.1849	2053.9504	1560.15	673.2
936.3218	2055.5118	1560.9	675.55
936.4586	2057.0725	1557.75	668.55
936.5955	2058.6325	1545.8	659.35
936.7323	2060.1917	1559.2	673.2
936.869	2061.7502	1560.05	671.25
937.0058	2063.3079	1548.9	663.7
937.1425	2064.8649	1553	663.95
937.2792	2066.4212	1544.3	659
937.4159	2067.9767	1553.85	669
937.5525	2069.5315	1549	661.85
937.6891	2071.0856	1540.8	655.9
937.8257	2072.6389	1539.5	652.4
937.9623	2074.1915	1531.65	647.5
938.0989	2075.7433	1538.4	651.6
938.2354	2077.2945	1531.8	648.35
938.3719	2078.8448	1528.4	644.1
938.5084	2080.3945	1521.8	638.15
938.6448	2081.9434	1532.65	647.8
938.7812	2083.4916	1523.85	637.45
938.9176	2085.039	1520.25	631.9
939.054	2086.5857	1524.65	637.3
939.1903	2088.1317	1523.9	637.4
939.3267	2089.677	1518.2	632.95
939.463	2091.2215	1519.85	636.3
939.5992	2092.7652	1527	641.05
939.7355	2094.3083	1519.5	633.9
939.8717	2095.8506	1514.8	628.85
940.0079	2097.3921	1512.9	628.6
940.1441	2098.933	1508.6	620.8
940.2802	2100.4731	1514.05	628.4
940.4163	2102.0124	1533.05	629.8
940.5524	2103.5511	1511.55	625.8
940.6885	2105.089	1517.45	631.75
940.8245	2106.6261	1505.7	623.15
940.9606	2108.1626	1506.25	619.3
941.0965	2109.6983	1532.75	619.4
941.2325	2111.2332	1506.25	619.6
941.3684	2112.7675	1505.3	619
941.5044	2114.301	1507.85	620.75
941.6403	2115.8337	1501.45	615
941.7761	2117.3657	1506	620.5
941.912	2118.897	1498.4	612.1
942.0478	2120.4276	1503.4	612.6
942.1835	2121.9575	1492.15	605.2
942.3193	2123.4866	1510.45	610.05
942.455	2125.0149	1489.2	601.45
942.5907	2126.5426	1485.3	598.05
942.7264	2128.0695	1488.55	597.45
942.8621	2129.5956	1479.35	594.2
942.9977	2131.1211	1491.05	599.95
943.1333	2132.6458	1473.3	589.2
943.2689	2134.1698	1483.05	598.4
943.4044	2135.693	1482.8	594.05
943.54	2137.2155	1480.45	594.3
943.6755	2138.7373	1473.05	587.1
943.8109	2140.2584	1466.65	581.25
943.9464	2141.7787	1481.6	590.4
944.0818	2143.2983	1473.3	587.75
944.2172	2144.8171	1458.05	574.05
944.3526	2146.3353	1472.1	583.85
944.4879	2147.8527	1464.75	579.8
944.6232	2149.3693	1472.6	587.1
944.7585	2150.8853	1469.65	582
944.8938	2152.4005	1463.4	578.5
945.029	2153.9149	1458.4	572.2
945.1642	2155.4287	1563.4	571.25
945.2994	2156.9417	1463.8	575.8
945.4346	2158.454	1456.9	570.7
945.5697	2159.9655	1454.95	568.15
945.7048	2161.4764	1460.1	575.15
945.8399	2162.9865	1452.45	567.55
945.9749	2164.4958	1460.35	574.1
946.1099	2166.0045	1457.8	568.5
946.2449	2167.5124	1443.75	557.1
946.3799	2169.0195	1445.75	560.35
946.5148	2170.526	1449.45	563.05
946.6498	2172.0317	1441.95	555.65
946.7846	2173.5367	1451.8	565.65
946.9195	2175.0409	1441.35	554.7
947.0543	2176.5445	1432.75	548
947.1891	2178.0473	1436.7	550.9
947.3239	2179.5494	1449.25	558.1
947.4587	2181.0507	1439.9	553.45
947.5934	2182.5513	1433.7	548.9
947.7281	2184.0512	1436.1	549.55
947.8628	2185.5504	1437.15	550.9
947.9974	2187.0488	1427.8	542.65
948.132	2188.5465	1427	539.5
948.2666	2190.0435	1430.95	544.75
948.4012	2191.5397	1425.05	540.2
948.5357	2193.0353	1422.55	538.25
948.6702	2194.5301	1421.6	535.45
948.8047	2196.0241	1420.05	533.3
948.9392	2197.5175	1415.4	528.55
949.0736	2199.0101	1424	535.9
949.208	2200.502	1408.6	523.5
949.3424	2201.9931	1413.55	528.15
949.4767	2203.4835	1406.75	517.05
949.611	2204.9733	1422.9	517.95
949.7453	2206.4622	1406.1	520.95
949.8796	2207.9505	1412.25	523.15
950.0138	2209.438	1398.5	514.85
950.148	2210.9248	1411.5	521.9
950.2822	2212.4109	1401.6	516.15
950.4164	2213.8962	1402	513.45
950.5505	2215.3809	1400.15	512.8
950.6846	2216.8648	1393.55	507.65
950.8186	2218.3479	1394.25	503.35
950.9527	2219.8304	1392.7	504.85
951.0867	2221.3121	1395.2	509.8
951.2207	2222.7931	1385.65	501.15
951.3546	2224.2733	1388.15	502.85
951.4886	2225.7529	1387.25	500.15
951.6225	2227.2317	1387.75	499.65
951.7563	2228.7098	1383.65	498.4
951.8902	2230.1872	1383.7	498.2
952.024	2231.6638	1380.85	496.05
952.1578	2233.1397	1383.6	492.05
952.2916	2234.6149	1379	492.15
952.4253	2236.0894	1383.55	497.7
952.559	2237.5632	1377.9	491.1
952.6927	2239.0362	1375.25	490.25
952.8263	2240.5085	1369.7	483.75
952.9599	2241.9801	1368.15	483.55
953.0935	2243.4509	1365.9	481.1
953.2271	2244.921	1369	482.5
953.3606	2246.3904	1368.05	481.15
953.4941	2247.8591	1365.6	480.25
953.6276	2249.3271	1366.15	481.5
953.7611	2250.7943	1356.7	470.3
953.8945	2252.2608	1360.05	475
954.0279	2253.7266	1359.05	472.7
954.1612	2255.1917	1356.1	469.5
954.2946	2256.656	1350.55	462.4
954.4279	2258.1197	1346.25	461.1
954.5612	2259.5826	1348.7	460.5
954.6944	2261.0447	1355.4	469.05
954.8276	2262.5062	1350	463
954.9608	2263.9669	1345.85	459.2
955.094	2265.4269	1341.2	456.05
955.2271	2266.8862	1347.3	461.8
955.3602	2268.3448	1343.8	456.45
955.4933	2269.8026	1344.3	457.9
955.6264	2271.2598	1342.8	457.25
955.7594	2272.7162	1337.2	454.6
955.8924	2274.1719	1348.05	461
956.0253	2275.6268	1328.65	442.95
956.1583	2277.0811	1339	453.2
956.2912	2278.5346	1339.3	454.35
956.4241	2279.9874	1338.8	453.1
956.5569	2281.4395	1332.7	448.75
956.6897	2282.8908	1340.35	449.15
956.8225	2284.3414	1330.05	442.55
956.9553	2285.7914	1329.45	445.6
957.088	2287.2406	1326.8	440.35
957.2207	2288.689	1325.4	438.45
957.3534	2290.1368	1327.9	440.8
957.486	2291.5838	1328.85	442.5
957.6186	2293.0302	1327.15	440.05
957.7512	2294.4758	1321.15	435.05
957.8838	2295.9206	1319.5	431.4
958.0163	2297.3648	1318.4	432.55
958.1488	2298.8082	1323.65	437.7
958.2813	2300.251	1319.2	433.45
958.4137	2301.693	1320.3	433.1
958.5461	2303.1343	1319.35	433.65
958.6785	2304.5748	1313.3	429
958.8108	2306.0147	1312.3	426.15
958.9432	2307.4538	1316.85	427.85
959.0754	2308.8922	1304.85	419.4
959.2077	2310.3299	1306.8	421.15
959.3399	2311.7669	1306.05	419.7
959.4721	2313.2031	1303.85	418.85
959.6043	2314.6387	1304.8	418.4
959.7365	2316.0735	1303.45	417.6
959.8686	2317.5076	1301.15	414.15
960.0006	2318.941	1305.25	419.35
960.1327	2320.3737	1301.6	415.65
960.2647	2321.8056	1305.75	418.9
960.3967	2323.2369	1300.75	413.75
960.5287	2324.6674	1299	412
960.6606	2326.0972	1303.8	415.05
960.7925	2327.5263	1297.75	413.55
960.9244	2328.9547	1298.25	413.2
961.0562	2330.3823	1298.6	410.55
961.1881	2331.8092	1293	406.8
961.3198	2333.2355	1289.6	402.2
961.4516	2334.661	1291.6	405.25
961.5833	2336.0858	1288.2	399.55
961.715	2337.5098	1287.85	403.8
961.8467	2338.9332	1283.75	398.25
961.9783	2340.3558	1288	400.05
962.1099	2341.7778	1281.6	394.5
962.2415	2343.199	1281.8	392.75
962.373	2344.6195	1281.2	394.3
962.5045	2346.0393	1282.8	397.9
962.636	2347.4583	1275.1	388.45
962.7675	2348.8767	1277.35	390.1
962.8989	2350.2943	1277.7	391.25
963.0303	2351.7113	1276.45	388.25
963.1617	2353.1275	1268.05	381.75
963.293	2354.543	1298.6	388.55
963.4243	2355.9578	1274.6	388.35
963.5556	2357.3718	1264.8	380.3
963.6868	2358.7852	1268.75	380.65
963.818	2360.1978	1269	382.05
963.9492	2361.6098	1271.7	384.25
964.0803	2363.021	1276.5	387.35
964.2114	2364.4315	1263.65	379.15
964.3425	2365.8413	1267.05	380.1
964.4736	2367.2504	1263.45	377.7
964.6046	2368.6587	1257.15	371.25
964.7356	2370.0664	1258.9	372.75
964.8666	2371.4733	1258.7	371.35
964.9975	2372.8795	1263.75	379.1
965.1284	2374.285	1259.85	372.6
965.2593	2375.6899	1255.6	370.35
965.3901	2377.0939	1250.55	364.45
965.5209	2378.4973	1248.05	364.1
965.6517	2379.9	1249.7	362.7
965.7825	2381.3019	1246.1	359.15
965.9132	2382.7032	1248.35	363.15
966.0439	2384.1037	1248.4	364.05
966.1745	2385.5035	1245.45	358.3
966.3051	2386.9027	1242.75	356.2
966.4357	2388.3011	1250.05	362.2
966.5663	2389.6987	1239.65	354.85
966.6968	2391.0957	1243.4	356.8
966.8273	2392.492	1236.9	351.5
966.9578	2393.8876	1236.35	348.4
967.0882	2395.2824	1242.95	355.2
967.2186	2396.6765	1231.2	346.4
967.349	2398.07	1227.15	340.9
967.4793	2399.4627	1239.55	353.8
967.6097	2400.8547	1230.75	345.75
967.7399	2402.246	1235.5	342.25
967.8702	2403.6366	1228.75	342.15
968.0004	2405.0265	1227.9	341.25
968.1306	2406.4156	1233.5	341.9
968.2607	2407.8041	1231	341.3
968.3909	2409.1918	1233	343.55
968.521	2410.5789	1222.3	335.65
968.651	2411.9652	1227.3	337.75
968.781	2413.3508	1224.65	338.15
968.911	2414.7358	1221.8	335.25
969.041	2416.12	1216.5	331.2
969.1709	2417.5035	1217.15	333.15
969.3008	2418.8863	1211.75	324.9
969.4307	2420.2684	1220.45	332.85
969.5606	2421.6497	1212.1	324.1
969.6904	2423.0304	1210.95	323.75
969.8201	2424.4104	1213.5	326.45
969.9499	2425.7896	1209.1	322.05
970.0796	2427.1682	1214.25	328.5
970.2093	2428.546	1205.1	318.15
970.3389	2429.9232	1205.4	317.75
970.4685	2431.2996	1205.3	318.75
970.5981	2432.6753	1203.75	316.75
970.7277	2434.0503	1201.45	315.35
970.8572	2435.4246	1206.45	321.95
970.9867	2436.7982	1205	317.25
971.1161	2438.1711	1201.9	319.2
971.2456	2439.5433	1198	312
971.375	2440.9148	1207.65	315.3
971.5043	2442.2856	1196.25	311.25
971.6336	2443.6557	1196.65	308.6
971.7629	2445.025	1195.95	308.75
971.8922	2446.3937	1188.9	301.45
972.0214	2447.7617	1197.5	310.45
972.1506	2449.1289	1189.7	302.65
972.2798	2450.4955	1195.3	307.05
972.4089	2451.8613	1187.75	303.35
972.538	2453.2265	1190.8	304.3
972.6671	2454.5909	1190.65	302.1
972.7961	2455.9546	1187.75	304.75
972.9251	2457.3177	1181.9	295.8
973.0541	2458.68	1183.2	295.55
973.1831	2460.0416	1189.7	302.85
973.312	2461.4025	1184.8	296.5
973.4408	2462.7627	1198.3	299.1
973.5697	2464.1222	1183.85	298.45
973.6985	2465.4811	1181.05	294.1
973.8273	2466.8392	1180.35	293.75
973.956	2468.1966	1187.4	299.35
974.0847	2469.5533	1181.95	294.1
974.2134	2470.9093	1180.05	292.5
974.3421	2472.2645	1176.55	289.1
974.4707	2473.6191	1177.8	292.7
974.5993	2474.973	1169.85	282.75
974.7278	2476.3262	1178.35	290.05
974.8563	2477.6787	1170.65	284.3
974.9848	2479.0305	1169.05	282.55
975.1132	2480.3816	1173.4	285.65
975.2417	2481.7319	1174.8	287.95
975.37	2483.0816	1175.75	287
975.4984	2484.4306	1175.9	286.7
975.6267	2485.7789	1170.1	285.2
975.755	2487.1264	1163.65	277
975.8833	2488.4733	1167.75	283.7
976.0115	2489.8195	1174	280.25
976.1397	2491.165	1172.15	284.2
976.2678	2492.5097	1163.55	275.35
976.3959	2493.8538	1168.4	283.1
976.524	2495.1972	1160.9	273.75
976.6521	2496.5398	1160.1	272.55
976.7801	2497.8818	1164.1	276.85
976.9081	2499.2231	1157.6	271.05
977.036	2500.5637	1155.6	267.35
977.164	2501.9035	1165.5	278.95
977.2918	2503.2427	1161.5	272.8
977.4197	2504.5812	1150.65	265.8
977.5475	2505.919	1158.25	269.6
977.6753	2507.256	1153.95	267.1
977.8031	2508.5924	1156.1	268.6
977.9308	2509.9281	1158.65	266.2
978.0585	2511.2631	1151.85	266.7
978.1861	2512.5974	1154.9	267.4
978.3137	2513.9309	1146.45	262.55
978.4413	2515.2638	1177.35	267.5
978.5689	2516.596	1147.25	261.15
978.6964	2517.9275	1146.55	260.05
978.8239	2519.2583	1143.35	254.45
978.9513	2520.5884	1152.65	264.15
979.0788	2521.9178	1145.8	257.5
979.2062	2523.2465	1146.65	258.9
979.3335	2524.5745	1139.4	253.05
979.4608	2525.9018	1139.75	251.75
979.5881	2527.2284	1142.35	258.1
979.7154	2528.5543	1140.25	257.65
979.8426	2529.8796	1138.65	252.3
979.9698	2531.2041	1140.9	254
980.0969	2532.5279	1134.8	247.45
980.224	2533.851	1141.65	255.4
980.3511	2535.1735	1132.3	245.75
980.4781	2536.4952	1140.3	256.4
980.6052	2537.8163	1136	248
980.7321	2539.1366	1132.25	245.7
980.8591	2540.4562	1134.8	249
980.986	2541.7752	1134.5	247.8
981.1129	2543.0935	1132.5	246.25
981.2397	2544.411	1136.05	249.95
981.3665	2545.7279	1129.85	244.6
981.4933	2547.0441	1127.95	241.5
981.62	2548.3596	1134.25	243.7
981.7467	2549.6744	1134.3	249.1
981.8734	2550.9885	1133.1	238.7
982.0001	2552.3019	1129.65	242.7
982.1267	2553.6146	1126.15	240.3
982.2532	2554.9266	1128.6	242.2
982.3798	2556.2379	1128.95	242.25
982.5063	2557.5485	1124.2	238.1
982.6327	2558.8585	1134.2	239.9
982.7592	2560.1677	1128.95	239.15
982.8856	2561.4762	1127.8	241.6
983.0119	2562.7841	1126.6	239.15
983.1383	2564.0913	1123.4	237.85
983.2646	2565.3977	1117.65	231.85
983.3908	2566.7035	1123.75	237.15
983.517	2568.0086	1121.5	234.15
983.6432	2569.313	1122	233.8
983.7694	2570.6167	1125.7	234.65
983.8955	2571.9197	1118.3	232.15
984.0216	2573.222	1122.6	232.75
984.1476	2574.5236	1113.75	229
984.2737	2575.8246	1122.4	234.9
984.3996	2577.1248	1119.3	230.85
984.5256	2578.4244	1118.6	232.05
984.6515	2579.7232	1112.15	226.35
984.7774	2581.0214	1147.4	230.6
984.9032	2582.3189	1115	230.3
985.029	2583.6157	1131.35	231.65
985.1548	2584.9118	1113.55	228.4
985.2806	2586.2072	1117	230.15
985.4063	2587.5019	1110.2	226.45
985.5319	2588.7959	1112.25	226.15
985.6576	2590.0893	1116.7	228.9
985.7832	2591.3819	1114.4	227.15
985.9087	2592.6739	1110.85	226.4
986.0343	2593.9652	1111.65	224.1
986.1597	2595.2557	1110.95	225.35
986.2852	2596.5456	1112	224.35
986.4106	2597.8348	1112.25	227.6
986.536	2599.1234	1110.35	223.7
986.6614	2600.4112	1110.95	225.55
986.7867	2601.6983	1111.8	221.6
986.912	2602.9848	1105.55	218.8
987.0372	2604.2705	1111.3	217.3
987.1624	2605.5556	1108.05	221.9
987.2876	2606.84	1104.85	219.15
987.4128	2608.1237	1103.5	214.4
987.5379	2609.4067	1103.6	218.15
987.6629	2610.689	1113.5	220.8
987.788	2611.9707	1107.35	217.25
987.913	2613.2516	1102.95	211.35
988.0379	2614.5319	1099.8	212.6
988.1629	2615.8115	1094.95	207.65
988.2878	2617.0903	1103.05	215.65
988.4126	2618.3685	1098	210
988.5375	2619.6461	1097.35	211.15
988.6622	2620.9229	1089.4	203.85
988.787	2622.199	1093.65	207.75
988.9117	2623.4745	1096.9	211.65
989.0364	2624.7493	1092.2	205.6
989.161	2626.0234	1090.1	204.15
989.2857	2627.2968	1093.9	208.25
989.4102	2628.5695	1089.85	200.75
989.5348	2629.8415	1084.55	199.2
989.6593	2631.1128	1093.9	204.45
989.7837	2632.3835	1088.1	201.9
989.9082	2633.6535	1085.85	201.25
990.0326	2634.9228	1084.45	199
990.1569	2636.1914	1087.95	202.7
990.2812	2637.4593	1090.95	197.05
990.4055	2638.7265	1083	197.55
990.5298	2639.9931	1081.95	197.9
990.654	2641.259	1080.9	192.9
990.7782	2642.5242	1086.4	201.15
990.9023	2643.7887	1081.4	193.95
991.0264	2645.0525	1079.95	193.6
991.1505	2646.3156	1100.35	197.4
991.2745	2647.5781	1079.1	192.9
991.3985	2648.8398	1074.05	186.95
991.5225	2650.1009	1086.85	195.15
991.6464	2651.3613	1083.1	197.1
991.7703	2652.6211	1075.8	189.85
991.8942	2653.8801	1079.35	192.65
992.018	2655.1385	1079.35	190.6
992.1418	2656.3961	1073	187.25
992.2655	2657.6531	1078.05	193.05
992.3892	2658.9094	1073.7	187.5
992.5129	2660.1651	1071.55	185.5
992.6366	2661.42	1070.25	183.25
992.7602	2662.6743	1075.15	187.8
992.8837	2663.9279	1070.3	184.35
993.0073	2665.1808	1076.25	188.45
993.1307	2666.433	1072	183.3
993.2542	2667.6846	1068.55	183.15
993.3776	2668.9354	1073.15	182.45
993.501	2670.1856	1072.4	185.4
993.6244	2671.4351	1072.55	188.2
993.7477	2672.6839	1070.6	182.75
993.8709	2673.9321	1071.35	187.1
993.9942	2675.1795	1071.35	183.7
994.1174	2676.4263	1070.55	184.15
994.2405	2677.6724	1067.9	183.9
994.3637	2678.9179	1068.35	181.2
994.4868	2680.1626	1069.15	181.55
994.6098	2681.4067	1068	182.05
994.7328	2682.6501	1070.6	182.95
994.8558	2683.8928	1066.15	181.4
994.9788	2685.1348	1060.4	172.8
995.1017	2686.3761	1056.5	169.55
995.2245	2687.6168	1064.45	177.05
995.3474	2688.8568	1067.2	182.5
995.4702	2690.0961	1060.55	174.65
995.5929	2691.3348	1057.1	170.95
995.7156	2692.5727	1064.25	178.1
995.8383	2693.81	1059.65	172.85
995.961	2695.0466	1055.3	170
996.0836	2696.2826	1057.7	170.3
996.2062	2697.5178	1059.2	170.7
996.3287	2698.7524	1056.45	172
996.4512	2699.9863	1057.3	169.25
996.5737	2701.2195	1055.2	171.35
996.6961	2702.452	1054.6	168.55
996.8185	2703.6839	1059.75	171.95
996.9408	2704.9151	1057.35	172.55
997.0631	2706.1456	1059.25	172.4
997.1854	2707.3755	1055.8	168.5
997.3077	2708.6046	1058.6	171.5
997.4299	2709.8331	1056.4	169.55
997.552	2711.0609	1056.4	170.9
997.6742	2712.2881	1054.9	168.65
997.7963	2713.5145	1059.9	170.25
997.9183	2714.7403	1054.35	169.2
998.0403	2715.9654	1056.5	169.25
998.1623	2717.1899	1071.6	170.7
998.2842	2718.4136	1055.95	169.85
998.4062	2719.6367	1053.9	165.8
998.528	2720.8591	1068.75	175.95
998.6498	2722.0809	1054.75	167.05
998.7716	2723.3019	1060.55	169.65
998.8934	2724.5223	1058.6	172.6
999.0151	2725.7421	1061.15	175.55
999.1368	2726.9611	1061.8	175
999.2584	2728.1795	1058.35	168.05
999.38	2729.3972	1056.65	169.65
999.5016	2730.6142	1063.8	163.2
999.6231	2731.8306	1050.5	160.9
999.7446	2733.0462	1049.65	161.8
999.8661	2734.2612	1050.9	157
999.9875	2735.4756	1040.75	152.15
1000.1089	2736.6892	1042.2	156.45
1000.2302	2737.9022	1042.3	157.1
1000.3515	2739.1145	1041	155.4
1000.4728	2740.3262	1052.95	158.95
1000.594	2741.5372	1040.15	152.55
1000.7152	2742.7475	1038.45	152.25
1000.8363	2743.9571	1043.8	155.9
1000.9575	2745.1661	1037.7	147.5
1001.0785	2746.3744	1037.65	149.95
1001.1996	2747.582	1034.15	148.55
1001.3206	2748.7889	1039.45	150.6
1001.4415	2749.9952	1031.4	144.3
1001.5625	2751.2008	1031.35	146.3
1001.6833	2752.4057	1035.9	148.75
1001.8042	2753.61	1028.85	141.75
1001.925	2754.8136	1029.4	142.2
1002.0458	2756.0165	1028.25	140.95
1002.1665	2757.2188	1028.15	143.5
1002.2872	2758.4204	1022.3	136.1
1002.4078	2759.6213	1032.35	142.2
1002.5285	2760.8215	1029.15	139.1
1002.649	2762.0211	1032.45	145
1002.7696	2763.22	1029.2	140.3
1002.8901	2764.4182	1031.65	146
1003.0106	2765.6158	1027.45	140.5
1003.131	2766.8127	1028.2	141.85
1003.2514	2768.009	1023.15	137.35
1003.3717	2769.2045	1022.45	134.5
1003.492	2770.3994	1026.15	139.05
1003.6123	2771.5936	1023.7	136.95
1003.7325	2772.7872	1021.35	134.85
1003.8527	2773.9801	1022.45	133.05
1003.9729	2775.1723	1038.6	136.7
1004.093	2776.3639	1019.85	134.4
1004.2131	2777.5548	1020.2	131.4
1004.3331	2778.745	1018.45	130.75
1004.4531	2779.9346	1015.25	128.9
1004.5731	2781.1235	1022.55	135.75
1004.693	2782.3117	1015.8	129.8
1004.8129	2783.4992	1017.25	132.45
1004.9328	2784.6861	1016	130.15
1005.0526	2785.8723	1016.65	127.65
1005.1723	2787.0579	1015.1	128.9
1005.2921	2788.2428	1013.5	128.55
1005.4118	2789.427	1012.35	127.5
1005.5314	2790.6106	1014.15	128.5
1005.651	2791.7935	1016.75	129.5
1005.7706	2792.9757	1012.15	126.3
1005.8902	2794.1573	1015.9	129.15
1006.0097	2795.3382	1013.8	126.6
1006.1291	2796.5184	1013.75	128.3
1006.2485	2797.698	1012.6	125.6
1006.3679	2798.8769	1015.55	129.8
1006.4873	2800.0551	1013.85	128.2
1006.6066	2801.2327	1016.55	126.95
1006.7258	2802.4096	1015.6	129.6
1006.8451	2803.5859	1013.3	127.35
1006.9642	2804.7615	1014.15	127.2
1007.0834	2805.9364	1013.5	129.45
1007.2025	2807.1106	1015.8	131.05
1007.3216	2808.2842	1022.1	135
1007.4406	2809.4572	1017.2	132.3
1007.5596	2810.6294	1019.45	132.15
1007.6785	2811.801	1015.05	129.2
1007.7975	2812.972	1017.75	132.65
1007.9163	2814.1423	1018.6	131.75
1008.0352	2815.3119	1023.05	138.85
1008.154	2816.4808	1026.6	140.95
1008.2727	2817.6491	1030.95	144.5
1008.3914	2818.8167	1036.2	152.35
1008.5101	2819.9837	1043.25	151.45
1008.6288	2821.15	1045.55	159.05
1008.7474	2822.3157	1049.2	163
1008.8659	2823.4807	1058.15	170.25
1008.9844	2824.645	1065.15	179.5
1009.1029	2825.8086	1073.65	186.6
1009.2214	2826.9716	1083.3	199.55
1009.3398	2828.134	1093.3	208.5
1009.4581	2829.2957	1100.55	215.05
1009.5764	2830.4567	1110	225.2
1009.6947	2831.617	1117.35	229.55
1009.813	2832.7767	1116.95	232
1009.9312	2833.9358	1115	230.15
1010.0493	2835.0941	1117.6	229.6
1010.1675	2836.2519	1111.8	225.9
1010.2855	2837.4089	1110.1	223.35
1010.4036	2838.5653	1101.5	214.4
1010.5216	2839.7211	1096.85	211.95
1010.6396	2840.8761	1098.3	210.55
1010.7575	2842.0306	1090.7	205.65
1010.8754	2843.1843	1095.2	210.35
1010.9932	2844.3374	1098.1	210.25
1011.111	2845.4899	1092.8	206.15
1011.2288	2846.6417	1100.9	215.45
1011.3465	2847.7928	1099.65	215.3
1011.4642	2848.9433	1102.1	217.7
1011.5818	2850.0931	1100.6	213.65
1011.6995	2851.2422	1103.15	215.75
1011.817	2852.3907	1101.7	213.2
1011.9345	2853.5385	1105.4	218.1
1012.052	2854.6857	1117.7	221.55
1012.1695	2855.8323	1105.75	220.35
1012.2869	2856.9781	1109.2	223.4
1012.4042	2858.1233	1112.25	226.8
1012.5216	2859.2679	1115.5	231.35
1012.6389	2860.4118	1119.15	232.35
1012.7561	2861.555	1128.55	238.25
1012.8733	2862.6976	1130.85	242.8
1012.9905	2863.8395	1135.6	248.55
1013.1076	2864.9808	1136	250.85
1013.2247	2866.1214	1131.95	247
1013.3417	2867.2614	1135.7	249.45
1013.4587	2868.4007	1142.35	255.9
1013.5757	2869.5393	1142	253.6
1013.6926	2870.6773	1148.05	258.85
1013.8095	2871.8146	1147.2	257.05
1013.9263	2872.9513	1151	262.25
1014.0431	2874.0874	1152.6	267.8
1014.1599	2875.2227	1153	266.15
1014.2766	2876.3574	1163.15	279
1014.3933	2877.4915	1157.6	272.4
1014.51	2878.6249	1156.75	272.85
1014.6266	2879.7577	1167.35	279.7
1014.7431	2880.8898	1175.5	277.35
1014.8596	2882.0212	1163.3	277.8
1014.9761	2883.152	1173.05	285.5
1015.0925	2884.2821	1174.9	290.05
1015.2089	2885.4116	1176.25	290.95
1015.3253	2886.5405	1182.95	295.1
1015.4416	2887.6686	1181.9	292.05
1015.5579	2888.7962	1183.4	298.8
1015.6741	2889.923	1175.85	291.45
1015.7903	2891.0493	1175.65	289.6
1015.9065	2892.1748	1180.05	292.15
1016.0226	2893.2997	1184.4	296.45
1016.1387	2894.424	1180.45	295.75
1016.2547	2895.5476	1175.85	290
1016.3707	2896.6706	1177.9	293.3
1016.4866	2897.7929	1181.6	293.1
1016.6025	2898.9145	1175.8	290.9
1016.7184	2900.0355	1172.3	286.95
1016.8342	2901.1559	1169.2	283.5
1016.95	2902.2756	1179.1	291.45
1017.0658	2903.3946	1170.85	284.7
1017.1815	2904.513	1178.6	289.15
1017.2971	2905.6308	1176.45	290.95
1017.4127	2906.7479	1173.3	285.5
1017.5283	2907.8643	1168.1	280.65
1017.6439	2908.9801	1165.1	280.6
1017.7594	2910.0953	1165.35	278.8
1017.8748	2911.2098	1169	280.15
1017.9902	2912.3236	1175.65	281
1018.1056	2913.4368	1165.15	275.8
1018.2209	2914.5494	1163.45	275.7
1018.3362	2915.6613	1165.05	273.3
1018.4515	2916.7725	1160.45	273.75
1018.5667	2917.8831	1154.25	266
1018.6819	2918.9931	1151.15	264.25
1018.797	2920.1024	1150	260.5
1018.9121	2921.211	1141.25	252.85
1019.0271	2922.319	1139	252.85
1019.1421	2923.4264	1136.6	250.65
1019.2571	2924.5331	1133.95	249.15
1019.372	2925.6391	1129.45	244.85
1019.4869	2926.7445	1135.1	251.7
1019.6017	2927.8493	1134.4	247.8
1019.7165	2928.9534	1138.25	252.1
1019.8313	2930.0569	1138.95	250.4
1019.946	2931.1597	1142.45	254.75
1020.0606	2932.2619	1132.65	246.95
1020.1753	2933.3634	1141.45	257.3
1020.2899	2934.4643	1146.65	253.15
1020.4044	2935.5645	1152.6	259.6
1020.5189	2936.6641	1150.5	259.85
1020.6334	2937.763	1147.3	262.55
1020.7478	2938.8613	1147.6	262.5
1020.8622	2939.959	1148.8	257.9
1020.9765	2941.056	1141	256.55
1021.0908	2942.1523	1140.25	252.6
1021.2051	2943.248	1130.65	243.65
1021.3193	2944.3431	1114.15	228.5
1021.4334	2945.4375	1110.95	223.05
1021.5476	2946.5313	1093.9	207.6
1021.6617	2947.6244	1089.9	203.15
1021.7757	2948.7169	1080.95	195.3
1021.8897	2949.8087	1070.4	185.6
1022.0037	2950.8999	1065.5	178.15
1022.1176	2951.9904	1058.55	172.5
1022.2315	2953.0803	1052.1	164
1022.3453	2954.1696	1046.65	160.35
1022.4591	2955.2582	1042.7	156.75
1022.5728	2956.3462	1039.35	154.4
1022.6865	2957.4335	1035.2	148.6
1022.8002	2958.5202	1036.45	146.75
1022.9138	2959.6062	1033.05	146.1
1023.0274	2960.6916	1032.75	149.15
1023.141	2961.7764	1037.6	150.9
1023.2545	2962.8605	1039.1	152.85
1023.3679	2963.9439	1034.1	147.75
1023.4813	2965.0267	1037.35	148.6
1023.5947	2966.1089	1055.5	147.4
1023.708	2967.1905	1026.9	139.3
1023.8213	2968.2714	1026.2	142.05
1023.9346	2969.3516	1027.5	141.85
1024.0478	2970.4312	1036.5	142.9
1024.1609	2971.5102	1030	142.95
1024.274	2972.5885	1026.45	140.4
1024.3871	2973.6662	1030.85	138.15
1024.5002	2974.7432	1025	139.6
1024.6132	2975.8196	1026.95	139.15
1024.7261	2976.8954	1026.35	140.35
1024.839	2977.9705	1027.4	142.85
1024.9519	2979.045	1026.85	141.5
1025.0647	2980.1188	1027.85	141.3
1025.1775	2981.192	1027.35	139.2
1025.2902	2982.2645	1021.7	135.15
1025.4029	2983.3364	1019.75	132.15
1025.5156	2984.4077	1018.85	132.65
1025.6282	2985.4783	1017.95	127.05
1025.7407	2986.5483	1011.2	126.3
1025.8532	2987.6177	1009.2	123.8
1025.9657	2988.6864	1004.4	118.95
1026.0782	2989.7545	1003.35	115.8
1026.1906	2990.8219	1000.35	112.55
1026.3029	2991.8887	999.9	110.9
1026.4152	2992.9548	996.1	108.25
1026.5275	2994.0204	993.7	108.9
1026.6397	2995.0852	986.1	101.5
1026.7519	2996.1495	986.1	99.45
1026.864	2997.2131	982.85	98.65
1026.9761	2998.276	978.5	92.55
1027.0882	2999.3383	979.8	93.9
1027.2002	3000.4	975.45	87.75
1027.3122	3001.4611	972.15	86.35
1027.4241	3002.5215	970.45	82.95
1027.536	3003.5812	965.9	81.2
1027.6478	3004.6404	963.85	76.7
1027.7596	3005.6989	965.15	76.15
1027.8714	3006.7567	961.65	76.95
1027.9831	3007.8139	983.65	77.7
1028.0947	3008.8705	959.6	72.6
1028.2064	3009.9264	955.8	68.3
1028.3179	3010.9818	958.05	71.45
1028.4295	3012.0364	956.7	72.25
1028.541	3013.0905	957.65	70.75
1028.6524	3014.1439	954.5	68.45
1028.7638	3015.1966	954.6	69.05
1028.8752	3016.2487	954.65	68.35
1028.9865	3017.3002	958.7	68.15
1029.0978	3018.3511	953.25	68.2
1029.209	3019.4013	953.4	67.35
1029.3202	3020.4509	948.85	64.95
1029.4314	3021.4998	953.65	67.7
1029.5425	3022.5481	948.65	63.65
1029.6535	3023.5958	950.3	64.45
1029.7645	3024.6428	953.15	66.6
1029.8755	3025.6892	950.45	65.25
1029.9864	3026.735	952.3	65.1
1030.0973	3027.7802	949.25	63.95
1030.2082	3028.8247	947.35	62.7
1030.319	3029.8685	950.75	65
1030.4297	3030.9118	948.6	62.2
1030.5404	3031.9544	948.55	63.05
1030.6511	3032.9963	947.15	63.05
1030.7617	3034.0376	947.35	62.05
1030.8723	3035.0783	951.65	63.35
1030.9829	3036.1184	948.3	62.05
1031.0934	3037.1578	948.55	63.05
1031.2038	3038.1966	950.25	64.45
1031.3142	3039.2348	947.25	63.4
1031.4246	3040.2723	955.7	62.4
1031.5349	3041.3092	947.8	62.7
1031.6452	3042.3455	947.6	62.25
1031.7554	3043.3811	948.1	62.95
1031.8656	3044.4161	948	59.45
1031.9758	3045.4505	945.75	61.15
1032.0859	3046.4842	948.65	62.35
1032.1959	3047.5173	945.85	60.95
1032.3059	3048.5498	948	63.25
1032.4159	3049.5816	947.55	61.8
1032.5258	3050.6128	951.05	63.75
1032.6357	3051.6434	950.45	63.2
1032.7455	3052.6734	949.05	60.75
1032.8553	3053.7027	949	63.8
1032.9651	3054.7314	946.8	61.55
1033.0748	3055.7594	948.3	63.65
1033.1845	3056.7868	947.15	60.2
1033.2941	3057.8136	945.7	60.45
1033.4037	3058.8398	947.15	61.55
1033.5132	3059.8653	948.45	63.5
1033.6227	3060.8902	945.7	60.1
1033.7321	3061.9145	947.6	62.6
1033.8415	3062.9381	948.7	62.35
1033.9509	3063.9612	961.2	59.15
1034.0602	3064.9835	949.9	63.25
1034.1694	3066.0053	953.9	66.35
1034.2787	3067.0264	950.95	66.5
1034.3878	3068.0469	948.3	62.65
1034.497	3069.0668	950.4	61.75
1034.6061	3070.086	946.45	61.6
1034.7151	3071.1046	948.4	59.25
1034.8241	3072.1226	944.4	57.2
1034.9331	3073.1399	946.2	60.5
1035.042	3074.1567	947.3	60.5
1035.1508	3075.1727	945.2	56.5
1035.2597	3076.1882	944.15	58.25
1035.3684	3077.203	944.65	59.8
1035.4772	3078.2173	942.1	56.2
1035.5859	3079.2308	944.35	55.65
1035.6945	3080.2438	943	54.05
1035.8031	3081.2561	940.55	53.35
1035.9117	3082.2678	938.25	53.45
1036.0202	3083.2789	939.6	54.25
1036.1286	3084.2893	935.95	50.7
1036.2371	3085.2991	939.3	53.65
1036.3454	3086.3083	940.9	50
1036.4538	3087.3169	937.15	51.55
1036.562	3088.3248	935.7	47.6
1036.6703	3089.3321	935	47.4
1036.7785	3090.3388	933.6	48.45
1036.8866	3091.3449	935.25	49.45
1036.9948	3092.3503	937.6	49.65
1037.1028	3093.3551	934.25	49.65
1037.2108	3094.3593	933	48.1
1037.3188	3095.3629	932.15	45.8
1037.4267	3096.3658	935.2	47.15
1037.5346	3097.3681	929.3	42.95
1037.6425	3098.3698	932.15	45.05
1037.7503	3099.3708	938.95	47.35
1037.858	3100.3713	931.1	45.7
1037.9657	3101.3711	930.45	43.85
1038.0734	3102.3702	1066.35	44.85
1038.181	3103.3688	933.55	46.7
1038.2886	3104.3667	930.65	45.35
1038.3961	3105.364	927.45	40.15
1038.5036	3106.3607	929.5	43
1038.611	3107.3568	929.75	42.6
1038.7184	3108.3522	927.8	42.95
1038.8257	3109.347	929.3	40.75
1038.933	3110.3412	930.2	39.5
1039.0403	3111.3348	929.8	44.6
1039.1475	3112.3277	925.75	40
1039.2547	3113.32	924	38.65
1039.3618	3114.3117	926.5	40.45
1039.4689	3115.3028	924.35	38.9
1039.5759	3116.2932	927.15	40.1
1039.6829	3117.2831	929.65	37.05
1039.7898	3118.2723	923.3	35.3
1039.8967	3119.2608	923.05	36.75
1040.0035	3120.2488	926.35	41.55
1040.1103	3121.2361	922.05	36.35
1040.2171	3122.2229	921.25	35.55
1040.3238	3123.209	925.9	39
1040.4305	3124.1944	923.05	37.15
1040.5371	3125.1793	922.9	34.65
1040.6437	3126.1635	920.3	34.55
1040.7502	3127.1471	920.9	33.55
1040.8567	3128.1301	920.6	37.5
1040.9631	3129.1125	920.2	36.25
1041.0695	3130.0942	923.4	38.6
1041.1759	3131.0753	928.3	33.5
1041.2822	3132.0558	922.05	31.85
1041.3884	3133.0357	922.65	35.45
1041.4946	3134.015	920.95	35.25
1041.6008	3134.9936	922.2	35.3
1041.7069	3135.9716	938.15	29.7
1041.813	3136.949	921.1	36.3
1041.919	3137.9258	937.45	32.9
1042.025	3138.902	923.7	31.75
1042.1309	3139.8775	918.75	32.45
1042.2368	3140.8524	918.6	32.05
1042.3427	3141.8267	919.7	31.35
1042.4485	3142.8004	918.85	34.1
1042.5542	3143.7735	923.35	31.5
1042.6599	3144.7459	921.95	35.7
1042.7656	3145.7178	918.15	33.7
1042.8712	3146.689	917.15	32.8
1042.9768	3147.6596	917.85	27.5
1043.0823	3148.6295	919	32.85
1043.1878	3149.5989	918.15	31.8
1043.2932	3150.5676	916.9	31.4
1043.3986	3151.5357	915.15	31.5
1043.5039	3152.5032	915.55	31.25
1043.6092	3153.4701	915.9	31.7
1043.7145	3154.4364	917	28.55
1043.8197	3155.402	913.6	29.7
1043.9248	3156.367	919.05	32.05
1044.03	3157.3315	952.85	31.75
1044.135	3158.2952	915.5	29.3
1044.24	3159.2584	914.75	29.45
1044.345	3160.221	916.6	31.15
1044.4499	3161.1829	915.5	29.05
1044.5548	3162.1442	913.65	28.55
1044.6596	3163.105	915.75	30.4
1044.7644	3164.065	915.35	30.2
1044.8692	3165.0245	916.9	29.15
1044.9739	3165.9834	913.35	29.6
1045.0785	3166.9416	915.85	30.05
1045.1831	3167.8993	912	28.15
1045.2877	3168.8563	914.1	26.2
1045.3922	3169.8127	911.65	27.15
1045.4966	3170.7684	911.45	23.95
1045.6011	3171.7236	914.9	27.65
1045.7054	3172.6782	915.15	29.65
1045.8098	3173.6321	914	26.45
1045.914	3174.5854	917.55	29.05
1046.0183	3175.5381	912.75	27.6
1046.1224	3176.4902	911.75	24.85
1046.2266	3177.4417	912.65	28.15
1046.3307	3178.3926	912.05	28
1046.4347	3179.3428	908.55	24.65
1046.5387	3180.2924	908.65	22.9
1046.6427	3181.2415	911.4	23.8
1046.7466	3182.1899	912.85	24.35
1046.8504	3183.1377	910.95	24.9
1046.9542	3184.0848	915.35	27.5
1047.058	3185.0314	913.15	27
1047.1617	3185.9773	910.45	23.7
1047.2654	3186.9227	911.7	22.7
1047.369	3187.8674	911.8	25.75
1047.4726	3188.8115	912.65	22.3
1047.5761	3189.755	911.2	24.6
1047.6796	3190.6979	909.25	22.5
1047.783	3191.6402	906.05	21.35
1047.8864	3192.5818	909.1	24.7
1047.9898	3193.5229	915.65	25
1048.0931	3194.4633	909.7	23.5
1048.1963	3195.4031	910.1	25
1048.2995	3196.3423	909.15	22.8
1048.4027	3197.2809	908.15	20.45
1048.5058	3198.2189	908.15	21.75
1048.6089	3199.1563	928.35	25.7
1048.7119	3200.0931	908.1	22.15
1048.8148	3201.0292	908.85	22.95
1048.9178	3201.9648	908.85	24.15
1049.0206	3202.8997	909.1	22.05
1049.1235	3203.834	908	21.9
1049.2262	3204.7677	910.25	23.45
1049.329	3205.7008	908	19.45
1049.4317	3206.6333	905.8	20.1
1049.5343	3207.5652	910.5	23.4
1049.6369	3208.4964	905.6	19.55
1049.7394	3209.4271	905.45	19.5
1049.8419	3210.3571	902.7	18.5
1049.9444	3211.2865	909.45	24.7
1050.0468	3212.2154	910	22.3
1050.1491	3213.1436	910.25	23.9
1050.2514	3214.0712	913.6	21.35
1050.3537	3214.9982	904.3	17.75
1050.4559	3215.9246	908.9	23.35
1050.5581	3216.8503	906.6	22.95
1050.6602	3217.7755	905.8	20.35
1050.7623	3218.7001	904.75	19.6
1050.8643	3219.624	906.45	19.6
1050.9663	3220.5473	907.6	21.35
1051.0682	3221.4701	908.8	20.9
1051.1701	3222.3922	907.5	19.75
1051.2719	3223.3137	907.6	20.85
1051.3737	3224.2346	905.7	18.55
1051.4754	3225.1549	905.7	21.55
1051.5771	3226.0746	903.85	20.35
1051.6788	3226.9937	903.15	17.7
1051.7804	3227.9121	905.15	20.95
1051.8819	3228.83	904.45	17.1
1051.9834	3229.7473	905.3	18.65
1052.0849	3230.6639	906.95	19.3
1052.1863	3231.5799	905.65	19.35
1052.2876	3232.4954	906.05	19
1052.3889	3233.4102	903.15	19.55
1052.4902	3234.3244	906.05	18.95
1052.5914	3235.238	904.8	20.2
1052.6926	3236.151	918.8	18.15
1052.7937	3237.0634	905.25	18.85
1052.8948	3237.9752	903.9	20.4
1052.9958	3238.8864	905.3	18.4
1053.0968	3239.797	905.05	20.1
1053.1977	3240.7069	901.35	14.95
1053.2986	3241.6163	905.2	18.9
1053.3994	3242.5251	903	17.7
1053.5002	3243.4332	901.6	15.8
1053.6009	3244.3408	903.55	18.95
1053.7016	3245.2477	903.25	17.9
1053.8022	3246.154	902.15	14.75
1053.9028	3247.0598	904.75	19.3
1054.0034	3247.9649	902.7	16.45
1054.1039	3248.8694	902.85	17.2
1054.2043	3249.7733	902.1	16.15
1054.3047	3250.6766	903.3	16.65
1054.4051	3251.5793	902.75	16.35
1054.5054	3252.4814	898.05	11.65
1054.6056	3253.3829	901.65	16.25
1054.7058	3254.2838	900.6	14.45
1054.806	3255.1841	901.65	16.9
1054.9061	3256.0838	903.7	17.85
1055.0061	3256.9829	899.85	15.4
1055.1062	3257.8814	902.1	14.3
1055.2061	3258.7792	905.3	18.25
1055.306	3259.6765	902.15	13.55
1055.4059	3260.5731	902.5	15.75
1055.5057	3261.4692	900.25	14.3
1055.6055	3262.3647	900.75	14.35
1055.7052	3263.2595	898.95	12.9
1055.8049	3264.1538	901.2	16.2
1055.9045	3265.0474	903.25	17.5
1056.0041	3265.9404	898.2	14.3
1056.1036	3266.8329	899.3	13.4
1056.2031	3267.7247	910.15	14.35
1056.3025	3268.616	897.55	10.6
1056.4019	3269.5066	899	13.7
1056.5013	3270.3966	898.9	12
1056.6005	3271.286	898.4	13.05
