Software Version:	3.9.2.0
Unit SN:	10000200
Spectrometer SN:	6960
Date:	3/26/2024 2:30:10 PM
Data Line Index:	25
Spectral Points:	2048
Integration time (ms):	125
Averages:	20
Delay (ms):	30000
Sequence Number:	1
Processing:	dark subtract
Laser Power (mW):	300
Laser Current (mA):	818
Laser Diode Temp (C):	25
Laser Case Temp (C):	27.8
System Temp (C):	27.8
Spectrometer Temp (C):	25.7
CCD Temp (C):	0.002
Secondary Temp (C):	20.007
Heatsink Temp (C):	23.405
CCDPCB Temp (C):	37.474
SecondaryPCB Temp (C):	34.462

Wavelength	RamanShift	Raw Counts	Dark Subtracted
787.061	30.1047	655.55	247.15
787.2016	32.3739	672	264.5
787.3422	34.6426	689.15	281.75
787.4828	36.9109	708	297.6
787.6235	39.1787	732.2	316.85
787.7642	41.4461	755.1	336.3
787.9049	43.7131	781.4	358.55
788.0456	45.9796	808.55	381.95
788.1863	48.2456	835.45	404.1
788.3271	50.5112	864	426.95
788.4679	52.7764	890.6	452.65
788.6087	55.0411	923.35	481
788.7496	57.3054	960.7	512.9
788.8904	59.5692	992.9	543.65
789.0313	61.8326	1035.65	582.25
789.1722	64.0955	1074.75	617.5
789.3132	66.3579	1130.65	668.4
789.4541	68.6199	1193.7	729.4
789.5951	70.8815	1293	825.35
789.7361	73.1426	1505.45	1033.25
789.8771	75.4032	2048.1	1570.55
790.0181	77.6634	3390.55	2907.15
790.1592	79.9231	6780.4	6288.75
790.3003	82.1824	14609.5	14100.7
790.4414	84.4412	33985.15	33440.2
790.5825	86.6995	62037.15	61446.55
790.7237	88.9574	65535	64902.5
790.8648	91.2148	65535	64869.55
791.006	93.4717	65535	64850.35
791.1472	95.7282	65535	64844.65
791.2885	97.9842	65535	64835.4
791.4297	100.2398	65535	64835.85
791.571	102.4949	65535	64830.65
791.7123	104.7495	65535	64829.4
791.8536	107.0036	65535	64829.15
791.9949	109.2573	65535	64830.2
792.1363	111.5105	65535	64828.65
792.2777	113.7632	65535	64821.3
792.4191	116.0154	65535	64812.7
792.5605	118.2672	65535	64821.55
792.7019	120.5185	65535	64822.55
792.8434	122.7693	65535	64820.05
792.9849	125.0197	65535	64811.75
793.1264	127.2696	65535	64812.95
793.2679	129.519	65535	64805.35
793.4094	131.7679	65535	64798.85
793.551	134.0163	65535	64799.6
793.6926	136.2642	65535	64796.95
793.8342	138.5117	65535	64791.1
793.9758	140.7587	65535	64793.4
794.1175	143.0052	65535	64787.25
794.2591	145.2512	65535	64791
794.4008	147.4967	65535	64790.7
794.5425	149.7417	65535	64784.35
794.6842	151.9863	65535	64783.7
794.826	154.2304	65535	64783.1
794.9677	156.4739	65535	64775.65
795.1095	158.717	65535	64771.8
795.2513	160.9596	65535	64768.75
795.3931	163.2017	65535	64768.85
795.535	165.4433	65535	64764.35
795.6768	167.6844	65535	64762.6
795.8187	169.925	65535	64767.25
795.9606	172.1651	65535	64764
796.1025	174.4047	65535	64761.9
796.2445	176.6439	65535	64757.1
796.3864	178.8825	65535	64754.2
796.5284	181.1206	65535	64747.35
796.6704	183.3582	65535	64746.2
796.8124	185.5954	65535	64743.65
796.9544	187.832	65535	64742.15
797.0965	190.0681	65535	64739
797.2386	192.3037	65535	64733
797.3806	194.5388	65535	64729.6
797.5228	196.7734	65535	64732.25
797.6649	199.0075	65535	64727.05
797.807	201.2411	65535	64722.9
797.9492	203.4742	65535	64724.65
798.0914	205.7068	65535	64723.85
798.2336	207.9389	65535	64720.65
798.3758	210.1704	65535	64714.65
798.518	212.4015	65535	64713.9
798.6603	214.632	65535	64717.15
798.8025	216.862	65535	64724.95
798.9448	219.0915	65535	64731.9
799.0871	221.3205	65535	64734.25
799.2294	223.549	65535	64739.75
799.3718	225.777	65535	64740.75
799.5141	228.0044	65535	64734.05
799.6565	230.2314	65535	64739.9
799.7989	232.4578	65535	64737.8
799.9413	234.6837	65535	64728.25
800.0837	236.909	65535	64729.85
800.2262	239.1339	65535	64698.05
800.3687	241.3582	65535	64714.5
800.5111	243.582	65535	64685.75
800.6536	245.8053	65535	64697.7
800.7961	248.0281	65535	64704.75
800.9387	250.2503	65535	64698.05
801.0812	252.472	65535	64696.9
801.2238	254.6932	65535	64689.85
801.3664	256.9139	65535	64690.5
801.509	259.134	65535	64686
801.6516	261.3536	65535	64695.5
801.7942	263.5727	65535	64684.8
801.9369	265.7912	65535	64689
802.0795	268.0092	65535	64689.05
802.2222	270.2267	65535	64686.95
802.3649	272.4436	65535	64685.35
802.5076	274.6601	65535	64678.85
802.6504	276.8759	65535	64689.95
802.7931	279.0913	65535	64684.25
802.9359	281.3061	65535	64680.55
803.0787	283.5204	65535	64674.65
803.2215	285.7341	65535	64675.9
803.3643	287.9473	65535	64666.45
803.5071	290.16	65535	64669.15
803.6499	292.3721	65535	64674.4
803.7928	294.5837	65535	64674.65
803.9357	296.7947	65535	64673.6
804.0786	299.0052	65535	64676.55
804.2215	301.2152	65535	64672.25
804.3644	303.4246	65535	64677.15
804.5074	305.6334	65535	64680.4
804.6503	307.8418	65535	64672.3
804.7933	310.0495	65535	64676.7
804.9363	312.2568	65535	64671.35
805.0793	314.4635	65535	64668.15
805.2223	316.6696	65535	64663.7
805.3653	318.8752	65535	64660.45
805.5084	321.0802	65535	64665.8
805.6514	323.2847	65535	64665.35
805.7945	325.4887	65535	64660.15
805.9376	327.692	65535	64660.95
806.0807	329.8949	65535	64657.75
806.2238	332.0972	65535	64662
806.367	334.2989	65535	64654.2
806.5101	336.5001	65535	64660.55
806.6533	338.7007	65535	64656.4
806.7965	340.9008	65535	64656.35
806.9397	343.1003	65535	64652
807.0829	345.2992	65535	64649.2
807.2261	347.4976	65535	64649.2
807.3693	349.6955	65535	64643.8
807.5126	351.8927	65535	64644.9
807.6559	354.0895	65535	64636.8
807.7991	356.2856	65535	64643.2
807.9424	358.4812	65535	64645.45
808.0857	360.6763	65535	64645.1
808.2291	362.8707	65535	64641.7
808.3724	365.0646	65535	64644.9
808.5158	367.258	65535	64644.3
808.6591	369.4508	65535	64639.35
808.8025	371.643	65535	64632.85
808.9459	373.8346	65535	64634.05
809.0893	376.0257	65535	64634.2
809.2327	378.2162	65535	64634.85
809.3762	380.4062	65535	64637.15
809.5196	382.5956	65535	64631.6
809.6631	384.7844	65535	64633.8
809.8066	386.9726	65535	64634.85
809.9501	389.1603	65535	64638.8
810.0936	391.3474	65535	64591.65
810.2371	393.5339	65535	64637.35
810.3806	395.7199	65535	64637.95
810.5241	397.9052	65535	64646.8
810.6677	400.09	65535	64641.05
810.8113	402.2743	65535	64643.95
810.9548	404.4579	65535	64645.1
811.0984	406.641	65535	64643.95
811.2421	408.8235	65535	64642.6
811.3857	411.0054	65535	64643.9
811.5293	413.1868	65535	64639.45
811.673	415.3675	65535	64635.9
811.8166	417.5477	65535	64633.95
811.9603	419.7273	65535	64635.1
812.104	421.9064	65535	64624.45
812.2477	424.0848	65535	64634.15
812.3914	426.2627	65535	64628.95
812.5351	428.4399	65535	64629.85
812.6788	430.6166	65535	64624.6
812.8226	432.7928	65535	64627
812.9663	434.9683	65535	64628.15
813.1101	437.1432	65535	64626.55
813.2539	439.3176	65535	64628.55
813.3977	441.4914	65535	64635.9
813.5415	443.6645	65535	64628.75
813.6853	445.8371	65535	64628.6
813.8291	448.0091	65535	64626.15
813.973	450.1806	65535	64626.65
814.1168	452.3514	65535	64629.35
814.2607	454.5216	65535	64622.8
814.4046	456.6913	65535	64629.5
814.5485	458.8603	65535	64627.65
814.6924	461.0288	65535	64632.7
814.8363	463.1967	65535	64634.85
814.9802	465.3639	65535	64628.2
815.1241	467.5306	65535	64626.9
815.2681	469.6967	65535	64631.1
815.412	471.8622	65535	64633.3
815.556	474.0271	65535	64632.1
815.7	476.1914	65535	64625.5
815.844	478.3551	65535	64627.75
815.988	480.5182	65535	64630.85
816.132	482.6807	65535	64633.6
816.276	484.8426	65535	64641.15
816.4201	487.0039	65535	64629.7
816.5641	489.1647	65535	64626.2
816.7082	491.3248	65535	64622.7
816.8522	493.4843	65535	64627.3
816.9963	495.6432	65535	64628.65
817.1404	497.8015	65535	64618.9
817.2845	499.9592	65535	64613.45
817.4286	502.1163	65535	64613.65
817.5727	504.2728	65535	64622.75
817.7168	506.4287	65535	64632.8
817.861	508.5839	65535	64629.1
818.0051	510.7386	65535	64630.2
818.1493	512.8927	65535	64616.75
818.2935	515.0461	65535	64618.8
818.4377	517.199	65535	64619.75
818.5818	519.3512	65535	64616.35
818.726	521.5029	65535	64615.4
818.8703	523.6539	65535	64617.65
819.0145	525.8043	65535	64617.95
819.1587	527.9541	65535	64612.4
819.303	530.1033	65535	64619.8
819.4472	532.2519	65535	64615.3
819.5915	534.3999	65535	64614.1
819.7357	536.5472	65535	64617.65
819.88	538.694	65535	64620.3
820.0243	540.8401	65535	64610.4
820.1686	542.9856	65535	64604.95
820.3129	545.1305	65535	64604.35
820.4572	547.2748	65535	64598.9
820.6016	549.4185	65535	64603.85
820.7459	551.5615	65535	64599.55
820.8902	553.704	65535	64602.6
821.0346	555.8458	65535	64609.45
821.1789	557.987	65535	64607.55
821.3233	560.1276	65535	64605.6
821.4677	562.2675	65535	64607.05
821.6121	564.4069	65535	64609.05
821.7565	566.5456	65535	64610.45
821.9009	568.6837	65535	64609.1
822.0453	570.8212	65535	64607.25
822.1897	572.958	65535	64609.6
822.3342	575.0942	65535	64612.45
822.4786	577.2299	65535	64616.55
822.6231	579.3648	65535	64622.9
822.7675	581.4992	65535	64630.3
822.912	583.6329	65535	64629.2
823.0565	585.766	65535	64623.75
823.201	587.8985	65535	64622.2
823.3454	590.0304	65535	64590.15
823.4899	592.1616	65535	64607.4
823.6345	594.2922	65535	64610.15
823.779	596.4222	65535	64602.75
823.9235	598.5515	65535	64605.5
824.068	600.6802	65535	64603.7
824.2126	602.8083	65535	64608.45
824.3571	604.9358	65535	64604.95
824.5017	607.0626	65535	64603.15
824.6462	609.1888	65535	64597.75
824.7908	611.3144	65535	64598.6
824.9354	613.4393	65535	64600.75
825.08	615.5636	65535	64599.2
825.2246	617.6873	65535	64601.5
825.3692	619.8103	65535	64598.3
825.5138	621.9327	65535	64604.25
825.6584	624.0544	65535	64606.6
825.803	626.1756	65535	64605
825.9477	628.2961	65535	64600.65
826.0923	630.4159	65535	64601.45
826.237	632.5351	65535	64605.2
826.3816	634.6537	65535	64600.15
826.5263	636.7716	65535	64599.25
826.6709	638.8889	65535	64592.1
826.8156	641.0056	65535	64593.35
826.9603	643.1216	65535	64596.35
827.105	645.237	65535	64598.2
827.2497	647.3518	65535	64606.4
827.3944	649.4659	65535	64605.85
827.5391	651.5793	65535	64606.65
827.6838	653.6922	65535	64605.5
827.8285	655.8043	65535	64607.05
827.9733	657.9159	65535	64606.7
828.118	660.0268	65535	64602.35
828.2627	662.137	65535	64599.75
828.4075	664.2466	65535	64596.7
828.5522	666.3556	65535	64596.7
828.697	668.4639	65535	64599.3
828.8418	670.5716	65535	64603.4
828.9865	672.6786	65535	64597.65
829.1313	674.785	65535	64594.2
829.2761	676.8907	65535	64600.95
829.4209	678.9958	65535	64602.7
829.5657	681.1002	65535	64597.4
829.7105	683.204	65535	64586.55
829.8553	685.3072	65535	64592.4
830.0001	687.4097	65535	64593.8
830.1449	689.5115	65535	64594.45
830.2898	691.6127	65535	64597.9
830.4346	693.7132	65535	64598.8
830.5794	695.8131	65535	64581.3
830.7243	697.9123	65535	64593.85
830.8691	700.0109	65535	64591.55
831.014	702.1089	65535	64594.45
831.1588	704.2061	65535	64598.75
831.3037	706.3028	65535	64592.6
831.4486	708.3987	65535	64592.3
831.5935	710.4941	65535	64595.2
831.7383	712.5887	65535	64597.55
831.8832	714.6827	65535	64589.35
832.0281	716.7761	65535	64598.1
832.173	718.8688	65535	64595.5
832.3179	720.9608	65535	64585.05
832.4628	723.0522	65535	64584.45
832.6077	725.1429	65535	64588.1
832.7527	727.233	65535	64594.45
832.8976	729.3224	65535	64593.65
833.0425	731.4112	65535	64587.65
833.1874	733.4993	65535	64587.6
833.3324	735.5867	65535	64590.6
833.4773	737.6735	65535	64590.6
833.6222	739.7596	65535	64591.5
833.7672	741.845	65535	64590.1
833.9122	743.9298	65535	64591.3
834.0571	746.014	65535	64588.85
834.2021	748.0974	65535	64583.8
834.347	750.1802	65535	64584.8
834.492	752.2624	65535	64586.05
834.637	754.3439	65535	64585.7
834.782	756.4247	65535	64576.55
834.9269	758.5048	65535	64587.3
835.0719	760.5843	65535	64587.8
835.2169	762.6631	65535	64587.65
835.3619	764.7413	65535	64590.4
835.5069	766.8188	65535	64582.85
835.6519	768.8956	65535	64585.5
835.7969	770.9718	65535	64588.75
835.9419	773.0473	65535	64587.95
836.0869	775.1221	65535	64590.3
836.232	777.1962	65535	64589.4
836.377	779.2697	65535	64587
836.522	781.3426	65535	64567.95
836.667	783.4147	65535	64584
836.8121	785.4862	65535	64588.2
836.9571	787.557	65535	64586.25
837.1021	789.6271	65535	64582.15
837.2472	791.6966	65535	64588.15
837.3922	793.7654	65535	64584.8
837.5373	795.8335	65535	64585.9
837.6823	797.901	65535	64587.7
837.8274	799.9678	65535	64583.1
837.9724	802.0339	65535	64583.2
838.1175	804.0993	65535	64574.05
838.2626	806.1641	65535	64584.75
838.4076	808.2282	65535	64588.5
838.5527	810.2916	65535	64582.7
838.6978	812.3544	65535	64587.6
838.8428	814.4164	65535	64587.6
838.9879	816.4778	65535	64583.6
839.133	818.5385	65535	64583.75
839.2781	820.5986	65535	64586.5
839.4232	822.658	65535	64582.95
839.5682	824.7166	65535	64583.9
839.7133	826.7747	65535	64585.7
839.8584	828.832	65535	64583.2
840.0035	830.8886	65535	64582.9
840.1486	832.9446	65535	64579.3
840.2937	834.9999	65535	64583
840.4388	837.0545	65535	64580.6
840.5839	839.1085	65535	64583.4
840.729	841.1618	65535	64579.05
840.8741	843.2143	65535	64582.25
841.0192	845.2662	65535	64581.4
841.1643	847.3175	65535	64582.05
841.3095	849.368	65515.55	64562.85
841.4546	851.4179	65535	64583.35
841.5997	853.467	65523.3	64573.15
841.7448	855.5155	65532.75	64581.3
841.8899	857.5633	65508.7	64558.95
842.0351	859.6105	65483.65	64531.4
842.1802	861.6569	65513.65	64559
842.3253	863.7027	65410.5	64453.2
842.4704	865.7478	65461.55	64506.5
842.6156	867.7922	65434.8	64481.65
842.7607	869.8359	65493.05	64537.6
842.9058	871.8789	65378.35	64421.2
843.0509	873.9212	65456.55	64470.25
843.1961	875.9629	65491.5	64538.4
843.3412	878.0039	65449.35	64498
843.4863	880.0441	65414.55	64463.85
843.6315	882.0837	65411.35	64457.2
843.7766	884.1226	65377.1	64423.65
843.9218	886.1609	65319.7	64370.15
844.0669	888.1984	65158.55	64206.8
844.212	890.2352	65355.75	64402.75
844.3572	892.2714	65080.25	64120.35
844.5023	894.3069	65255.15	64301.5
844.6475	896.3416	65053.75	64101.3
844.7926	898.3757	64990.8	64036
844.9377	900.4091	64457.8	63503.35
845.0829	902.4418	65201.15	64243.1
845.228	904.4739	64813.75	63856.55
845.3732	906.5052	64805.5	63848.25
845.5183	908.5358	64538.1	63582.7
845.6635	910.5658	64393.65	63434.85
845.8086	912.595	64364.65	63409.9
845.9538	914.6236	63653.4	62701.95
846.0989	916.6515	64654.35	63699.2
846.2441	918.6786	63678.6	62720.4
846.3892	920.7051	63955.5	62999.8
846.5344	922.7309	63795.65	62841.85
846.6795	924.756	63997.8	63048.35
846.8246	926.7804	63673.85	62721.75
846.9698	928.8041	62936.25	61981.35
847.1149	930.8272	63458.6	62501.85
847.2601	932.8495	63527.25	62573.5
847.4052	934.8711	62939.45	61983.1
847.5504	936.892	62480.95	61525.4
847.6955	938.9123	62704.95	61747.4
847.8407	940.9318	62306.25	61353.2
847.9858	942.9506	62180.65	61227.25
848.131	944.9688	62263.3	61307.6
848.2761	946.9862	61335.45	60382.65
848.4213	949.003	61689.6	60737.55
848.5664	951.019	60877.95	59921.65
848.7115	953.0344	61040.4	60086.3
848.8567	955.0491	60941.45	59987.65
849.0018	957.063	61196	60245.05
849.147	959.0763	61280.45	60320.9
849.2921	961.0888	60716.35	59764.5
849.4373	963.1007	61183.5	60230.9
849.5824	965.1119	61109.35	60162.5
849.7275	967.1223	60639.95	59698.6
849.8727	969.1321	61141.7	60198.3
850.0178	971.1412	60436	59491.7
850.1629	973.1495	60122.35	59171.05
850.3081	975.1572	60474.85	59467.4
850.4532	977.1641	60178.95	59223.1
850.5983	979.1704	60001.55	59044.75
850.7435	981.1759	60024.2	59065.25
850.8886	983.1808	59590.15	58636.05
851.0337	985.1849	59678.25	58716.25
851.1788	987.1884	59868.2	58912.7
851.324	989.1911	60308.95	59349.65
851.4691	991.1932	59176.2	58223.95
851.6142	993.1945	59412.6	58462.95
851.7593	995.1951	59649.45	58696.85
851.9045	997.1951	58963.35	58003.7
852.0496	999.1943	58752	57801
852.1947	1001.1928	58462.3	57508.75
852.3398	1003.1906	58618.1	57666.2
852.4849	1005.1877	57763.65	56811.85
852.63	1007.1841	57465.45	56513.5
852.7751	1009.1798	57423.25	56473.1
852.9202	1011.1748	57192.1	56240.9
853.0653	1013.1691	56922.5	55969.5
853.2104	1015.1627	55688.3	54738.2
853.3555	1017.1556	55768.2	54819.7
853.5006	1019.1477	55858.3	54909.7
853.6457	1021.1392	55201.8	54258.65
853.7908	1023.1299	54540.95	53599.8
853.9359	1025.12	54789.1	53851.7
854.081	1027.1093	54413	53486.75
854.2261	1029.0979	54396.8	53469.25
854.3712	1031.0859	54264.2	53332.5
854.5163	1033.0731	53744.4	52803.95
854.6613	1035.0596	53684.3	52740.1
854.8064	1037.0454	53390.25	52443.45
854.9515	1039.0304	53045.65	52099.75
855.0965	1041.0148	52509.75	51560.15
855.2416	1042.9985	52408.45	51456.25
855.3867	1044.9814	52502.1	51554.2
855.5317	1046.9636	51945.25	50997.5
855.6768	1048.9452	51810	50867.65
855.8219	1050.926	51716.9	50770.3
855.9669	1052.9061	51547.5	50598.05
856.112	1054.8855	51428.95	50476.75
856.257	1056.8642	51169.55	50221.2
856.4021	1058.8421	51055.9	50102.95
856.5471	1060.8194	50916.2	49967.2
856.6921	1062.7959	50773.5	49824.9
856.8372	1064.7717	50712.1	49761.4
856.9822	1066.7469	50565.5	49614.7
857.1272	1068.7213	50479.95	49525.5
857.2723	1070.695	50247.65	49302.95
857.4173	1072.6679	49856.8	48907.45
857.5623	1074.6402	49791.85	48842.1
857.7073	1076.6117	49576.75	48618.75
857.8523	1078.5826	49537.05	48586.9
857.9973	1080.5527	49473.4	48519.8
858.1423	1082.5221	49403.3	48452.95
858.2873	1084.4908	49524.05	48577.75
858.4323	1086.4587	49589.85	48643.2
858.5773	1088.426	49633.15	48684.55
858.7223	1090.3925	49449.9	48496.15
858.8673	1092.3584	49281.1	48334.15
859.0123	1094.3235	48798.7	47850.5
859.1573	1096.2879	48590.4	47642.15
859.3022	1098.2515	48426.5	47478.3
859.4472	1100.2145	48354.15	47408.5
859.5922	1102.1767	48182.9	47234.45
859.7371	1104.1382	48190.9	47241.35
859.8821	1106.099	48246.15	47298.25
860.027	1108.0591	48282.75	47336.15
860.172	1110.0185	48194.25	47244.55
860.3169	1111.9771	48167.55	47219.55
860.4619	1113.9351	47688.3	46740.05
860.6068	1115.8923	47210.6	46261.4
860.7517	1117.8488	46681.65	45731.3
860.8967	1119.8045	46153.35	45206.3
861.0416	1121.7596	46023.7	45076.5
861.1865	1123.7139	45742.8	44797.55
861.3314	1125.6675	45605.35	44662.45
861.4763	1127.6204	45696.35	44748.6
861.6212	1129.5726	45518.45	44568.85
861.7661	1131.524	45435.45	44486.85
861.911	1133.4748	45436.4	44489.5
862.0559	1135.4248	45287.75	44339.3
862.2008	1137.3741	45245.6	44296.65
862.3457	1139.3226	45040.55	44090.6
862.4905	1141.2705	45041.7	44092.6
862.6354	1143.2176	44700.6	43746.9
862.7803	1145.164	44642.3	43692.05
862.9251	1147.1097	44527.65	43578.1
863.07	1149.0546	44411.45	43463.55
863.2148	1150.9989	44296.95	43350.85
863.3597	1152.9424	44078.75	43132.45
863.5045	1154.8852	43768.4	42821.6
863.6493	1156.8272	43454.5	42509.75
863.7942	1158.7686	43388.45	42434.6
863.939	1160.7092	43094.25	42144.05
864.0838	1162.6491	42881.25	41931.2
864.2286	1164.5883	42969.8	42025.55
864.3734	1166.5267	42868.15	41917.8
864.5182	1168.4644	42925.75	41978.8
864.663	1170.4014	43014.2	42064.7
864.8078	1172.3377	43199.25	42252.05
864.9526	1174.2732	43255	42310.3
865.0974	1176.2081	43350	42404.35
865.2421	1178.1421	43398.2	42450.8
865.3869	1180.0755	43455.2	42508.1
865.5317	1182.0082	43233.9	42293.95
865.6764	1183.9401	43104.45	42158.75
865.8212	1185.8713	42754.3	41817.7
865.9659	1187.8017	42393.6	41457.65
866.1106	1189.7315	42039.75	41111.75
866.2554	1191.6605	41592.45	40666.5
866.4001	1193.5888	41231.8	40298.8
866.5448	1195.5163	41020.55	40083.5
866.6895	1197.4432	40835.75	39895.05
866.8342	1199.3693	40653.55	39708.5
866.9789	1201.2947	40390.75	39438.8
867.1236	1203.2193	40161.45	39218
867.2683	1205.1432	40130.7	39188.75
867.413	1207.0664	40081.7	39141.45
867.5576	1208.9889	40042.85	39095.85
867.7023	1210.9106	39936.1	38989.7
867.847	1212.8316	39837.45	38897.8
867.9916	1214.7519	39817.1	38866.25
868.1363	1216.6715	39716.55	38774.75
868.2809	1218.5903	39614.65	38671.8
868.4255	1220.5084	39468.1	38523.7
868.5701	1222.4257	39355.35	38412.45
868.7148	1224.3424	38986.15	38046.5
868.8594	1226.2583	38969.05	38024.55
869.004	1228.1735	39001.5	38060.45
869.1486	1230.0879	38880.6	37937.1
869.2932	1232.0016	38917.45	37976.6
869.4377	1233.9146	38803.85	37859.55
869.5823	1235.8269	38652.65	37708.2
869.7269	1237.7384	38489.8	37547.9
869.8715	1239.6492	38062.1	37123.4
870.016	1241.5592	37906.2	36963.15
870.1606	1243.4686	37667.65	36725.9
870.3051	1245.3772	37528.1	36587.75
870.4496	1247.285	37323.45	36381.65
870.5941	1249.1922	37144.75	36204.55
870.7387	1251.0986	37032.05	36092.85
870.8832	1253.0042	36870.5	35927
871.0277	1254.9092	36860.1	35917.95
871.1722	1256.8134	36846.3	35906.3
871.3167	1258.7169	36983.35	36041.45
871.4611	1260.6196	37015.25	36075.95
871.6056	1262.5216	37111.45	36168.4
871.7501	1264.4229	37157.6	36214.75
871.8945	1266.3234	37180.55	36240.4
872.039	1268.2232	37162.05	36220.95
872.1834	1270.1223	37038.7	36095.95
872.3278	1272.0207	36893.1	35953.2
872.4723	1273.9183	36760.55	35813.3
872.6167	1275.8151	36553.65	35613.8
872.7611	1277.7113	36390.8	35451
872.9055	1279.6067	36094.1	35155.35
873.0499	1281.5014	35885.55	34943.2
873.1943	1283.3953	35676.8	34735.65
873.3386	1285.2885	35442.35	34501.75
873.483	1287.181	35313.6	34377.25
873.6274	1289.0727	35271	34335.05
873.7717	1290.9637	35232.1	34296.45
873.9161	1292.854	35297.05	34359
874.0604	1294.7435	35356.5	34417.1
874.2047	1296.6323	35498.05	34560.35
874.349	1298.5204	35660.35	34718.3
874.4933	1300.4077	35848.35	34905.65
874.6376	1302.2943	35935.1	34997.85
874.7819	1304.1802	36010.4	35071.45
874.9262	1306.0653	35832.7	34893.65
875.0705	1307.9497	35643.4	34704.5
875.2147	1309.8333	35517.95	34581.65
875.359	1311.7162	35403.05	34464.2
875.5032	1313.5984	35457.7	34516.35
875.6475	1315.4798	35539.2	34582.55
875.7917	1317.3605	35580.15	34623.25
875.9359	1319.2405	35726.25	34786.05
876.0801	1321.1197	35669.7	34728.15
876.2243	1322.9982	35507.7	34568
876.3685	1324.876	35523.05	34585.45
876.5127	1326.753	35376.9	34437.8
876.6569	1328.6293	35388.5	34445.9
876.801	1330.5048	35350.6	34409.5
876.9452	1332.3796	35262.1	34322.25
877.0893	1334.2537	35184.6	34224.25
877.2335	1336.127	35009.7	34073.05
877.3776	1337.9996	34909.6	33973.4
877.5217	1339.8714	34769.25	33829.15
877.6658	1341.7426	34629.6	33644.9
877.8099	1343.6129	34479.25	33538.35
877.954	1345.4826	34303.4	33363.25
878.0981	1347.3515	34275.6	33331.9
878.2422	1349.2196	34121.5	33179.55
878.3862	1351.087	34052.15	33113.15
878.5303	1352.9537	34061.05	33121.2
878.6743	1354.8197	34122.65	33185.6
878.8184	1356.6849	34250.2	33309.5
878.9624	1358.5493	34247.75	33309.8
879.1064	1360.4131	34188.05	33250.95
879.2504	1362.276	33996.45	33057.4
879.3944	1364.1383	33677.65	32740.25
879.5384	1365.9998	33389.85	32445
879.6823	1367.8606	32976.05	32038.7
879.8263	1369.7206	32690.75	31753.95
879.9702	1371.5799	32452.75	31515.2
880.1142	1373.4384	32208	31270.2
880.2581	1375.2962	32092.25	31153.15
880.402	1377.1533	31687.25	30753.2
880.5459	1379.0096	31228.8	30292.95
880.6898	1380.8652	30916.6	29985.2
880.8337	1382.7201	30659.45	29724.25
880.9776	1384.5742	30325	29389.3
881.1215	1386.4275	30071.65	29134.5
881.2653	1388.2802	29824.8	28890.85
881.4092	1390.132	29622.1	28680.25
881.553	1391.9832	29551.95	28612.15
881.6968	1393.8336	29321.45	28383.3
881.8406	1395.6832	29257	28319.25
881.9844	1397.5322	29087.65	28152.7
882.1282	1399.3803	28998.65	28060.15
882.272	1401.2278	28820.45	27884.7
882.4158	1403.0745	28709.45	27775.85
882.5595	1404.9204	28574.9	27639.55
882.7033	1406.7656	28534.6	27601.45
882.847	1408.6101	28475.5	27538.75
882.9908	1410.4538	28351.7	27416.85
883.1345	1412.2968	28337.1	27401.35
883.2782	1414.139	28214.6	27276.2
883.4219	1415.9805	28217.8	27284.35
883.5656	1417.8213	28208.85	27255.4
883.7092	1419.6613	28244.45	27311.45
883.8529	1421.5006	28396.2	27460.05
883.9965	1423.3391	28589.05	27656.6
884.1402	1425.1769	28867.3	27931.3
884.2838	1427.0139	29312.9	28377.2
884.4274	1428.8502	29860.8	28920.75
884.571	1430.6858	30378.1	29444.45
884.7146	1432.5206	30692.75	29758.05
884.8582	1434.3547	30946.8	30010.05
885.0018	1436.188	30929.55	29997.1
885.1453	1438.0206	30825.2	29888.85
885.2889	1439.8524	30518.25	29584.05
885.4324	1441.6835	30422.55	29485.5
885.5759	1443.5139	30253.25	29318.4
885.7194	1445.3435	30058.9	29121.6
885.8629	1447.1724	30047.75	29117.45
886.0064	1449.0005	29887.25	28955.8
886.1499	1450.8279	29740.3	28809.15
886.2933	1452.6545	29633.2	28700.6
886.4368	1454.4804	29589.1	28658.9
886.5802	1456.3056	29566.05	28628.55
886.7237	1458.13	29399.6	28466.2
886.8671	1459.9536	29171.35	28239.7
887.0105	1461.7766	28751.45	27821.05
887.1539	1463.5987	28238.95	27302.6
887.2972	1465.4202	27803.05	26870.35
887.4406	1467.2409	27361.85	26430.25
887.584	1469.0608	27079.25	26147.3
887.7273	1470.88	26761.65	25832.55
887.8706	1472.6984	26514.45	25585.95
888.0139	1474.5161	26190.75	25256.25
888.1572	1476.3331	25954.15	25022.65
888.3005	1478.1493	25843.65	24912.3
888.4438	1479.9648	25729.7	24798.25
888.5871	1481.7795	25531.2	24599.5
888.7303	1483.5935	25429.35	24497.25
888.8736	1485.4067	25335.85	24406.6
889.0168	1487.2192	25255.8	24322.25
889.16	1489.031	25208.45	24275.1
889.3032	1490.842	25079.55	24149.9
889.4464	1492.6522	25017.95	24087.1
889.5896	1494.4618	24884.95	23953.8
889.7327	1496.2705	24850.25	23919.45
889.8759	1498.0785	24784.55	23851.55
890.019	1499.8858	24711.4	23780
890.1622	1501.6924	24630.3	23700.8
890.3053	1503.4981	24619.7	23689.55
890.4484	1505.3032	24516.25	23583.5
890.5914	1507.1075	24413.35	23479.55
890.7345	1508.911	24329.1	23398.85
890.8776	1510.7138	24246.25	23316.3
891.0206	1512.5159	24173.9	23244.35
891.1637	1514.3172	24010.4	23081.3
891.3067	1516.1178	23923.8	22997.4
891.4497	1517.9176	23880.75	22948.35
891.5927	1519.7166	23756	22825.8
891.7357	1521.515	23717.7	22780.5
891.8786	1523.3126	23647.15	22719.1
892.0216	1525.1094	23532.2	22602.55
892.1645	1526.9055	23443.65	22514.85
892.3074	1528.7008	23394.55	22466.85
892.4503	1530.4954	23238.4	22305.6
892.5932	1532.2893	23204.45	22279
892.7361	1534.0824	23030.9	22100.7
892.879	1535.8747	23041.3	22118.05
893.0218	1537.6663	22942.95	22015.95
893.1647	1539.4572	22853.6	21928.5
893.3075	1541.2473	22801.35	21877.05
893.4503	1543.0367	22698.2	21773.2
893.5931	1544.8253	22629.3	21696.8
893.7359	1546.6132	22581.95	21651.7
893.8787	1548.4003	22506.65	21575.8
894.0214	1550.1867	22461.45	21532.7
894.1642	1551.9723	22427.5	21500.35
894.3069	1553.7572	22395.8	21469.05
894.4496	1555.5414	22333.2	21410.5
894.5923	1557.3247	22295.55	21374.95
894.735	1559.1074	22243.45	21324.25
894.8777	1560.8893	22248.25	21330.9
895.0204	1562.6705	22234.35	21315.55
895.163	1564.4509	22297.95	21379.85
895.3056	1566.2305	22248.1	21334.55
895.4482	1568.0094	22358.15	21443
895.5908	1569.7876	22394.15	21477.4
895.7334	1571.565	22386.55	21463.55
895.876	1573.3417	22453.95	21534.65
896.0186	1575.1176	22398.95	21480.55
896.1611	1576.8928	22311.95	21398.95
896.3036	1578.6672	22145.3	21235.2
896.4461	1580.4409	22008.5	21098.15
896.5886	1582.2138	21805.15	20889.95
896.7311	1583.986	21615.5	20700.75
896.8736	1585.7575	21493.7	20578.8
897.0161	1587.5282	21334.8	20421.95
897.1585	1589.2981	21240.05	20330.05
897.3009	1591.0673	21058.5	20145.7
897.4433	1592.8358	21052.35	20143.05
897.5857	1594.6035	20994.65	20077.65
897.7281	1596.3704	20902.05	19985.75
897.8705	1598.1366	20855.4	19942.05
898.0128	1599.9021	20821.7	19910.45
898.1551	1601.6668	20795.8	19880.8
898.2975	1603.4308	20790.4	19873.85
898.4398	1605.194	20801.75	19883.7
898.5821	1606.9564	20787	19878.55
898.7243	1608.7182	20852.45	19945.7
898.8666	1610.4791	20919.7	20017.6
899.0088	1612.2394	21011.25	20109.65
899.1511	1613.9988	21106.65	20202.75
899.2933	1615.7576	21336.55	20427.65
899.4355	1617.5156	21550.2	20631.2
899.5776	1619.2728	21783.85	20868.7
899.7198	1621.0293	21888.65	20971.3
899.862	1622.785	21918.35	21007.6
900.0041	1624.54	21777.7	20870.8
900.1462	1626.2942	21598.25	20691.85
900.2883	1628.0477	21262.65	20351.65
900.4304	1629.8005	20969.2	20059.35
900.5725	1631.5525	20660.4	19753.05
900.7145	1633.3037	20412.65	19507.8
900.8566	1635.0542	20217.3	19310.8
900.9986	1636.804	20009.9	19101.05
901.1406	1638.553	19921.1	18968.95
901.2826	1640.3013	19793.15	18886.65
901.4245	1642.0488	19667.05	18756.05
901.5665	1643.7955	19629.5	18723.55
901.7085	1645.5416	19572.05	18666.3
901.8504	1647.2868	19599.1	18692.1
901.9923	1649.0313	19569.1	18660.7
902.1342	1650.7751	19676.5	18767.15
902.2761	1652.5181	19790.7	18886.3
902.4179	1654.2604	19924.65	19019.9
902.5598	1656.0019	20217.55	19312.65
902.7016	1657.7427	20591.3	19684
902.8434	1659.4828	20896.15	19990.05
902.9852	1661.222	21078.95	20170.1
903.127	1662.9606	21125.05	20218.35
903.2687	1664.6984	20954.6	20046.55
903.4105	1666.4354	20596.5	19686.1
903.5522	1668.1717	20126.85	19216.15
903.6939	1669.9072	19585.8	18674.7
903.8356	1671.642	19241.5	18327.5
903.9773	1673.3761	18887.75	17980.7
904.119	1675.1094	18591.3	17682.05
904.2606	1676.8419	18355.15	17449.2
904.4022	1678.5737	18179.9	17272.25
904.5439	1680.3048	18035	17126.05
904.6855	1682.0351	17873.95	16967.95
904.827	1683.7646	17753.35	16841.95
904.9686	1685.4934	17668.7	16760.05
905.1101	1687.2215	17580.55	16675.1
905.2517	1688.9488	17457.85	16553.9
905.3932	1690.6754	17376.85	16472.15
905.5347	1692.4012	17338.9	16430.85
905.6761	1694.1263	17279.75	16371.9
905.8176	1695.8506	17192.15	16285.3
905.9591	1697.5742	17122.5	16215.6
906.1005	1699.297	17054.35	16151.75
906.2419	1701.0191	16950.55	16050.15
906.3833	1702.7404	16909.2	16007.5
906.5246	1704.461	16765.6	15858.7
906.666	1706.1808	16700.9	15795.25
906.8073	1707.8999	16679.65	15776.4
906.9487	1709.6182	16636.8	15737.45
907.09	1711.3358	16545.8	15645.1
907.2313	1713.0527	16479.5	15583.3
907.3725	1714.7688	16410.95	15505.4
907.5138	1716.4841	16324.15	15421.45
907.655	1718.1987	16313.65	15408.05
907.7962	1719.9126	16268.3	15366.05
907.9374	1721.6257	16170.05	15268.95
908.0786	1723.338	16182.9	15285.25
908.2198	1725.0496	16059.95	15158.05
908.3609	1726.7605	16029.35	15127.65
908.502	1728.4706	15983.4	15081.2
908.6431	1730.18	15861.9	14960.3
908.7842	1731.8886	15847.65	14949
908.9253	1733.5964	15804.15	14885.65
909.0664	1735.3036	15745.25	14844.3
909.2074	1737.0099	15711.55	14814.25
909.3484	1738.7156	15679.2	14780.65
909.4894	1740.4204	15569.25	14666.15
909.6304	1742.1246	15538.05	14637.75
909.7714	1743.8279	15523.45	14623.2
909.9123	1745.5306	15494.55	14592.8
910.0532	1747.2325	15460	14562.45
910.1941	1748.9336	15397.55	14499.1
910.335	1750.634	15350.5	14448.4
910.4759	1752.3336	15288.45	14392.2
910.6168	1754.0325	15268.15	14372.55
910.7576	1755.7307	15225.2	14329.8
910.8984	1757.4281	15221.8	14321.05
911.0392	1759.1247	15194.25	14284.75
911.18	1760.8206	15144.15	14239.45
911.3208	1762.5158	15106.5	14202.2
911.4615	1764.2102	15032	14133.05
911.6022	1765.9039	14991.15	14093.05
911.7429	1767.5968	14966.3	14072.3
911.8836	1769.289	14903.85	14007.65
912.0243	1770.9804	14864.15	13962.55
912.1649	1772.6711	14821.3	13918.85
912.3056	1774.361	14825.95	13924.4
912.4462	1776.0502	14759.05	13859.35
912.5868	1777.7386	14712.7	13809
912.7274	1779.4263	14671.8	13772.45
912.8679	1781.1132	14644.2	13747.85
913.0084	1782.7994	14592.15	13697.55
913.149	1784.4849	14574.95	13683.25
913.2895	1786.1696	14535.05	13618.95
913.4299	1787.8535	14490.2	13594.95
913.5704	1789.5367	14448	13556.15
913.7108	1791.2192	14426.45	13532.55
913.8513	1792.9009	14365.75	13441.95
913.9917	1794.5818	14347.1	13446
914.132	1796.2621	14291.1	13392.95
914.2724	1797.9415	14261.95	13362.8
914.4128	1799.6202	14222.15	13325.8
914.5531	1801.2982	14178.15	13281.1
914.6934	1802.9755	14147.5	13247.8
914.8337	1804.6519	14145.45	13248.95
914.9739	1806.3277	14052.35	13159.6
915.1142	1808.0027	14023.5	13132
915.2544	1809.6769	13973.7	13080.35
915.3946	1811.3504	13930.75	13035.25
915.5348	1813.0231	13924.4	13030.55
915.675	1814.6951	13865.6	12971.25
915.8151	1816.3664	13905.6	13007.15
915.9553	1818.0369	13868.15	12971.4
916.0954	1819.7067	13796.8	12902.3
916.2355	1821.3757	13782	12883.3
916.3755	1823.044	13725.6	12829.05
916.5156	1824.7115	13675.2	12778.9
916.6556	1826.3783	13639.85	12742.7
916.7956	1828.0443	13595.35	12701.3
916.9356	1829.7096	13545.7	12648.05
917.0756	1831.3741	13577.7	12677.85
917.2155	1833.0379	13497.95	12603.25
917.3555	1834.701	13481.15	12585.6
917.4954	1836.3633	13442.05	12549
917.6353	1838.0248	13391.05	12496.5
917.7751	1839.6856	13395.7	12499.7
917.915	1841.3457	13349.7	12454.05
918.0548	1843.005	13333.9	12437.55
918.1946	1844.6636	13296.3	12402.6
918.3344	1846.3214	13272.55	12377.6
918.4742	1847.9785	13232.6	12338.15
918.6139	1849.6349	13183.85	12286.55
918.7537	1851.2904	13181.1	12274.7
918.8934	1852.9453	13118.2	12220.6
919.0331	1854.5994	13096.3	12196.85
919.1727	1856.2528	13112.55	12209.5
919.3124	1857.9054	13070.9	12175.45
919.452	1859.5572	13032.25	12138.3
919.5916	1861.2083	13021.35	12124.5
919.7312	1862.8587	13030.9	12133.65
919.8708	1864.5084	12991.4	12093.8
920.0103	1866.1572	12934.95	12035.45
920.1498	1867.8054	12861.7	11962.3
920.2893	1869.4528	12841.95	11942.35
920.4288	1871.0994	12833.95	11936.95
920.5683	1872.7453	12788.95	11890.4
920.7077	1874.3905	12767.65	11853.95
920.8471	1876.0349	12727.05	11830.5
920.9865	1877.6786	12708.75	11810.5
921.1259	1879.3215	12657.9	11763.1
921.2653	1880.9637	12648.85	11751.15
921.4046	1882.6051	12587.2	11689.7
921.5439	1884.2458	12585	11687.3
921.6832	1885.8858	12520.05	11623.2
921.8225	1887.525	12506.25	11608.3
921.9617	1889.1634	12447	11548.8
922.101	1890.8011	12443.25	11547.9
922.2402	1892.4381	12380.9	11484.8
922.3794	1894.0743	12393.65	11496.5
922.5185	1895.7098	12354.25	11457.15
922.6577	1897.3446	12317.5	11420.05
922.7968	1898.9786	12297.9	11395.1
922.9359	1900.6118	12264.2	11367.85
923.075	1902.2443	12181.2	11283.35
923.214	1903.8761	12166.5	11270.15
923.3531	1905.5071	12088.1	11189.9
923.4921	1907.1374	12069.85	11175
923.6311	1908.7669	12042.1	11147.9
923.77	1910.3957	12003.15	11108.95
923.909	1912.0237	11950.1	11054.6
924.0479	1913.651	11916.05	11019.05
924.1868	1915.2776	11874.1	10980
924.3257	1916.9034	11835.95	10943.5
924.4646	1918.5285	11785.95	10893.1
924.6034	1920.1528	11748.25	10852.65
924.7422	1921.7764	11725.7	10830.35
924.881	1923.3992	11687	10792.35
925.0198	1925.0213	11609.65	10715.6
925.1586	1926.6427	11598.85	10705.25
925.2973	1928.2633	11632.55	10667.5
925.436	1929.8832	11539.1	10640.85
925.5747	1931.5023	11481.95	10587.5
925.7134	1933.1207	11449.2	10555.15
925.852	1934.7383	11439.75	10543.45
925.9906	1936.3552	11394.7	10500.6
926.1292	1937.9714	11350.75	10456.45
926.2678	1939.5868	11312.7	10414.7
926.4064	1941.2015	11216.4	10319.35
926.5449	1942.8154	11209.75	10313.85
926.6834	1944.4286	11166.4	10265
926.8219	1946.041	11139.75	10221.25
926.9604	1947.6528	11083.95	10186
927.0988	1949.2637	11068.7	10176.5
927.2372	1950.8739	10991.45	10096.85
927.3756	1952.4834	10986.5	10090.95
927.514	1954.0921	10977.95	10084.25
927.6523	1955.7001	10911.6	10014.15
927.7907	1957.3074	10884.6	9993.2
927.929	1958.9139	10803.7	9913.6
928.0673	1960.5197	10786.65	9893.2
928.2055	1962.1247	10739.5	9848.5
928.3438	1963.729	10697.75	9806.25
928.482	1965.3325	10689.3	9774.25
928.6202	1966.9353	10619.45	9730.7
928.7584	1968.5374	10614.2	9721.8
928.8965	1970.1387	10562.85	9670.2
929.0346	1971.7393	10526.75	9632.65
929.1727	1973.3392	10486.1	9595.35
929.3108	1974.9383	10449.5	9560
929.4489	1976.5366	10389.9	9501.4
929.5869	1978.1342	10408.5	9518
929.7249	1979.7311	10376.6	9487.5
929.8629	1981.3273	10321.6	9431.9
930.0009	1982.9227	10313.75	9422.2
930.1388	1984.5173	10261.65	9372
930.2767	1986.1112	10240.7	9351.3
930.4146	1987.7044	10206.05	9316.45
930.5525	1989.2968	10179.55	9290.55
930.6904	1990.8885	10129.05	9238.2
930.8282	1992.4795	10134.85	9244.5
930.966	1994.0697	10105.75	9220.1
931.1038	1995.6592	10049.65	9161.55
931.2415	1997.2479	10019.65	9129.75
931.3793	1998.8359	9993	9105.65
931.517	2000.4232	9960.2	9074.85
931.6547	2002.0097	9928.15	9042.65
931.7923	2003.5955	9880.15	8992.55
931.93	2005.1805	9870.1	8981.55
932.0676	2006.7648	9827.7	8940.5
932.2052	2008.3484	9799.4	8912
932.3427	2009.9312	9821.15	8934.65
932.4803	2011.5133	9772	8887.15
932.6178	2013.0946	9722.75	8838.2
932.7553	2014.6752	9715	8828.35
932.8928	2016.2551	9697.7	8810.75
933.0302	2017.8342	9662.2	8776.75
933.1676	2019.4126	9595.6	8711.15
933.305	2020.9902	9570.25	8685.4
933.4424	2022.5672	9558.85	8674.65
933.5798	2024.1433	9544.15	8653.45
933.7171	2025.7188	9483.25	8601.7
933.8544	2027.2935	9456.35	8572.9
933.9917	2028.8674	9452.5	8567.9
934.129	2030.4406	9413.9	8529.8
934.2662	2032.0131	9363.9	8482.45
934.4034	2033.5849	9344.15	8456.3
934.5406	2035.1559	9317.8	8433.75
934.6778	2036.7261	9318.75	8432
934.8149	2038.2957	9298.1	8408.95
934.952	2039.8645	9262.15	8374.65
935.0891	2041.4325	9238.15	8347
935.2262	2042.9998	9206.15	8319.05
935.3632	2044.5664	9189.1	8300.35
935.5002	2046.1323	9168	8283.35
935.6372	2047.6974	9120.9	8237.5
935.7742	2049.2617	9092.05	8207.1
935.9111	2050.8254	9103.6	8214.85
936.048	2052.3883	9071.95	8183.25
936.1849	2053.9504	9053.05	8164.1
936.3218	2055.5118	9027.3	8137.75
936.4586	2057.0725	8989.2	8098.75
936.5955	2058.6325	8967.6	8083.15
936.7323	2060.1917	8938.65	8054.65
936.869	2061.7502	8915.4	8029.65
937.0058	2063.3079	8887.45	8003.65
937.1425	2064.8649	8863	7975.95
937.2792	2066.4212	8820.85	7934.4
937.4159	2067.9767	8798.95	7910.55
937.5525	2069.5315	8777.05	7890.25
937.6891	2071.0856	8746.65	7858.8
937.8257	2072.6389	8684.6	7798.85
937.9623	2074.1915	8662.3	7779.8
938.0989	2075.7433	8611.15	7723.3
938.2354	2077.2945	8617.15	7730.9
938.3719	2078.8448	8586.4	7699.85
938.5084	2080.3945	8559.9	7671.85
938.6448	2081.9434	8577.75	7689.55
938.7812	2083.4916	8516.05	7627.85
938.9176	2085.039	8503.05	7611.8
939.054	2086.5857	8465.7	7572.05
939.1903	2088.1317	8440.1	7546.7
939.3267	2089.677	8438.9	7545.25
939.463	2091.2215	8411.6	7518.8
939.5992	2092.7652	8374.2	7480.3
939.7355	2094.3083	8341.55	7447.9
939.8717	2095.8506	8340.35	7449.8
940.0079	2097.3921	8320.35	7433.3
940.1441	2098.933	8280.6	7393.35
940.2802	2100.4731	8265	7375.55
940.4163	2102.0124	8269.2	7372.5
940.5524	2103.5511	8238	7347.5
940.6885	2105.089	8251.55	7360.9
940.8245	2106.6261	8204.55	7315.25
940.9606	2108.1626	8175.15	7285.95
941.0965	2109.6983	8188	7270.85
941.2325	2111.2332	8147.7	7257.2
941.3684	2112.7675	8106.7	7215.05
941.5044	2114.301	8103.3	7210.8
941.6403	2115.8337	8105.55	7215.75
941.7761	2117.3657	8057.55	7168.55
941.912	2118.897	8066.45	7176.2
942.0478	2120.4276	8039.65	7145.25
942.1835	2121.9575	8006.3	7114.3
942.3193	2123.4866	8003	7100.15
942.455	2125.0149	7957.45	7061.85
942.5907	2126.5426	7927.1	7039.2
942.7264	2128.0695	7908.65	7018
942.8621	2129.5956	7888.7	7003.25
942.9977	2131.1211	7859.65	6968.4
943.1333	2132.6458	7844.3	6954.55
943.2689	2134.1698	7833.5	6942.85
943.4044	2135.693	7804.5	6910.45
943.54	2137.2155	7784.8	6889.85
943.6755	2138.7373	7778.05	6888.15
943.8109	2140.2584	7740.45	6852.85
943.9464	2141.7787	7712.6	6820.3
944.0818	2143.2983	7676.3	6791.4
944.2172	2144.8171	7633.35	6749.65
944.3526	2146.3353	7627.3	6740.65
944.4879	2147.8527	7591.4	6703.7
944.6232	2149.3693	7602.25	6712.75
944.7585	2150.8853	7572.8	6682.1
944.8938	2152.4005	7521.45	6629.25
945.029	2153.9149	7537.2	6644.95
945.1642	2155.4287	7601.8	6594.45
945.2994	2156.9417	7524.9	6631.95
945.4346	2158.454	7483.9	6593.55
945.5697	2159.9655	7454.6	6567.85
945.7048	2161.4764	7442.35	6555.15
945.8399	2162.9865	7410.2	6523.1
945.9749	2164.4958	7409	6520.6
946.1099	2166.0045	7373.15	6482.6
946.2449	2167.5124	7350.85	6461
946.3799	2169.0195	7349.65	6461.9
946.5148	2170.526	7334.05	6444.8
946.6498	2172.0317	7310.65	6421.55
946.7846	2173.5367	7273.95	6383.85
946.9195	2175.0409	7284.5	6394.15
947.0543	2176.5445	7245.95	6357.15
947.1891	2178.0473	7227.35	6336.35
947.3239	2179.5494	7186.8	6291.65
947.4587	2181.0507	7178.05	6287.25
947.5934	2182.5513	7150.75	6260.35
947.7281	2184.0512	7124.05	6231.85
947.8628	2185.5504	7113.65	6223.65
947.9974	2187.0488	7079.55	6190.1
948.132	2188.5465	7052.05	6165.3
948.2666	2190.0435	7039	6151.3
948.4012	2191.5397	7013.5	6123.45
948.5357	2193.0353	6983.6	6093.15
948.6702	2194.5301	6972.4	6080.45
948.8047	2196.0241	6971.5	6076.9
948.9392	2197.5175	6929.6	6035.5
949.0736	2199.0101	6874	5978.55
949.208	2200.502	6862.25	5972.55
949.3424	2201.9931	6865.75	5977.7
949.4767	2203.4835	6815.1	5927.45
949.611	2204.9733	6802.6	5909.05
949.7453	2206.4622	6804.3	5918.9
949.8796	2207.9505	6756.95	5868.85
950.0138	2209.438	6718.8	5835.7
950.148	2210.9248	6724.6	5835.9
950.2822	2212.4109	6709.25	5819.8
950.4164	2213.8962	6674.95	5780.85
950.5505	2215.3809	6676.2	5782.35
950.6846	2216.8648	6664.4	5770.4
950.8186	2218.3479	6636.05	5739
950.9527	2219.8304	6627.35	5729.6
951.0867	2221.3121	6583.55	5686.8
951.2207	2222.7931	6570.3	5675.85
951.3546	2224.2733	6536.1	5644.3
951.4886	2225.7529	6518.75	5627.6
951.6225	2227.2317	6494.7	5601.75
951.7563	2228.7098	6464.8	5577.55
951.8902	2230.1872	6446.6	5558.85
952.024	2231.6638	6455.8	5567.25
952.1578	2233.1397	6417.2	5528.9
952.2916	2234.6149	6404.45	5516.65
952.4253	2236.0894	6386.65	5495.6
952.559	2237.5632	6364.15	5473.6
952.6927	2239.0362	6347.2	5457.2
952.8263	2240.5085	6320.7	5431.75
952.9599	2241.9801	6312.95	5423.15
953.0935	2243.4509	6299.75	5408.6
953.2271	2244.921	6278.6	5385.5
953.3606	2246.3904	6259.55	5363.7
953.4941	2247.8591	6211.75	5319.5
953.6276	2249.3271	6216	5324.1
953.7611	2250.7943	6177.1	5286
953.8945	2252.2608	6168.4	5279.1
954.0279	2253.7266	6142.3	5251.8
954.1612	2255.1917	6116	5225.2
954.2946	2256.656	6094.45	5204.3
954.4279	2258.1197	6084.65	5197.15
954.5612	2259.5826	6066.05	5175.35
954.6944	2261.0447	6070.9	5178.8
954.8276	2262.5062	6044.3	5150.5
954.9608	2263.9669	6039.15	5145.4
955.094	2265.4269	6025.1	5133.95
955.2271	2266.8862	6003.65	5115.15
955.3602	2268.3448	6007.85	5119.55
955.4933	2269.8026	5989.05	5100.5
955.6264	2271.2598	5954.55	5065.3
955.7594	2272.7162	5937.7	5048.55
955.8924	2274.1719	5914.75	5023.05
956.0253	2275.6268	5907.75	5013.95
956.1583	2277.0811	5904.5	5010.1
956.2912	2278.5346	5890.55	5000
956.4241	2279.9874	5871.4	4983.85
956.5569	2281.4395	5852.8	4965.35
956.6897	2282.8908	5823.45	4931.1
956.8225	2284.3414	5824.7	4933.05
956.9553	2285.7914	5798.3	4907.45
957.088	2287.2406	5770.95	4876.4
957.2207	2288.689	5788.7	4893.6
957.3534	2290.1368	5767	4873.65
957.486	2291.5838	5744.8	4846.25
957.6186	2293.0302	5727.65	4832.05
957.7512	2294.4758	5724.35	4830.55
957.8838	2295.9206	5686.4	4791.75
958.0163	2297.3648	5665.65	4777.1
958.1488	2298.8082	5654.85	4764.2
958.2813	2300.251	5647.3	4757.65
958.4137	2301.693	5620.95	4725.05
958.5461	2303.1343	5622.9	4731.7
958.6785	2304.5748	5597.15	4704.95
958.8108	2306.0147	5586.15	4694.9
958.9432	2307.4538	5564.3	4672.4
959.0754	2308.8922	5559.6	4673.75
959.2077	2310.3299	5543.55	4655.95
959.3399	2311.7669	5523.7	4634.25
959.4721	2313.2031	5503.9	4613.1
959.6043	2314.6387	5501.75	4612.05
959.7365	2316.0735	5452.9	4561.5
959.8686	2317.5076	5443.05	4549.95
960.0006	2318.941	5424.95	4535.45
960.1327	2320.3737	5424.35	4532.1
960.2647	2321.8056	5406.45	4510.6
960.3967	2323.2369	5403.75	4511.05
960.5287	2324.6674	5387.35	4493.5
960.6606	2326.0972	5349.7	4460.4
960.7925	2327.5263	5345.9	4455.9
960.9244	2328.9547	5351.65	4459.2
961.0562	2330.3823	5328.3	4431.25
961.1881	2331.8092	5324.4	4427.8
961.3198	2333.2355	5284.45	4392.45
961.4516	2334.661	5280.15	4388.2
961.5833	2336.0858	5268.55	4375.2
961.715	2337.5098	5253.8	4361.75
961.8467	2338.9332	5228.75	4336.55
961.9783	2340.3558	5236.65	4342.65
962.1099	2341.7778	5205.2	4315.95
962.2415	2343.199	5206.6	4313.3
962.373	2344.6195	5170.5	4280.35
962.5045	2346.0393	5172.8	4282.8
962.636	2347.4583	5159.8	4267.3
962.7675	2348.8767	5130.35	4238.9
962.8989	2350.2943	5135.4	4242.7
963.0303	2351.7113	5135.25	4241.35
963.1617	2353.1275	5111.75	4216.2
963.293	2354.543	5098.45	4195.15
963.4243	2355.9578	5065.25	4172
963.5556	2357.3718	5049.15	4158.5
963.6868	2358.7852	5025.8	4132.95
963.818	2360.1978	5015.1	4126.2
963.9492	2361.6098	5008	4117.5
964.0803	2363.021	4990.05	4095.25
964.2114	2364.4315	4973.55	4083.75
964.3425	2365.8413	4962.15	4066.7
964.4736	2367.2504	4938.65	4050.3
964.6046	2368.6587	4926.75	4038.8
964.7356	2370.0664	4914.55	4024.5
964.8666	2371.4733	4894.25	4003.45
964.9975	2372.8795	4872.2	3982.45
965.1284	2374.285	4857.7	3965.95
965.2593	2375.6899	4840.7	3949.95
965.3901	2377.0939	4825.2	3937.15
965.5209	2378.4973	4793.4	3904.7
965.6517	2379.9	4794.4	3903.6
965.7825	2381.3019	4791.8	3901.85
965.9132	2382.7032	4755.45	3866.6
966.0439	2384.1037	4747.4	3859.45
966.1745	2385.5035	4739.15	3851.1
966.3051	2386.9027	4712.05	3826.15
966.4357	2388.3011	4706.5	3815.35
966.5663	2389.6987	4689.5	3800.8
966.6968	2391.0957	4676.5	3789.5
966.8273	2392.492	4649.25	3759.65
966.9578	2393.8876	4629.05	3741.1
967.0882	2395.2824	4614.6	3725.1
967.2186	2396.6765	4602.8	3713.25
967.349	2398.07	4594.45	3707.1
967.4793	2399.4627	4581.25	3691.4
967.6097	2400.8547	4562.95	3673.1
967.7399	2402.246	4562.2	3666.25
967.8702	2403.6366	4535.8	3647.55
968.0004	2405.0265	4508.6	3618.75
968.1306	2406.4156	4515.15	3621.7
968.2607	2407.8041	4489.05	3596.2
968.3909	2409.1918	4478.1	3586.35
968.521	2410.5789	4476.5	3585.5
968.651	2411.9652	4463	3570.8
968.781	2413.3508	4425.45	3534.3
968.911	2414.7358	4426.7	3536.1
969.041	2416.12	4415.75	3526.05
969.1709	2417.5035	4399.25	3510.1
969.3008	2418.8863	4373.4	3485.05
969.4307	2420.2684	4382.05	3491.05
969.5606	2421.6497	4340.15	3448.15
969.6904	2423.0304	4326.5	3436.55
969.8201	2424.4104	4327.95	3437.15
969.9499	2425.7896	4309.15	3418.65
970.0796	2427.1682	4293.4	3403.3
970.2093	2428.546	4288.7	3398.9
970.3389	2429.9232	4287.5	3395.95
970.4685	2431.2996	4277.35	3387.25
970.5981	2432.6753	4268.35	3376.7
970.7277	2434.0503	4248.95	3356.55
970.8572	2435.4246	4241.65	3351.35
970.9867	2436.7982	4227.15	3334.45
971.1161	2438.1711	4198.1	3306.7
971.2456	2439.5433	4193.2	3301.5
971.375	2440.9148	4185.7	3287.75
971.5043	2442.2856	4165.7	3276.55
971.6336	2443.6557	4161	3271.45
971.7629	2445.025	4151.65	3262.5
971.8922	2446.3937	4146.95	3256.75
972.0214	2447.7617	4126	3234.4
972.1506	2449.1289	4121.5	3230.45
972.2798	2450.4955	4108.25	3215.85
972.4089	2451.8613	4098.8	3210.9
972.538	2453.2265	4115.45	3226.35
972.6671	2454.5909	4099.55	3207.95
972.7961	2455.9546	4071	3179.9
972.9251	2457.3177	4065.1	3176.1
973.0541	2458.68	4047.15	3157.5
973.1831	2460.0416	4052.4	3161.6
973.312	2461.4025	4037.75	3146.3
973.4408	2462.7627	4040.35	3140.65
973.5697	2464.1222	4017.4	3130.55
973.6985	2465.4811	3999	3109.35
973.8273	2466.8392	3990.35	3099.45
973.956	2468.1966	3995.25	3103.05
974.0847	2469.5533	3991	3097
974.2134	2470.9093	3965.55	3074.15
974.3421	2472.2645	3956.2	3064.7
974.4707	2473.6191	3958.35	3071.7
974.5993	2474.973	3934.1	3044.05
974.7278	2476.3262	3919.75	3029.15
974.8563	2477.6787	3911.8	3021.3
974.9848	2479.0305	3903.45	3013.65
975.1132	2480.3816	3877.65	2989.6
975.2417	2481.7319	3865.4	2977
975.37	2483.0816	3855.9	2966.85
975.4984	2484.4306	3854.05	2963.3
975.6267	2485.7789	3834.05	2944.8
975.755	2487.1264	3834.95	2946.15
975.8833	2488.4733	3812.4	2924.4
976.0115	2489.8195	3814.15	2907.15
976.1397	2491.165	3793.55	2899.25
976.2678	2492.5097	3765.5	2874
976.3959	2493.8538	3760.1	2872.95
976.524	2495.1972	3739.2	2851.25
976.6521	2496.5398	3741.45	2849.3
976.7801	2497.8818	3735.3	2842
976.9081	2499.2231	3735.85	2844.95
977.036	2500.5637	3722.75	2829.85
977.164	2501.9035	3692.7	2800.05
977.2918	2503.2427	3682.3	2788.5
977.4197	2504.5812	3671.1	2778.65
977.5475	2505.919	3678.9	2787.75
977.6753	2507.256	3675.05	2784.35
977.8031	2508.5924	3637.4	2746.6
977.9308	2509.9281	3640.85	2747
978.0585	2511.2631	3638.4	2748.95
978.1861	2512.5974	3619.7	2728.95
978.3137	2513.9309	3618.9	2729.15
978.4413	2515.2638	3614.35	2696.9
978.5689	2516.596	3609.2	2719.35
978.6964	2517.9275	3586.45	2695.35
978.8239	2519.2583	3561.5	2670.25
978.9513	2520.5884	3555.8	2664.6
979.0788	2521.9178	3551.55	2662.2
979.2062	2523.2465	3520.3	2631.3
979.3335	2524.5745	3524.7	2635.7
979.4608	2525.9018	3518.2	2628.1
979.5881	2527.2284	3517.4	2627.95
979.7154	2528.5543	3516.95	2628.65
979.8426	2529.8796	3498.95	2607.25
979.9698	2531.2041	3495.15	2604.8
980.0969	2532.5279	3476.65	2589.65
980.224	2533.851	3475.5	2584.4
980.3511	2535.1735	3465.05	2572.95
980.4781	2536.4952	3463.6	2574.6
980.6052	2537.8163	3454.35	2563.6
980.7321	2539.1366	3443.15	2553.15
980.8591	2540.4562	3449	2556.9
980.986	2541.7752	3426.4	2534.75
981.1129	2543.0935	3426	2533.6
981.2397	2544.411	3419	2525.4
981.3665	2545.7279	3406.7	2515.05
981.4933	2547.0441	3408.15	2517.5
981.62	2548.3596	3399.2	2506.8
981.7467	2549.6744	3396.4	2506.95
981.8734	2550.9885	3388.1	2495.65
982.0001	2552.3019	3370.9	2480.1
982.1267	2553.6146	3365.6	2472.95
982.2532	2554.9266	3351.45	2461.75
982.3798	2556.2379	3347.85	2454.7
982.5063	2557.5485	3331.4	2441.4
982.6327	2558.8585	3344.55	2448.6
982.7592	2560.1677	3337.05	2441.55
982.8856	2561.4762	3324	2432.45
983.0119	2562.7841	3324.95	2431.65
983.1383	2564.0913	3317.1	2427.65
983.2646	2565.3977	3305.35	2417.45
983.3908	2566.7035	3285.65	2394.95
983.517	2568.0086	3288.1	2393.8
983.6432	2569.313	3295.05	2403.5
983.7694	2570.6167	3279.7	2383.2
983.8955	2571.9197	3281	2391.3
984.0216	2573.222	3275.05	2378.2
984.1476	2574.5236	3266	2374.65
984.2737	2575.8246	3257.6	2364
984.3996	2577.1248	3255.05	2361.75
984.5256	2578.4244	3248.05	2358.95
984.6515	2579.7232	3232.3	2340.75
984.7774	2581.0214	3261.05	2339.8
984.9032	2582.3189	3241.85	2351.4
985.029	2583.6157	3228.35	2331.5
985.1548	2584.9118	3228.35	2337.5
985.2806	2586.2072	3226.95	2334.7
985.4063	2587.5019	3208.45	2319.3
985.5319	2588.7959	3209.55	2318.7
985.6576	2590.0893	3201.5	2309.85
985.7832	2591.3819	3207.95	2316.8
985.9087	2592.6739	3193.35	2302.5
986.0343	2593.9652	3184.9	2292.25
986.1597	2595.2557	3178.6	2287.75
986.2852	2596.5456	3161.35	2267.95
986.4106	2597.8348	3176.15	2285
986.536	2599.1234	3159.15	2269.2
986.6614	2600.4112	3158.1	2267.85
986.7867	2601.6983	3144.45	2250.65
986.912	2602.9848	3139.65	2249.05
987.0372	2604.2705	3136.15	2238.9
987.1624	2605.5556	3129.6	2238.05
987.2876	2606.84	3117.45	2227.25
987.4128	2608.1237	3106.3	2214.6
987.5379	2609.4067	3094.9	2202.3
987.6629	2610.689	3093.35	2195.85
987.788	2611.9707	3077.5	2184.95
987.913	2613.2516	3085.2	2188.85
988.0379	2614.5319	3064.7	2174.9
988.1629	2615.8115	3059.9	2167.8
988.2878	2617.0903	3053.35	2162.25
988.4126	2618.3685	3038.45	2145.7
988.5375	2619.6461	3021.9	2131
988.6622	2620.9229	3022.6	2130.75
988.787	2622.199	3027.4	2134.8
988.9117	2623.4745	3003.7	2111.9
989.0364	2624.7493	2999.15	2107.2
989.161	2626.0234	3004.25	2112.85
989.2857	2627.2968	2994.15	2102.65
989.4102	2628.5695	2985.8	2092.9
989.5348	2629.8415	2965.5	2074.5
989.6593	2631.1128	2968.45	2075.25
989.7837	2632.3835	2951.3	2061.85
989.9082	2633.6535	2947	2057.2
990.0326	2634.9228	2938.35	2048.15
990.1569	2636.1914	2937.45	2048.85
990.2812	2637.4593	2943.4	2046.5
990.4055	2638.7265	2928.85	2038.05
990.5298	2639.9931	2918.4	2028.85
990.654	2641.259	2916.15	2025.6
990.7782	2642.5242	2911.6	2020.25
990.9023	2643.7887	2894.8	2004.35
991.0264	2645.0525	2898.95	2010.85
991.1505	2646.3156	2875.3	1983.1
991.2745	2647.5781	2864.25	1973.7
991.3985	2648.8398	2862.55	1975
991.5225	2650.1009	2869.7	1972.6
991.6464	2651.3613	2848.15	1956.95
991.7703	2652.6211	2840.9	1949.05
991.8942	2653.8801	2834.55	1942.85
992.018	2655.1385	2834.1	1942.75
992.1418	2656.3961	2833.4	1942.4
992.2655	2657.6531	2825.4	1934.25
992.3892	2658.9094	2827.15	1935.85
992.5129	2660.1651	2813.6	1923.65
992.6366	2661.42	2802.65	1911.95
992.7602	2662.6743	2806.2	1915.65
992.8837	2663.9279	2803.2	1912.75
993.0073	2665.1808	2807	1916.15
993.1307	2666.433	2804.2	1910.4
993.2542	2667.6846	2798.35	1910.55
993.3776	2668.9354	2791.65	1898.7
993.501	2670.1856	2784.25	1893.1
993.6244	2671.4351	2787	1896.15
993.7477	2672.6839	2779.4	1887.35
993.8709	2673.9321	2778.5	1888.85
993.9942	2675.1795	2782.2	1889.95
994.1174	2676.4263	2769.05	1876.8
994.2405	2677.6724	2762.55	1873.1
994.3637	2678.9179	2771.5	1880.65
994.4868	2680.1626	2760.85	1872.15
994.6098	2681.4067	2760.15	1870.15
994.7328	2682.6501	2761	1870.45
994.8558	2683.8928	2741.8	1850.8
994.9788	2685.1348	2731	1842.7
995.1017	2686.3761	2718	1828.95
995.2245	2687.6168	2720.5	1831.45
995.3474	2688.8568	2715.7	1826.3
995.4702	2690.0961	2701.95	1812.25
995.5929	2691.3348	2690.35	1800.85
995.7156	2692.5727	2689	1800.45
995.8383	2693.81	2685.65	1796.35
995.961	2695.0466	2672.55	1783.8
996.0836	2696.2826	2671.25	1780.65
996.2062	2697.5178	2659.05	1766.9
996.3287	2698.7524	2665	1774.45
996.4512	2699.9863	2664.2	1770.55
996.5737	2701.2195	2648.55	1760.4
996.6961	2702.452	2666.95	1777.6
996.8185	2703.6839	2657.65	1766.8
996.9408	2704.9151	2646.9	1757.95
997.0631	2706.1456	2637.15	1747.5
997.1854	2707.3755	2628.55	1739.9
997.3077	2708.6046	2651.65	1759.05
997.4299	2709.8331	2653.7	1763.95
997.552	2711.0609	2654.25	1765.8
997.6742	2712.2881	2666.95	1778.25
997.7963	2713.5145	2670.9	1778.55
997.9183	2714.7403	2658.1	1768.1
998.0403	2715.9654	2674.65	1783.8
998.1623	2717.1899	2679.4	1775.55
998.2842	2718.4136	2687.15	1797.9
998.4062	2719.6367	2672.05	1783.2
998.528	2720.8591	2695.3	1799.2
998.6498	2722.0809	2696.85	1807.4
998.7716	2723.3019	2701.35	1807.65
998.8934	2724.5223	2701.55	1808.9
999.0151	2725.7421	2700.3	1808.95
999.1368	2726.9611	2708.6	1818.9
999.2584	2728.1795	2697.05	1804.25
999.38	2729.3972	2688.7	1801
999.5016	2730.6142	2670.8	1776.65
999.6231	2731.8306	2648.75	1757.8
999.7446	2733.0462	2621.6	1730.55
999.8661	2734.2612	2613.45	1719.65
999.9875	2735.4756	2589.5	1698.85
1000.1089	2736.6892	2565.35	1678.45
1000.2302	2737.9022	2553.4	1664.95
1000.3515	2739.1145	2529.05	1641.7
1000.4728	2740.3262	2509.2	1613.5
1000.594	2741.5372	2492.9	1603
1000.7152	2742.7475	2471.5	1582.7
1000.8363	2743.9571	2467.75	1576.9
1000.9575	2745.1661	2444.65	1552.25
1001.0785	2746.3744	2436.1	1546.7
1001.1996	2747.582	2434.15	1545.9
1001.3206	2748.7889	2421.2	1530.45
1001.4415	2749.9952	2399.05	1511.6
1001.5625	2751.2008	2388.25	1497.9
1001.6833	2752.4057	2391.9	1499.7
1001.8042	2753.61	2374	1485
1001.925	2754.8136	2380.55	1488.6
1002.0458	2756.0165	2368.75	1480
1002.1665	2757.2188	2364.25	1478.2
1002.2872	2758.4204	2362	1475
1002.4078	2759.6213	2353.25	1464.05
1002.5285	2760.8215	2361.8	1470.8
1002.649	2762.0211	2347.15	1457.35
1002.7696	2763.22	2333.35	1442.2
1002.8901	2764.4182	2334.95	1445.85
1003.0106	2765.6158	2333.9	1445.9
1003.131	2766.8127	2320.8	1432.8
1003.2514	2768.009	2309.35	1422.1
1003.3717	2769.2045	2304.95	1417.75
1003.492	2770.3994	2307.65	1418.7
1003.6123	2771.5936	2302.8	1414.25
1003.7325	2772.7872	2295.7	1407.55
1003.8527	2773.9801	2284.45	1394.5
1003.9729	2775.1723	2291.35	1388.65
1004.093	2776.3639	2273.6	1384.8
1004.2131	2777.5548	2270.6	1380.25
1004.3331	2778.745	2269.3	1380.35
1004.4531	2779.9346	2264.45	1377.6
1004.5731	2781.1235	2273.35	1383.95
1004.693	2782.3117	2271.05	1383.85
1004.8129	2783.4992	2262.25	1376.9
1004.9328	2784.6861	2269.6	1384.05
1005.0526	2785.8723	2275.4	1385.8
1005.1723	2787.0579	2274.35	1385.25
1005.2921	2788.2428	2276.6	1388.85
1005.4118	2789.427	2279.65	1395.25
1005.5314	2790.6106	2286.6	1400.15
1005.651	2791.7935	2289.35	1400.7
1005.7706	2792.9757	2296.4	1410.05
1005.8902	2794.1573	2296.9	1408.1
1006.0097	2795.3382	2313.25	1423.6
1006.1291	2796.5184	2325.9	1439.4
1006.2485	2797.698	2347.4	1457.25
1006.3679	2798.8769	2351	1463.35
1006.4873	2800.0551	2367.45	1480.4
1006.6066	2801.2327	2379.85	1489.8
1006.7258	2802.4096	2400.1	1512.65
1006.8451	2803.5859	2417.65	1531.05
1006.9642	2804.7615	2434.3	1544.5
1007.0834	2805.9364	2452.45	1566.35
1007.2025	2807.1106	2483.55	1597
1007.3216	2808.2842	2506.25	1617.85
1007.4406	2809.4572	2534.25	1647.35
1007.5596	2810.6294	2572.25	1683.7
1007.6785	2811.801	2603.85	1719.55
1007.7975	2812.972	2646.65	1762.8
1007.9163	2814.1423	2685.15	1796.9
1008.0352	2815.3119	2727	1840.65
1008.154	2816.4808	2774.35	1889.15
1008.2727	2817.6491	2824.7	1936.9
1008.3914	2818.8167	2865.95	1979.45
1008.5101	2819.9837	2920.75	2028.75
1008.6288	2821.15	2960.6	2071.5
1008.7474	2822.3157	2998.15	2112.95
1008.8659	2823.4807	3047.05	2160.95
1008.9844	2824.645	3086.15	2200.6
1009.1029	2825.8086	3110.75	2225.15
1009.2214	2826.9716	3158.5	2273.75
1009.3398	2828.134	3208.9	2322.05
1009.4581	2829.2957	3240.7	2354.25
1009.5764	2830.4567	3278.35	2393.75
1009.6947	2831.617	3276.8	2387.85
1009.813	2832.7767	3285.35	2399.7
1009.9312	2833.9358	3271.95	2387.75
1010.0493	2835.0941	3272.5	2384.3
1010.1675	2836.2519	3262.15	2377.4
1010.2855	2837.4089	3246.1	2357.85
1010.4036	2838.5653	3231.5	2346.15
1010.5216	2839.7211	3247.25	2361.7
1010.6396	2840.8761	3246.15	2359.6
1010.7575	2842.0306	3261.7	2376.8
1010.8754	2843.1843	3303.05	2418.4
1010.9932	2844.3374	3350.5	2466
1011.111	2845.4899	3404.5	2516.5
1011.2288	2846.6417	3493.35	2606.9
1011.3465	2847.7928	3572.05	2684.6
1011.4642	2848.9433	3642.35	2756.4
1011.5818	2850.0931	3704.9	2818.7
1011.6995	2851.2422	3790.1	2903.8
1011.817	2852.3907	3857.8	2971
1011.9345	2853.5385	3924.4	3036.35
1012.052	2854.6857	3995.95	3101.45
1012.1695	2855.8323	4036.2	3150.25
1012.2869	2856.9781	4077.75	3191.05
1012.4042	2858.1233	4128.7	3242.8
1012.5216	2859.2679	4156.75	3269.4
1012.6389	2860.4118	4223.75	3335.35
1012.7561	2861.555	4260.3	3370.8
1012.8733	2862.6976	4274.15	3386.65
1012.9905	2863.8395	4307.25	3420.95
1013.1076	2864.9808	4328.75	3444.75
1013.2247	2866.1214	4349.95	3464.8
1013.3417	2867.2614	4366.45	3479.1
1013.4587	2868.4007	4371.75	3484.85
1013.5757	2869.5393	4381.3	3492.8
1013.6926	2870.6773	4377.65	3485.9
1013.8095	2871.8146	4393.15	3504.6
1013.9263	2872.9513	4389.85	3502.05
1014.0431	2874.0874	4382.55	3497.65
1014.1599	2875.2227	4365.25	3480.95
1014.2766	2876.3574	4351.6	3465.65
1014.3933	2877.4915	4310.5	3424.2
1014.51	2878.6249	4303.05	3418.95
1014.6266	2879.7577	4280.95	3393.95
1014.7431	2880.8898	4259.05	3361.25
1014.8596	2882.0212	4229.3	3344.1
1014.9761	2883.152	4206.6	3321.85
1015.0925	2884.2821	4191.95	3307.25
1015.2089	2885.4116	4197.25	3312.35
1015.3253	2886.5405	4190.25	3304.4
1015.4416	2887.6686	4193.8	3303.7
1015.5579	2888.7962	4187.8	3303.85
1015.6741	2889.923	4177.2	3292.05
1015.7903	2891.0493	4207.25	3321.8
1015.9065	2892.1748	4221.55	3334.7
1016.0226	2893.2997	4225.65	3339.3
1016.1387	2894.424	4231.7	3349.25
1016.2547	2895.5476	4255.3	3367.65
1016.3707	2896.6706	4283.2	3397.35
1016.4866	2897.7929	4311.85	3427.2
1016.6025	2898.9145	4322.3	3437.6
1016.7184	2900.0355	4339.3	3453.55
1016.8342	2901.1559	4381.95	3496.45
1016.95	2902.2756	4419.75	3533.65
1017.0658	2903.3946	4457.85	3573
1017.1815	2904.513	4473.3	3586
1017.2971	2905.6308	4477.5	3591.4
1017.4127	2906.7479	4502.85	3617.35
1017.5283	2907.8643	4535.45	3649.35
1017.6439	2908.9801	4543.7	3658.5
1017.7594	2910.0953	4554.85	3670.5
1017.8748	2911.2098	4554.6	3665.45
1017.9902	2912.3236	4530	3635.8
1018.1056	2913.4368	4517.35	3630.65
1018.2209	2914.5494	4496.65	3611.65
1018.3362	2915.6613	4477.95	3585.75
1018.4515	2916.7725	4449.7	3563.1
1018.5667	2917.8831	4402.2	3514.35
1018.6819	2918.9931	4372.8	3485
1018.797	2920.1024	4351.9	3466.3
1018.9121	2921.211	4332.35	3445.65
1019.0271	2922.319	4307.55	3422.4
1019.1421	2923.4264	4288.5	3403.1
1019.2571	2924.5331	4264.6	3380.65
1019.372	2925.6391	4238.95	3355.4
1019.4869	2926.7445	4230.85	3346.55
1019.6017	2927.8493	4236.2	3350.25
1019.7165	2928.9534	4218	3332.15
1019.8313	2930.0569	4218.6	3330.5
1019.946	2931.1597	4214.1	3328
1020.0606	2932.2619	4196.4	3310.35
1020.1753	2933.3634	4181.85	3296
1020.2899	2934.4643	4166	3272.9
1020.4044	2935.5645	4137.35	3247.5
1020.5189	2936.6641	4108.8	3220.1
1020.6334	2937.763	4059.95	3175.5
1020.7478	2938.8613	4005.55	3122.9
1020.8622	2939.959	3948.55	3057.55
1020.9765	2941.056	3858.5	2975.2
1021.0908	2942.1523	3778.7	2893.5
1021.2051	2943.248	3687.1	2801.6
1021.3193	2944.3431	3574.8	2691.2
1021.4334	2945.4375	3478.05	2590.7
1021.5476	2946.5313	3374.5	2491.35
1021.6617	2947.6244	3272.15	2387.7
1021.7757	2948.7169	3168	2283.05
1021.8897	2949.8087	3068.45	2184.7
1022.0037	2950.8999	2974.25	2089.55
1022.1176	2951.9904	2903.05	2018.25
1022.2315	2953.0803	2821.3	1934.7
1022.3453	2954.1696	2756.1	1871.7
1022.4591	2955.2582	2705.6	1820.3
1022.5728	2956.3462	2634.9	1751.4
1022.6865	2957.4335	2620	1733.1
1022.8002	2958.5202	2583.1	1694.15
1022.9138	2959.6062	2528.85	1643.3
1023.0274	2960.6916	2512.55	1628.9
1023.141	2961.7764	2490.6	1604.1
1023.2545	2962.8605	2486.45	1599.95
1023.3679	2963.9439	2467.9	1586.45
1023.4813	2965.0267	2452.35	1566.6
1023.5947	2966.1089	2464.3	1557
1023.708	2967.1905	2438.9	1555.45
1023.8213	2968.2714	2438.7	1556
1023.9346	2969.3516	2412.5	1528.1
1024.0478	2970.4312	2432.25	1540.9
1024.1609	2971.5102	2420.1	1535.95
1024.274	2972.5885	2410.75	1527
1024.3871	2973.6662	2422.5	1531.2
1024.5002	2974.7432	2422.65	1539.15
1024.6132	2975.8196	2407.05	1524.05
1024.7261	2976.8954	2395.5	1512.85
1024.839	2977.9705	2382.8	1499
1024.9519	2979.045	2361.85	1479.4
1025.0647	2980.1188	2346.6	1461.95
1025.1775	2981.192	2319.05	1436.6
1025.2902	2982.2645	2314.65	1430.15
1025.4029	2983.3364	2280.5	1398.35
1025.5156	2984.4077	2237.85	1354.05
1025.6282	2985.4783	2214.95	1325.8
1025.7407	2986.5483	2178.75	1295.95
1025.8532	2987.6177	2141.85	1257.95
1025.9657	2988.6864	2104.2	1220.95
1026.0782	2989.7545	2072.4	1187.65
1026.1906	2990.8219	2026.6	1143.3
1026.3029	2991.8887	1999.05	1114.05
1026.4152	2992.9548	1971.05	1086.75
1026.5275	2994.0204	1937.75	1054.4
1026.6397	2995.0852	1917.1	1033.9
1026.7519	2996.1495	1890.75	1005.55
1026.864	2997.2131	1861.8	977.9
1026.9761	2998.276	1828.65	946.75
1027.0882	2999.3383	1821.9	938.3
1027.2002	3000.4	1798.85	913.15
1027.3122	3001.4611	1783.4	898.75
1027.4241	3002.5215	1770.5	887.3
1027.536	3003.5812	1746.65	863.45
1027.6478	3004.6404	1742.15	859.05
1027.7596	3005.6989	1723.35	837.55
1027.8714	3006.7567	1725.1	841.45
1027.9831	3007.8139	1718	814.5
1028.0947	3008.8705	1694.9	812.25
1028.2064	3009.9264	1709.4	807.9
1028.3179	3010.9818	1686.95	801.15
1028.4295	3012.0364	1685.45	801
1028.541	3013.0905	1674.65	790.75
1028.6524	3014.1439	1678.05	793.15
1028.7638	3015.1966	1676.75	793.6
1028.8752	3016.2487	1677.1	792.9
1028.9865	3017.3002	1674.9	782.85
1029.0978	3018.3511	1664.85	781.9
1029.209	3019.4013	1665.45	781.45
1029.3202	3020.4509	1668.2	787.6
1029.4314	3021.4998	1670.55	787.9
1029.5425	3022.5481	1667.65	785.25
1029.6535	3023.5958	1672.35	790.75
1029.7645	3024.6428	1670.4	785.9
1029.8755	3025.6892	1660.85	777
1029.9864	3026.735	1667.15	783.85
1030.0973	3027.7802	1667.95	784.25
1030.2082	3028.8247	1660.85	777.3
1030.319	3029.8685	1671.9	786.7
1030.4297	3030.9118	1676.45	791.35
1030.5404	3031.9544	1666.05	783.55
1030.6511	3032.9963	1675.85	792.85
1030.7617	3034.0376	1680.05	796.45
1030.8723	3035.0783	1686.3	800.7
1030.9829	3036.1184	1683.3	798.5
1031.0934	3037.1578	1687.7	804.55
1031.2038	3038.1966	1692.35	809.75
1031.3142	3039.2348	1689.25	807.25
1031.4246	3040.2723	1707.6	816.65
1031.5349	3041.3092	1687.3	804.15
1031.6452	3042.3455	1683.05	800.6
1031.7554	3043.3811	1673.8	787.65
1031.8656	3044.4161	1672.05	787.4
1031.9758	3045.4505	1674.8	790.7
1032.0859	3046.4842	1660.65	776.1
1032.1959	3047.5173	1649.45	767.9
1032.3059	3048.5498	1636.6	753.3
1032.4159	3049.5816	1632.95	751
1032.5258	3050.6128	1628.95	743.1
1032.6357	3051.6434	1615.7	731.2
1032.7455	3052.6734	1619.15	734.1
1032.8553	3053.7027	1600.15	718
1032.9651	3054.7314	1595.25	711.75
1033.0748	3055.7594	1586.35	702.35
1033.1845	3056.7868	1583.35	699.4
1033.2941	3057.8136	1574.6	690.9
1033.4037	3058.8398	1570.2	688.5
1033.5132	3059.8653	1568.75	686.9
1033.6227	3060.8902	1553.2	671.4
1033.7321	3061.9145	1547.25	664.05
1033.8415	3062.9381	1548.05	665.35
1033.9509	3063.9612	1550.15	649.1
1034.0602	3064.9835	1529.6	647.4
1034.1694	3066.0053	1524.75	640.75
1034.2787	3067.0264	1517.05	636.1
1034.3878	3068.0469	1511.8	628.05
1034.497	3069.0668	1501.05	615.6
1034.6061	3070.086	1485.8	603.35
1034.7151	3071.1046	1479.1	594.8
1034.8241	3072.1226	1472.3	585.45
1034.9331	3073.1399	1461.2	581.05
1035.042	3074.1567	1439.95	557.2
1035.1508	3075.1727	1438.3	553.85
1035.2597	3076.1882	1427.4	543.7
1035.3684	3077.203	1412.6	528.65
1035.4772	3078.2173	1420.05	538.35
1035.5859	3079.2308	1395.5	507.45
1035.6945	3080.2438	1394.3	511.25
1035.8031	3081.2561	1383.1	502.25
1035.9117	3082.2678	1370.7	487.85
1036.0202	3083.2789	1371.85	490.45
1036.1286	3084.2893	1354.4	470.45
1036.2371	3085.2991	1350.05	466.15
1036.3454	3086.3083	1348.5	463.3
1036.4538	3087.3169	1343.25	458.45
1036.562	3088.3248	1336.8	452.25
1036.6703	3089.3321	1333.8	449.95
1036.7785	3090.3388	1318.35	435
1036.8866	3091.3449	1312.4	428.75
1036.9948	3092.3503	1314.5	427.9
1037.1028	3093.3551	1303.95	423.6
1037.2108	3094.3593	1306.45	424.55
1037.3188	3095.3629	1299.25	416.25
1037.4267	3096.3658	1295.05	410.25
1037.5346	3097.3681	1290.3	405.65
1037.6425	3098.3698	1279.6	395.25
1037.7503	3099.3708	1290.5	400.05
1037.858	3100.3713	1281.3	400.15
1037.9657	3101.3711	1274.65	390.2
1038.0734	3102.3702	1405.75	387.8
1038.181	3103.3688	1276.35	391.55
1038.2886	3104.3667	1262.75	381.85
1038.3961	3105.364	1264.75	383.25
1038.5036	3106.3607	1262.25	377.95
1038.611	3107.3568	1260.45	376.55
1038.7184	3108.3522	1250.3	368.05
1038.8257	3109.347	1249.95	368.2
1038.933	3110.3412	1249.15	360.35
1039.0403	3111.3348	1245.7	364.8
1039.1475	3112.3277	1243.65	359.5
1039.2547	3113.32	1242.25	361.7
1039.3618	3114.3117	1243.9	359.3
1039.4689	3115.3028	1231.05	347.2
1039.5759	3116.2932	1229.25	347
1039.6829	3117.2831	1232.8	345
1039.7898	3118.2723	1233.9	349.85
1039.8967	3119.2608	1228.7	346.35
1040.0035	3120.2488	1223.25	340.65
1040.1103	3121.2361	1220.6	338.5
1040.2171	3122.2229	1219.7	336.4
1040.3238	3123.209	1215.85	333.5
1040.4305	3124.1944	1215.6	333.5
1040.5371	3125.1793	1217.65	333.45
1040.6437	3126.1635	1216.75	335.15
1040.7502	3127.1471	1203.35	320.65
1040.8567	3128.1301	1209.8	327.7
1040.9631	3129.1125	1210.35	328.9
1041.0695	3130.0942	1206.1	321.5
1041.1759	3131.0753	1210	320.25
1041.2822	3132.0558	1203.4	318
1041.3884	3133.0357	1200.15	317.7
1041.4946	3134.015	1193.9	311.45
1041.6008	3134.9936	1196.7	312.3
1041.7069	3135.9716	1210.2	304.55
1041.813	3136.949	1194.05	309.9
1041.919	3137.9258	1211.6	310.05
1042.025	3138.902	1190.35	300.45
1042.1309	3139.8775	1182.95	301.45
1042.2368	3140.8524	1182	300.55
1042.3427	3141.8267	1181.4	297.45
1042.4485	3142.8004	1175.75	293.55
1042.5542	3143.7735	1181.3	294.9
1042.6599	3144.7459	1179.4	295.15
1042.7656	3145.7178	1182.45	298.5
1042.8712	3146.689	1174.7	292.35
1042.9768	3147.6596	1177.7	292.7
1043.0823	3148.6295	1170.8	289.3
1043.1878	3149.5989	1171.7	289.2
1043.2932	3150.5676	1166.1	284.5
1043.3986	3151.5357	1162.7	282.05
1043.5039	3152.5032	1166.85	284.75
1043.6092	3153.4701	1156.4	276.05
1043.7145	3154.4364	1160.1	275.7
1043.8197	3155.402	1155.95	273.4
1043.9248	3156.367	1159.95	275.2
1044.03	3157.3315	1190.65	269.15
1044.135	3158.2952	1148.8	265.95
1044.24	3159.2584	1145.35	264.75
1044.345	3160.221	1149.15	266.75
1044.4499	3161.1829	1142.5	263.5
1044.5548	3162.1442	1147	266.4
1044.6596	3163.105	1138.3	257.35
1044.7644	3164.065	1140.35	257.55
1044.8692	3165.0245	1137.9	253.6
1044.9739	3165.9834	1137.5	258
1045.0785	3166.9416	1135.55	254.1
1045.1831	3167.8993	1133.4	250.7
1045.2877	3168.8563	1134.15	251.6
1045.3922	3169.8127	1129.05	248.25
1045.4966	3170.7684	1130.65	249.1
1045.6011	3171.7236	1128.4	245.45
1045.7054	3172.6782	1127.55	247.25
1045.8098	3173.6321	1126.15	244.2
1045.914	3174.5854	1131.1	242.7
1046.0183	3175.5381	1125.6	243
1046.1224	3176.4902	1118.8	236.2
1046.2266	3177.4417	1119.8	237.25
1046.3307	3178.3926	1121.55	239.95
1046.4347	3179.3428	1113.5	232.55
1046.5387	3180.2924	1113.55	232.85
1046.6427	3181.2415	1116.15	235.55
1046.7466	3182.1899	1111.6	226
1046.8504	3183.1377	1109	227.65
1046.9542	3184.0848	1115.75	231.3
1047.058	3185.0314	1112.95	230.9
1047.1617	3185.9773	1105.3	222.75
1047.2654	3186.9227	1109.2	224.75
1047.369	3187.8674	1107.7	226.45
1047.4726	3188.8115	1111.35	227
1047.5761	3189.755	1104.15	222.8
1047.6796	3190.6979	1103.15	223.6
1047.783	3191.6402	1101.8	221
1047.8864	3192.5818	1099.1	216.1
1047.9898	3193.5229	1105.9	219.9
1048.0931	3194.4633	1101.1	220.65
1048.1963	3195.4031	1096.35	212
1048.2995	3196.3423	1093	211.05
1048.4027	3197.2809	1092.85	211.2
1048.5058	3198.2189	1097.3	217.15
1048.6089	3199.1563	1096.65	206.65
1048.7119	3200.0931	1092.5	210.65
1048.8148	3201.0292	1082.4	201.3
1048.9178	3201.9648	1088	204.3
1049.0206	3202.8997	1086.95	201.75
1049.1235	3203.834	1086.85	205.65
1049.2262	3204.7677	1085.9	204.45
1049.329	3205.7008	1087.4	203.8
1049.4317	3206.6333	1081.3	201.55
1049.5343	3207.5652	1082.9	197.65
1049.6369	3208.4964	1083.8	201.1
1049.7394	3209.4271	1082.95	204.45
1049.8419	3210.3571	1079.05	199.05
1049.9444	3211.2865	1076.3	193.45
1050.0468	3212.2154	1075.2	190.65
1050.1491	3213.1436	1078.45	194.3
1050.2514	3214.0712	1079.65	191.55
1050.3537	3214.9982	1073.9	192.85
1050.4559	3215.9246	1072.75	190.05
1050.5581	3216.8503	1068.7	187
1050.6602	3217.7755	1070.15	189.3
1050.7623	3218.7001	1072.55	190.7
1050.8643	3219.624	1070.05	185.5
1050.9663	3220.5473	1068.3	187.2
1051.0682	3221.4701	1068.05	185.55
1051.1701	3222.3922	1066.95	182.85
1051.2719	3223.3137	1069.25	189
1051.3737	3224.2346	1063.35	181.8
1051.4754	3225.1549	1064.35	184.6
1051.5771	3226.0746	1060.55	179.4
1051.6788	3226.9937	1060.5	178.65
1051.7804	3227.9121	1059.75	179.85
1051.8819	3228.83	1059.1	177.75
1051.9834	3229.7473	1059.6	179.25
1052.0849	3230.6639	1057.15	175
1052.1863	3231.5799	1056.9	175.5
1052.2876	3232.4954	1056.2	173.35
1052.3889	3233.4102	1054.75	173.5
1052.4902	3234.3244	1056.5	174.7
1052.5914	3235.238	1055.8	173.3
1052.6926	3236.151	1076.5	170.1
1052.7937	3237.0634	1052.95	172.45
1052.8948	3237.9752	1052	169.25
1052.9958	3238.8864	1049.35	169.25
1053.0968	3239.797	1048.65	167.25
1053.1977	3240.7069	1047.35	163.7
1053.2986	3241.6163	1044.1	161
1053.3994	3242.5251	1042.4	161.75
1053.5002	3243.4332	1040.65	161.35
1053.6009	3244.3408	1045	161.5
1053.7016	3245.2477	1040.75	159.95
1053.8022	3246.154	1044.05	160.25
1053.9028	3247.0598	1039.1	156.25
1054.0034	3247.9649	1039.4	158.25
1054.1039	3248.8694	1037.5	154.4
1054.2043	3249.7733	1037.05	157.45
1054.3047	3250.6766	1035.75	152.35
1054.4051	3251.5793	1033.35	149.55
1054.5054	3252.4814	1036.4	155.35
1054.6056	3253.3829	1029.6	146.9
1054.7058	3254.2838	1035.05	155.05
1054.806	3255.1841	1032.9	152
1054.9061	3256.0838	1025	142.8
1055.0061	3256.9829	1026.65	146.3
1055.1062	3257.8814	1033.55	151.1
1055.2061	3258.7792	1026.9	143.45
1055.306	3259.6765	1025.8	146.45
1055.4059	3260.5731	1022	139.7
1055.5057	3261.4692	1019.4	138
1055.6055	3262.3647	1017.65	135.3
1055.7052	3263.2595	1012.3	130.95
1055.8049	3264.1538	1013.4	134.05
1055.9045	3265.0474	1013.5	130.85
1056.0041	3265.9404	1009.9	129.7
1056.1036	3266.8329	1011.6	128.2
1056.2031	3267.7247	1015	123.9
1056.3025	3268.616	1001.1	121.6
1056.4019	3269.5066	1001.05	119.75
1056.5013	3270.3966	1000.2	118.6
1056.6005	3271.286	992.5	114
