Software Version:	3.9.2.0
Unit SN:	10000200
Spectrometer SN:	6960
Date:	3/26/2024 1:17:17 PM
Data Line Index:	25
Spectral Points:	2048
Integration time (ms):	125
Averages:	20
Delay (ms):	30000
Sequence Number:	1
Processing:	dark subtract
Laser Power (mW):	305
Laser Current (mA):	818
Laser Diode Temp (C):	25
Laser Case Temp (C):	26.5
System Temp (C):	26.4
Spectrometer Temp (C):	24.2
CCD Temp (C):	0.008
Secondary Temp (C):	20.004
Heatsink Temp (C):	21.974
CCDPCB Temp (C):	36.34
SecondaryPCB Temp (C):	33.183

Wavelength	RamanShift	Raw Counts	Dark Subtracted
787.061	30.1047	427.05	16.9
787.2016	32.3739	427.45	19.2
787.3422	34.6426	430.55	18.85
787.4828	36.9109	432.7	19.1
787.6235	39.1787	436.8	20.9
787.7642	41.4461	443.55	21.5
787.9049	43.7131	449.95	24.5
788.0456	45.9796	452.4	23.1
788.1863	48.2456	459.7	27.4
788.3271	50.5112	463.8	27.55
788.4679	52.7764	470.5	33.6
788.6087	55.0411	475.75	34.45
788.7496	57.3054	478.45	33.3
788.8904	59.5692	484.1	37.15
789.0313	61.8326	491.8	43.4
789.1722	64.0955	500.1	44.65
789.3132	66.3579	508.8	46.95
789.4541	68.6199	515.4	51.55
789.5951	70.8815	529.5	64.8
789.7361	73.1426	551.9	82.45
789.8771	75.4032	610.55	136.05
790.0181	77.6634	747.95	268.9
790.1592	79.9231	1072.6	590.15
790.3003	82.1824	1764.45	1279.95
790.4414	84.4412	2950.15	2461
790.5825	86.6995	4588.45	4091.6
790.7237	88.9574	6241.9	5739.75
790.8648	91.2148	7468.15	6963.75
791.006	93.4717	8151.35	7643.45
791.1472	95.7282	8425.5	7912.25
791.2885	97.9842	8548.8	8035.55
791.4297	100.2398	8550.15	8033.95
791.571	102.4949	8537.5	8017.55
791.7123	104.7495	8514.95	7991.55
791.8536	107.0036	8471.05	7946.85
791.9949	109.2573	8442.75	7920.8
792.1363	111.5105	8385.2	7859.7
792.2777	113.7632	8325.75	7797.25
792.4191	116.0154	8289.4	7750.5
792.5605	118.2672	8265.7	7734.85
792.7019	120.5185	8186.9	7652.45
792.8434	122.7693	8151.6	7616.75
792.9849	125.0197	8096.1	7556.4
793.1264	127.2696	8074.1	7533.8
793.2679	129.519	8059.75	7517.25
793.4094	131.7679	8015.05	7470.15
793.551	134.0163	8005.3	7455.25
793.6926	136.2642	8023.85	7468.75
793.8342	138.5117	8017.85	7455.45
793.9758	140.7587	7978.8	7421.9
794.1175	143.0052	7972.55	7411.2
794.2591	145.2512	7928.1	7366
794.4008	147.4967	7880.9	7317.45
794.5425	149.7417	7850.95	7284
794.6842	151.9863	7814.9	7245.05
794.826	154.2304	7805.7	7232.95
794.9677	156.4739	7767.8	7189.5
795.1095	158.717	7774.8	7198.45
795.2513	160.9596	7772.6	7189.85
795.3931	163.2017	7763	7178.1
795.535	165.4433	7787.5	7200.65
795.6768	167.6844	7775.25	7187.4
795.8187	169.925	7751.25	7159.5
795.9606	172.1651	7697.45	7102.15
796.1025	174.4047	7651.55	7051.9
796.2445	176.6439	7626.85	7026.2
796.3864	178.8825	7587.45	6983.25
796.5284	181.1206	7584.8	6974.5
796.6704	183.3582	7569.25	6957.45
796.8124	185.5954	7553.2	6939.8
796.9544	187.832	7549.4	6932.3
797.0965	190.0681	7563.75	6945.3
797.2386	192.3037	7559.6	6939.05
797.3806	194.5388	7551.65	6926.2
797.5228	196.7734	7536.05	6908.25
797.6649	199.0075	7567.75	6936.1
797.807	201.2411	7605.5	6971.75
797.9492	203.4742	7619.6	6986.15
798.0914	205.7068	7633.25	6998.85
798.2336	207.9389	7642.55	7005.55
798.3758	210.1704	7649.25	7010.55
798.518	212.4015	7637.8	6994.35
798.6603	214.632	7646.9	7004.95
798.8025	216.862	7627.8	6994.1
798.9448	219.0915	7606.8	6978.85
799.0871	221.3205	7600.6	6978.1
799.2294	223.549	7599.1	6976.75
799.3718	225.777	7633.65	7014.2
799.5141	228.0044	7626.95	7001.25
799.6565	230.2314	7611.05	6988.55
799.7989	232.4578	7583.05	6960.55
799.9413	234.6837	7573.25	6943.2
800.0837	236.909	7569.95	6936.9
800.2262	239.1339	7565.45	6909.6
800.3687	241.3582	7569.1	6926.5
800.5111	243.582	7564.2	6890.1
800.6536	245.8053	7558.75	6896
800.7961	248.0281	7537.8	6880.65
800.9387	250.2503	7528.6	6867.5
801.0812	252.472	7551.65	6886.55
801.2238	254.6932	7565.55	6896.85
801.3664	256.9139	7523.65	6851.3
801.509	259.134	7545.65	6871.6
801.6516	261.3536	7533.95	6863.05
801.7942	263.5727	7571.6	6896.85
801.9369	265.7912	7558.05	6883.35
802.0795	268.0092	7603.25	6927.65
802.2222	270.2267	7624.1	6946.5
802.3649	272.4436	7646.15	6969.1
802.5076	274.6601	7660.65	6975.35
802.6504	276.8759	7656.4	6975.35
802.7931	279.0913	7675	6991.3
802.9359	281.3061	7658.15	6971.65
803.0787	283.5204	7690.2	7001.15
803.2215	285.7341	7698.75	7005.65
803.3643	287.9473	7709.95	7006.6
803.5071	290.16	7722.6	7024.5
803.6499	292.3721	7686.55	6993
803.7928	294.5837	7653.55	6961.5
803.9357	296.7947	7620.4	6928.3
804.0786	299.0052	7605.95	6912.7
804.2215	301.2152	7563	6865.75
804.3644	303.4246	7549.95	6855.75
804.5074	305.6334	7509.5	6812.1
804.6503	307.8418	7524.4	6825.2
804.7933	310.0495	7496.35	6797.05
804.9363	312.2568	7453.8	6755.65
805.0793	314.4635	7384.3	6681.85
805.2223	316.6696	7344.3	6642
805.3653	318.8752	7304.9	6593.85
805.5084	321.0802	7267.8	6563.85
805.6514	323.2847	7284.1	6577.3
805.7945	325.4887	7256.6	6551
805.9376	327.692	7259.6	6550.4
806.0807	329.8949	7277.5	6568.4
806.2238	332.0972	7276.8	6565.75
806.367	334.2989	7312.25	6596.85
806.5101	336.5001	7289.15	6573.4
806.6533	338.7007	7268.8	6553.15
806.7965	340.9008	7264.25	6547
806.9397	343.1003	7216.1	6496.5
807.0829	345.2992	7162.6	6441.4
807.2261	347.4976	7142.9	6422.8
807.3693	349.6955	7111.45	6386.15
807.5126	351.8927	7101.85	6375.25
807.6559	354.0895	7086.55	6351.8
807.7991	356.2856	7065.05	6337.2
807.9424	358.4812	7047	6318.9
808.0857	360.6763	7061.55	6332.25
808.2291	362.8707	7040.85	6307.2
808.3724	365.0646	7021.8	6288.2
808.5158	367.258	7014.5	6279.8
808.6591	369.4508	7007.3	6268.3
808.8025	371.643	7016	6278.45
808.9459	373.8346	7028	6286.8
809.0893	376.0257	7027	6281.85
809.2327	378.2162	7045.85	6301.4
809.3762	380.4062	7069.4	6320.7
809.5196	382.5956	7011.55	6262.8
809.6631	384.7844	6984.05	6236.2
809.8066	386.9726	6954.4	6203.2
809.9501	389.1603	6886.9	6137.8
810.0936	391.3474	6900.15	6119.75
810.2371	393.5339	6861.55	6109.75
810.3806	395.7199	6835.45	6090.8
810.5241	397.9052	6832.9	6091.8
810.6677	400.09	6864.4	6121.85
810.8113	402.2743	6884.8	6141.65
810.9548	404.4579	6898.7	6155.15
811.0984	406.641	6914.3	6168.2
811.2421	408.8235	6933.1	6190.75
811.3857	411.0054	6976.6	6231.2
811.5293	413.1868	7099.65	6350.9
811.673	415.3675	7173.75	6423.15
811.8166	417.5477	7197.15	6447.2
811.9603	419.7273	7123.5	6368.8
812.104	421.9064	7000.6	6237.3
812.2477	424.0848	6905.9	6147.65
812.3914	426.2627	6848.25	6089.6
812.5351	428.4399	6816.7	6055.55
812.6788	430.6166	6753.35	5987.75
812.8226	432.7928	6700	5932.15
812.9663	434.9683	6657.2	5891.3
813.1101	437.1432	6640.15	5872.6
813.2539	439.3176	6586.6	5818.15
813.3977	441.4914	6566.05	5795.5
813.5415	443.6645	6558.35	5787.65
813.6853	445.8371	6551.8	5777.9
813.8291	448.0091	6538.55	5767.4
813.973	450.1806	6524.8	5752.45
814.1168	452.3514	6501.25	5726.8
814.2607	454.5216	6487.95	5707.75
814.4046	456.6913	6456.3	5678.9
814.5485	458.8603	6441.55	5667.35
814.6924	461.0288	6477.4	5701.95
814.8363	463.1967	6441.7	5664.8
814.9802	465.3639	6455.5	5677.7
815.1241	467.5306	6438.8	5660.9
815.2681	469.6967	6414.85	5637.1
815.412	471.8622	6409.3	5631.65
815.556	474.0271	6391.65	5613.65
815.7	476.1914	6387.4	5604.15
815.844	478.3551	6359.15	5578.55
815.988	480.5182	6389.1	5607.35
816.132	482.6807	6372.7	5588.8
816.276	484.8426	6390.55	5608.45
816.4201	487.0039	6420.9	5636.7
816.5641	489.1647	6452.65	5669.5
816.7082	491.3248	6494.25	5710.4
816.8522	493.4843	6483.4	5699
816.9963	495.6432	6485.8	5701.5
817.1404	497.8015	6446.5	5658.2
817.2845	499.9592	6416.1	5629
817.4286	502.1163	6386.3	5599.2
817.5727	504.2728	6343.25	5552.35
817.7168	506.4287	6344.6	5556.5
817.861	508.5839	6337.25	5546.65
818.0051	510.7386	6308.55	5519.15
818.1493	512.8927	6306.65	5507.5
818.2935	515.0461	6317.85	5526.4
818.4377	517.199	6313.6	5524.25
818.5818	519.3512	6322.75	5531.8
818.726	521.5029	6373.55	5575.5
818.8703	523.6539	6409.35	5611.9
819.0145	525.8043	6423	5626.8
819.1587	527.9541	6379.6	5581.5
819.303	530.1033	6317.6	5521.9
819.4472	532.2519	6297.65	5502.4
819.5915	534.3999	6260.25	5459.45
819.7357	536.5472	6266.55	5470.15
819.88	538.694	6263.95	5467.05
820.0243	540.8401	6289.1	5488.95
820.1686	542.9856	6290.4	5488.05
820.3129	545.1305	6291.4	5489.9
820.4572	547.2748	6290.4	5486.6
820.6016	549.4185	6296.4	5492.8
820.7459	551.5615	6287.55	5482.75
820.8902	553.704	6294.7	5490.65
821.0346	555.8458	6303.55	5500.4
821.1789	557.987	6307.75	5505.15
821.3233	560.1276	6301.65	5497.8
821.4677	562.2675	6379	5574.85
821.6121	564.4069	6397.8	5591.5
821.7565	566.5456	6428.65	5624.4
821.9009	568.6837	6404.2	5599.15
822.0453	570.8212	6367.1	5560.6
822.1897	572.958	6315.55	5510.65
822.3342	575.0942	6273.2	5470.6
822.4786	577.2299	6223.25	5415.7
822.6231	579.3648	6191.6	5387.1
822.7675	581.4992	6161.2	5352.6
822.912	583.6329	6130.65	5327
823.0565	585.766	6147.15	5341.35
823.201	587.8985	6171.05	5364.5
823.3454	590.0304	6195.65	5376.2
823.4899	592.1616	6212.25	5399.1
823.6345	594.2922	6192	5382.4
823.779	596.4222	6162	5351.2
823.9235	598.5515	6109.95	5295.7
824.068	600.6802	6080.3	5270.15
824.2126	602.8083	6029.25	5216.65
824.3571	604.9358	6026.1	5209.7
824.5017	607.0626	5995.8	5181.45
824.6462	609.1888	6015.1	5198.25
824.7908	611.3144	6002.7	5185.3
824.9354	613.4393	6042.9	5228.25
825.08	615.5636	6060.75	5245.5
825.2246	617.6873	6094.5	5278.65
825.3692	619.8103	6113.2	5294.6
825.5138	621.9327	6123.25	5303
825.6584	624.0544	6093.25	5276.1
825.803	626.1756	6038.65	5220.8
825.9477	628.2961	5989.6	5171.6
826.0923	630.4159	5984.7	5166.5
826.237	632.5351	5964.1	5146.8
826.3816	634.6537	5976.05	5158.55
826.5263	636.7716	5960.3	5138.75
826.6709	638.8889	5970.3	5149.65
826.8156	641.0056	5974.3	5152.5
826.9603	643.1216	5968.85	5147.05
827.105	645.237	5986.6	5162.2
827.2497	647.3518	5935.7	5111.55
827.3944	649.4659	5941.5	5118.5
827.5391	651.5793	5929.95	5106.35
827.6838	653.6922	5895.6	5070.35
827.8285	655.8043	5882.6	5059.5
827.9733	657.9159	5872.15	5047.1
828.118	660.0268	5847.65	5021.8
828.2627	662.137	5853.15	5025.7
828.4075	664.2466	5857.65	5028.8
828.5522	666.3556	5848.1	5022.15
828.697	668.4639	5832.4	5001.75
828.8418	670.5716	5825.15	4996.25
828.9865	672.6786	5840.75	5011.3
829.1313	674.785	5809.4	4979.95
829.2761	676.8907	5779.3	4951.5
829.4209	678.9958	5800.45	4972.95
829.5657	681.1002	5762	4933.2
829.7105	683.204	5782.8	4947.9
829.8553	685.3072	5775.15	4942.05
830.0001	687.4097	5761.35	4929.5
830.1449	689.5115	5754.4	4922.95
830.2898	691.6127	5750.7	4922.6
830.4346	693.7132	5753.55	4922.75
830.5794	695.8131	5756.2	4902
830.7243	697.9123	5764.7	4930.65
830.8691	700.0109	5752.9	4918.3
831.014	702.1089	5733.1	4900.25
831.1588	704.2061	5751.7	4917.9
831.3037	706.3028	5756.7	4920.3
831.4486	708.3987	5765.4	4931.45
831.5935	710.4941	5780.9	4945.5
831.7383	712.5887	5777.45	4943.15
831.8832	714.6827	5780.95	4943.5
832.0281	716.7761	5762.5	4926.75
832.173	718.8688	5758.75	4922.65
832.3179	720.9608	5737.3	4895.15
832.4628	723.0522	5763.7	4922.85
832.6077	725.1429	5767.75	4930.35
832.7527	727.233	5796.1	4959.15
832.8976	729.3224	5826.3	4988.5
833.0425	731.4112	5842.6	5004
833.1874	733.4993	5860	5019.15
833.3324	735.5867	5846.15	5005.2
833.4773	737.6735	5775.5	4933.6
833.6222	739.7596	5746.5	4907.25
833.7672	741.845	5721.95	4881.5
833.9122	743.9298	5715.6	4872.45
834.0571	746.014	5712.6	4872.25
834.2021	748.0974	5724.4	4880.45
834.347	750.1802	5711.55	4868.65
834.492	752.2624	5690.2	4848.75
834.637	754.3439	5664.4	4821.9
834.782	756.4247	5645.15	4793.15
834.9269	758.5048	5620.25	4779.95
835.0719	760.5843	5621.15	4779.35
835.2169	762.6631	5618.45	4774.8
835.3619	764.7413	5642.65	4799.4
835.5069	766.8188	5692.75	4849.75
835.6519	768.8956	5704	4856.9
835.7969	770.9718	5740.5	4895.6
835.9419	773.0473	5724.15	4881.8
836.0869	775.1221	5692.65	4850.25
836.232	777.1962	5684.65	4839.9
836.377	779.2697	5706.4	4858.9
836.522	781.3426	5768.75	4903.15
836.667	783.4147	5784.2	4935.85
836.8121	785.4862	5806.75	4961.4
836.9571	787.557	5765.55	4918.5
837.1021	789.6271	5656.4	4809.7
837.2472	791.6966	5564.45	4716.9
837.3922	793.7654	5493.15	4645.85
837.5373	795.8335	5437.1	4587.8
837.6823	797.901	5387.8	4538.25
837.8274	799.9678	5397.6	4549.4
837.9724	802.0339	5375.05	4528.3
838.1175	804.0993	5383.4	4525.75
838.2626	806.1641	5367.8	4517.2
838.4076	808.2282	5343.9	4494.6
838.5527	810.2916	5316.35	4466.5
838.6978	812.3544	5317.3	4470.4
838.8428	814.4164	5292.85	4445.1
838.9879	816.4778	5295.3	4445.55
839.133	818.5385	5282.55	4432.45
839.2781	820.5986	5315.15	4465.6
839.4232	822.658	5336.55	4484.85
839.5682	824.7166	5356.3	4507.65
839.7133	826.7747	5424.3	4576.5
839.8584	828.832	5474.95	4624.8
840.0035	830.8886	5491.5	4640.3
840.1486	832.9446	5519.65	4665.85
840.2937	834.9999	5483.6	4632.8
840.4388	837.0545	5438.45	4583.3
840.5839	839.1085	5375.65	4523.85
840.729	841.1618	5305.05	4448.65
840.8741	843.2143	5263.4	4411
841.0192	845.2662	5227.85	4374.75
841.1643	847.3175	5204.75	4353.2
841.3095	849.368	5185.45	4331.1
841.4546	851.4179	5195.55	4343.75
841.5997	853.467	5155.05	4300.9
841.7448	855.5155	5148.7	4295.85
841.8899	857.5633	5147.2	4294.2
842.0351	859.6105	5120.9	4267.8
842.1802	861.6569	5103.65	4251.55
842.3253	863.7027	5100.85	4244.55
842.4704	865.7478	5094.8	4240.75
842.6156	867.7922	5085.7	4231.65
842.7607	869.8359	5050.3	4195.5
842.9058	871.8789	5042.95	4187.65
843.0509	873.9212	5065.05	4177.35
843.1961	875.9629	5026.65	4171.7
843.3412	878.0039	5040.55	4183.45
843.4863	880.0441	5030.7	4174.6
843.6315	882.0837	5050.9	4192.5
843.7766	884.1226	5051.15	4194.8
843.9218	886.1609	5076.65	4223.1
844.0669	888.1984	5099.15	4245
844.212	890.2352	5127.3	4272.4
844.3572	892.2714	5125.6	4263.1
844.5023	894.3069	5119.45	4262.05
844.6475	896.3416	5074.9	4216.85
844.7926	898.3757	5027.7	4171.05
844.9377	900.4091	5005	4146.85
845.0829	902.4418	4988.7	4126.1
845.228	904.4739	4983.9	4125.8
845.3732	906.5052	4994.5	4137.7
845.5183	908.5358	4990.3	4134
845.6635	910.5658	4963.7	4105.9
845.8086	912.595	4934.6	4076.6
845.9538	914.6236	4879.3	4020.85
846.0989	916.6515	4867.4	4008.7
846.2441	918.6786	4847.85	3985.95
846.3892	920.7051	4839.1	3977.25
846.5344	922.7309	4818.15	3958.5
846.6795	924.756	4800.6	3942.25
846.8246	926.7804	4803.1	3941.2
846.9698	928.8041	4787.45	3925.4
847.1149	930.8272	4804.35	3944.05
847.2601	932.8495	4788	3925.95
847.4052	934.8711	4786.4	3925.8
847.5504	936.892	4761.05	3902.05
847.6955	938.9123	4775.3	3912.7
847.8407	940.9318	4770.3	3909.1
847.9858	942.9506	4770.35	3908.05
848.131	944.9688	4761.5	3900.6
848.2761	946.9862	4737.4	3874.9
848.4213	949.003	4690.5	3829.35
848.5664	951.019	4662.9	3801.7
848.7115	953.0344	4648.8	3788.3
848.8567	955.0491	4630.65	3767.75
849.0018	957.063	4621.6	3758.25
849.147	959.0763	4634.1	3766.65
849.2921	961.0888	4595.35	3730.7
849.4373	963.1007	4599.1	3737.15
849.5824	965.1119	4586.65	3725.05
849.7275	967.1223	4582.2	3719.5
849.8727	969.1321	4534.55	3671.65
850.0178	971.1412	4546.25	3682.1
850.1629	973.1495	4512.8	3650.1
850.3081	975.1572	4550.1	3653.7
850.4532	977.1641	4510.35	3648.6
850.5983	979.1704	4501.9	3636.65
850.7435	981.1759	4493.35	3625.85
850.8886	983.1808	4480.45	3614.3
851.0337	985.1849	4471.1	3597.4
851.1788	987.1884	4451.5	3585.7
851.324	989.1911	4451	3584.4
851.4691	991.1932	4437.85	3570.65
851.6142	993.1945	4415.9	3553.85
851.7593	995.1951	4399.5	3535.45
851.9045	997.1951	4416.1	3544.55
852.0496	999.1943	4370.7	3506.65
852.1947	1001.1928	4368.55	3500
852.3398	1003.1906	4355.8	3491.05
852.4849	1005.1877	4367.2	3500.45
852.63	1007.1841	4363.85	3498.35
852.7751	1009.1798	4344.9	3478.35
852.9202	1011.1748	4330	3465
853.0653	1013.1691	4313.4	3446.2
853.2104	1015.1627	4274.65	3407.05
853.3555	1017.1556	4236.15	3369.85
853.5006	1019.1477	4203.75	3336.7
853.6457	1021.1392	4178.65	3313.75
853.7908	1023.1299	4162.4	3295.35
853.9359	1025.12	4157.3	3290.1
854.081	1027.1093	4118.65	3253.7
854.2261	1029.0979	4138.3	3274.25
854.3712	1031.0859	4119.4	3253.15
854.5163	1033.0731	4134.75	3267.8
854.6613	1035.0596	4114.45	3247.4
854.8064	1037.0454	4086.95	3219.65
854.9515	1039.0304	4089.6	3221.4
855.0965	1041.0148	4050.8	3182.2
855.2416	1042.9985	4024.1	3156.2
855.3867	1044.9814	4021.05	3154.95
855.5317	1046.9636	3986.65	3118
855.6768	1048.9452	3975.4	3107.8
855.8219	1050.926	3986.35	3117.65
855.9669	1052.9061	3984.85	3116.3
856.112	1054.8855	3967.5	3096.7
856.257	1056.8642	3965.25	3095.3
856.4021	1058.8421	3966.2	3091.45
856.5471	1060.8194	3942.95	3074.05
856.6921	1062.7959	3929	3060.8
856.8372	1064.7717	3940.4	3069.9
856.9822	1066.7469	3926.35	3055.8
857.1272	1068.7213	3909.75	3037.6
857.2723	1070.695	3906.95	3037.45
857.4173	1072.6679	3897.1	3025.95
857.5623	1074.6402	3900.75	3029.6
857.7073	1076.6117	3920.95	3046.45
857.8523	1078.5826	3909.55	3039.6
857.9973	1080.5527	3864.55	2992.35
858.1423	1082.5221	3828.3	2956.35
858.2873	1084.4908	3802.75	2933.1
858.4323	1086.4587	3785.45	2914.95
858.5773	1088.426	3760.3	2889.15
858.7223	1090.3925	3750	2873.85
858.8673	1092.3584	3743.4	2872.65
859.0123	1094.3235	3729.05	2860
859.1573	1096.2879	3723.55	2851.4
859.3022	1098.2515	3744.9	2873.05
859.4472	1100.2145	3760	2891.55
859.5922	1102.1767	3779.25	2905.2
859.7371	1104.1382	3787.1	2916.6
859.8821	1106.099	3813.6	2940.15
860.027	1108.0591	3826.35	2954.15
860.172	1110.0185	3844.05	2969.8
860.3169	1111.9771	3867.2	2995.85
860.4619	1113.9351	3872.35	3002.05
860.6068	1115.8923	3926.05	3054.4
860.7517	1117.8488	3922	3049.6
860.8967	1119.8045	3898.75	3026.7
861.0416	1121.7596	3835.6	2962.65
861.1865	1123.7139	3749.1	2879.35
861.3314	1125.6675	3689.6	2817.8
861.4763	1127.6204	3696.1	2823.1
861.6212	1129.5726	3691.7	2817.9
861.7661	1131.524	3687.25	2815.8
861.911	1133.4748	3662.3	2790
862.0559	1135.4248	3604.8	2730.3
862.2008	1137.3741	3576.1	2705.75
862.3457	1139.3226	3536.2	2660.8
862.4905	1141.2705	3523.9	2651.5
862.6354	1143.2176	3528.5	2648.45
862.7803	1145.164	3526.45	2650.4
862.9251	1147.1097	3504.4	2631.55
863.07	1149.0546	3487.5	2611.85
863.2148	1150.9989	3475.65	2601.9
863.3597	1152.9424	3452.1	2578.05
863.5045	1154.8852	3428.2	2555.3
863.6493	1156.8272	3423	2551.45
863.7942	1158.7686	3415.45	2534.2
863.939	1160.7092	3405.7	2532.85
864.0838	1162.6491	3388.6	2510.85
864.2286	1164.5883	3395.75	2523.8
864.3734	1166.5267	3401.45	2527.05
864.5182	1168.4644	3409.2	2533.85
864.663	1170.4014	3431.8	2554
864.8078	1172.3377	3451.85	2581.55
864.9526	1174.2732	3467.85	2592.8
865.0974	1176.2081	3521.4	2648.75
865.2421	1178.1421	3586.75	2706.75
865.3869	1180.0755	3676.1	2802.05
865.5317	1182.0082	3722.25	2848.5
865.6764	1183.9401	3700.4	2825.25
865.8212	1185.8713	3635.2	2763.55
865.9659	1187.8017	3546.4	2672.25
866.1106	1189.7315	3471.5	2599.1
866.2554	1191.6605	3391.2	2518.55
866.4001	1193.5888	3338.95	2465.75
866.5448	1195.5163	3322.55	2448.45
866.6895	1197.4432	3282.7	2407.95
866.8342	1199.3693	3275.8	2398.55
866.9789	1201.2947	3247.35	2370.9
867.1236	1203.2193	3212.2	2337.45
867.2683	1205.1432	3217.65	2341.9
867.413	1207.0664	3204.25	2328.5
867.5576	1208.9889	3201.65	2325.35
867.7023	1210.9106	3176.15	2299.9
867.847	1212.8316	3174.55	2298.4
867.9916	1214.7519	3189.4	2303.3
868.1363	1216.6715	3196.1	2321.75
868.2809	1218.5903	3176.35	2300.5
868.4255	1220.5084	3185.65	2310.4
868.5701	1222.4257	3187.75	2310.75
868.7148	1224.3424	3173.1	2297.75
868.8594	1226.2583	3202.75	2320.6
869.004	1228.1735	3206.65	2329.3
869.1486	1230.0879	3207.75	2331.35
869.2932	1232.0016	3236.25	2359.8
869.4377	1233.9146	3264.65	2388.05
869.5823	1235.8269	3259.75	2381.85
869.7269	1237.7384	3281.45	2403.9
869.8715	1239.6492	3237.85	2362.4
870.016	1241.5592	3254.9	2374.3
870.1606	1243.4686	3251.3	2375.75
870.3051	1245.3772	3306.25	2429.35
870.4496	1247.285	3356.3	2477.7
870.5941	1249.1922	3406.5	2529.1
870.7387	1251.0986	3458.8	2582.2
870.8832	1253.0042	3489.35	2612.75
871.0277	1254.9092	3556.95	2680.5
871.1722	1256.8134	3605.35	2729.2
871.3167	1258.7169	3662.85	2785.75
871.4611	1260.6196	3689.1	2814.15
871.6056	1262.5216	3711.75	2831.45
871.7501	1264.4229	3683.65	2808.15
871.8945	1266.3234	3662.8	2785.15
872.039	1268.2232	3632.95	2753.65
872.1834	1270.1223	3591.85	2714.25
872.3278	1272.0207	3554	2675.4
872.4723	1273.9183	3553.85	2670.7
872.6167	1275.8151	3521.15	2644.5
872.7611	1277.7113	3552.85	2673.1
872.9055	1279.6067	3598.1	2720.25
873.0499	1281.5014	3680.5	2799.1
873.1943	1283.3953	3792.95	2914.25
873.3386	1285.2885	3923	3046.7
873.483	1287.181	4045.4	3164.95
873.6274	1289.0727	4079.05	3200.9
873.7717	1290.9637	4055.4	3175.5
873.9161	1292.854	3994.25	3117.5
874.0604	1294.7435	3885.7	3007.65
874.2047	1296.6323	3801.6	2922.25
874.349	1298.5204	3736.9	2854.85
874.4933	1300.4077	3671.65	2792.9
874.6376	1302.2943	3623.25	2744.8
874.7819	1304.1802	3603.6	2727.3
874.9262	1306.0653	3568.7	2689.05
875.0705	1307.9497	3543.6	2666.75
875.2147	1309.8333	3516.1	2639.15
875.359	1311.7162	3474.85	2594.15
875.5032	1313.5984	3462.75	2583
875.6475	1315.4798	3449.8	2557.9
875.7917	1317.3605	3434.3	2548.55
875.9359	1319.2405	3435.95	2557.25
876.0801	1321.1197	3408.35	2528.35
876.2243	1322.9982	3400.4	2517
876.3685	1324.876	3347.25	2467.75
876.5127	1326.753	3287	2409.4
876.6569	1328.6293	3217.3	2337.35
876.801	1330.5048	3171.7	2289.95
876.9452	1332.3796	3083.05	2204.25
877.0893	1334.2537	3065.05	2163
877.2335	1336.127	3013.15	2134.55
877.3776	1337.9996	2988.35	2109.7
877.5217	1339.8714	2958.65	2078.95
877.6658	1341.7426	2984.25	2059.05
877.8099	1343.6129	2932.55	2052.4
877.954	1345.4826	2916.1	2036.15
878.0981	1347.3515	2896.65	2014.2
878.2422	1349.2196	2887.75	2007.8
878.3862	1351.087	2875.4	1996.35
878.5303	1352.9537	2878.6	1999.3
878.6743	1354.8197	2870.3	1991.45
878.8184	1356.6849	2878	1998.8
878.9624	1358.5493	2877.75	1997.45
879.1064	1360.4131	2885.6	2007.3
879.2504	1362.276	2907.85	2030.65
879.3944	1364.1383	2921.65	2041.1
879.5384	1365.9998	2935.6	2049.35
879.6823	1367.8606	2928.05	2047.25
879.8263	1369.7206	2908.85	2028.35
879.9702	1371.5799	2900.05	2019.55
880.1142	1373.4384	2891.55	2011.4
880.2581	1375.2962	2881.25	1999.9
880.402	1377.1533	2838.75	1959.65
880.5459	1379.0096	2791.75	1912.9
880.6898	1380.8652	2769.7	1888.85
880.8337	1382.7201	2739.45	1860.2
880.9776	1384.5742	2711.1	1832.15
881.1215	1386.4275	2691.2	1810.3
881.2653	1388.2802	2668.25	1790.6
881.4092	1390.132	2655.95	1773.8
881.553	1391.9832	2642.45	1759.75
881.6968	1393.8336	2626.1	1744.55
881.8406	1395.6832	2623.15	1742.2
881.9844	1397.5322	2598.25	1717.9
882.1282	1399.3803	2594.45	1709.5
882.272	1401.2278	2580.7	1698.35
882.4158	1403.0745	2577.35	1697.1
882.5595	1404.9204	2564.05	1683.85
882.7033	1406.7656	2560.4	1680.95
882.847	1408.6101	2556.2	1675.1
882.9908	1410.4538	2533.6	1653.5
883.1345	1412.2968	2510.9	1630.05
883.2782	1414.139	2526.9	1645.9
883.4219	1415.9805	2528	1647.05
883.5656	1417.8213	2534	1632.35
883.7092	1419.6613	2527.45	1648.55
883.8529	1421.5006	2545.45	1663.1
883.9965	1423.3391	2566.9	1686.1
884.1402	1425.1769	2586.8	1704
884.2838	1427.0139	2630.3	1749.5
884.4274	1428.8502	2690.8	1808.25
884.571	1430.6858	2733.9	1852.1
884.7146	1432.5206	2761.35	1881
884.8582	1434.3547	2753.8	1872.5
885.0018	1436.188	2743.45	1863.3
885.1453	1438.0206	2716.6	1833.75
885.2889	1439.8524	2702.7	1820.45
885.4324	1441.6835	2701.95	1818.5
885.5759	1443.5139	2704.5	1821
885.7194	1445.3435	2699.15	1816.4
885.8629	1447.1724	2707.2	1828.1
886.0064	1449.0005	2687.6	1805.7
886.1499	1450.8279	2690.4	1808.55
886.2933	1452.6545	2675.25	1794.95
886.4368	1454.4804	2659.25	1779.7
886.5802	1456.3056	2667.65	1779.25
886.7237	1458.13	2643.4	1761.3
886.8671	1459.9536	2634.3	1755.25
887.0105	1461.7766	2595.95	1718.55
887.1539	1463.5987	2565.75	1682.85
887.2972	1465.4202	2535.55	1654
887.4406	1467.2409	2510.95	1628.7
887.584	1469.0608	2497.1	1617.1
887.7273	1470.88	2461.5	1580.8
887.8706	1472.6984	2427.75	1546.8
888.0139	1474.5161	2407.15	1523.6
888.1572	1476.3331	2397.7	1517.4
888.3005	1478.1493	2383.15	1499.4
888.4438	1479.9648	2385.35	1504.55
888.5871	1481.7795	2376.35	1494.8
888.7303	1483.5935	2372.9	1491.45
888.8736	1485.4067	2370.2	1489.4
889.0168	1487.2192	2358.8	1476.5
889.16	1489.031	2365.4	1482.2
889.3032	1490.842	2351.55	1469.45
889.4464	1492.6522	2354.6	1473.7
889.5896	1494.4618	2338.65	1453.9
889.7327	1496.2705	2342.8	1462.75
889.8759	1498.0785	2326.85	1444.55
890.019	1499.8858	2329.65	1447.95
890.1622	1501.6924	2315.85	1435.2
890.3053	1503.4981	2317	1435.35
890.4484	1505.3032	2305.15	1424.15
890.5914	1507.1075	2296.1	1412.2
890.7345	1508.911	2295.5	1413.1
890.8776	1510.7138	2287.6	1406.7
891.0206	1512.5159	2267	1385.5
891.1637	1514.3172	2253.1	1371.15
891.3067	1516.1178	2234.35	1356
891.4497	1517.9176	2240.45	1355.75
891.5927	1519.7166	2237.95	1357.35
891.7357	1521.515	2223	1334.55
891.8786	1523.3126	2226.4	1344.2
892.0216	1525.1094	2205.8	1322.05
892.1645	1526.9055	2201.8	1320.5
892.3074	1528.7008	2200.05	1318.35
892.4503	1530.4954	2187.75	1307.25
892.5932	1532.2893	2180.85	1299.7
892.7361	1534.0824	2167.45	1280
892.879	1535.8747	2174.15	1291.9
893.0218	1537.6663	2164.45	1281.75
893.1647	1539.4572	2153.65	1268.15
893.3075	1541.2473	2160.2	1277.25
893.4503	1543.0367	2149.7	1268.6
893.5931	1544.8253	2144.05	1257.4
893.7359	1546.6132	2148.25	1262.45
893.8787	1548.4003	2151.35	1260.35
894.0214	1550.1867	2153.6	1261.45
894.1642	1551.9723	2135	1247.45
894.3069	1553.7572	2153.85	1270.1
894.4496	1555.5414	2156.8	1273.35
894.5923	1557.3247	2165.15	1281.95
894.735	1559.1074	2190.6	1310.65
894.8777	1560.8893	2200.7	1321.3
895.0204	1562.6705	2226	1344.95
895.163	1564.4509	2245.35	1363.9
895.3056	1566.2305	2257.3	1376.5
895.4482	1568.0094	2249.5	1367.5
895.5908	1569.7876	2243.8	1362.35
895.7334	1571.565	2251.7	1369
895.876	1573.3417	2243.7	1360.4
896.0186	1575.1176	2230.9	1348.35
896.1611	1576.8928	2236.1	1352.85
896.3036	1578.6672	2250.45	1367.8
896.4461	1580.4409	2255.25	1375.7
896.5886	1582.2138	2293.6	1410.6
896.7311	1583.986	2311.6	1430.25
896.8736	1585.7575	2341.05	1460.8
897.0161	1587.5282	2354.4	1474.15
897.1585	1589.2981	2381.65	1501.45
897.3009	1591.0673	2391.7	1511.05
897.4433	1592.8358	2388.55	1506.85
897.5857	1594.6035	2390.35	1506.05
897.7281	1596.3704	2374.3	1491.7
897.8705	1598.1366	2350.1	1468.75
898.0128	1599.9021	2334.7	1454.15
898.1551	1601.6668	2316.85	1433.55
898.2975	1603.4308	2296.55	1415.05
898.4398	1605.194	2297.8	1409.3
898.5821	1606.9564	2293.25	1412.3
898.7243	1608.7182	2345.7	1460.35
898.8666	1610.4791	2383.65	1503
899.0088	1612.2394	2460.4	1579.75
899.1511	1613.9988	2524.2	1641.3
899.2933	1615.7576	2590.5	1710.75
899.4355	1617.5156	2614.55	1727.3
899.5776	1619.2728	2604.2	1721.7
899.7198	1621.0293	2545.7	1664.35
899.862	1622.785	2453.95	1570.2
900.0041	1624.54	2357.45	1475.05
900.1462	1626.2942	2273.1	1389.9
900.2883	1628.0477	2193.85	1309.8
900.4304	1629.8005	2131.15	1246.35
900.5725	1631.5525	2068.55	1186.9
900.7145	1633.3037	2027.65	1147.05
900.8566	1635.0542	2008.65	1126.05
900.9986	1636.804	1961.75	1081.1
901.1406	1638.553	1997.6	1067.2
901.2826	1640.3013	1920.4	1038.35
901.4245	1642.0488	1904.15	1020.85
901.5665	1643.7955	1888.15	1008.35
901.7085	1645.5416	1873.75	990.35
901.8504	1647.2868	1874.25	993.3
901.9923	1649.0313	1852.6	972.9
902.1342	1650.7751	1853	967.5
902.2761	1652.5181	1843.15	961.25
902.4179	1654.2604	1841.75	959.45
902.5598	1656.0019	1832.95	952.3
902.7016	1657.7427	1843.35	960.95
902.8434	1659.4828	1854.15	973.1
902.9852	1661.222	1864.1	981.3
903.127	1662.9606	1889.55	1006.75
903.2687	1664.6984	1914.05	1031.6
903.4105	1666.4354	1925.25	1042.5
903.5522	1668.1717	1909.55	1027.55
903.6939	1669.9072	1875.25	993.55
903.8356	1671.642	1855.2	970.5
903.9773	1673.3761	1812.3	930.9
904.119	1675.1094	1782	901.05
904.2606	1676.8419	1757.4	877.85
904.4022	1678.5737	1740.45	858
904.5439	1680.3048	1731.4	850
904.6855	1682.0351	1726.35	844.55
904.827	1683.7646	1721.4	835.95
904.9686	1685.4934	1708.85	827.2
905.1101	1687.2215	1702.65	821.7
905.2517	1688.9488	1696.55	815.5
905.3932	1690.6754	1688.9	808.7
905.5347	1692.4012	1681.5	799.15
905.6761	1694.1263	1674.9	794.75
905.8176	1695.8506	1668.3	785.6
905.9591	1697.5742	1668.9	789.2
906.1005	1699.297	1662.25	781.5
906.2419	1701.0191	1652.85	772.45
906.3833	1702.7404	1654.55	771.3
906.5246	1704.461	1653.6	769.1
906.666	1706.1808	1640	756.85
906.8073	1707.8999	1642.4	758.45
906.9487	1709.6182	1637.3	756.4
907.09	1711.3358	1638.85	756.15
907.2313	1713.0527	1626.1	745.1
907.3725	1714.7688	1629.75	741.25
907.5138	1716.4841	1622.55	738
907.655	1718.1987	1620.1	732.45
907.7962	1719.9126	1612.45	730.3
907.9374	1721.6257	1611.35	727.45
908.0786	1723.338	1610.3	726.65
908.2198	1725.0496	1607.6	725.45
908.3609	1726.7605	1599.75	716.6
908.502	1728.4706	1603.85	719.65
908.6431	1730.18	1595.65	711.55
908.7842	1731.8886	1589.75	708.05
908.9253	1733.5964	1605.45	716.6
909.0664	1735.3036	1596.3	711.45
909.2074	1737.0099	1593.15	710.95
909.3484	1738.7156	1595.95	713.8
909.4894	1740.4204	1590.1	704.2
909.6304	1742.1246	1589.25	707.05
909.7714	1743.8279	1588.5	707.6
909.9123	1745.5306	1581.15	697.7
910.0532	1747.2325	1576.2	692.35
910.1941	1748.9336	1586.2	705.7
910.335	1750.634	1584.35	700.4
910.4759	1752.3336	1570.4	690.9
910.6168	1754.0325	1570.75	688.15
910.7576	1755.7307	1575.1	692.25
910.8984	1757.4281	1568.35	687.85
911.0392	1759.1247	1579.1	690.1
911.18	1760.8206	1577.6	692.55
911.3208	1762.5158	1567.45	679.95
911.4615	1764.2102	1566.35	683.65
911.6022	1765.9039	1566.7	685.9
911.7429	1767.5968	1554.25	670.85
911.8836	1769.289	1564.6	681.05
912.0243	1770.9804	1563.95	680.85
912.1649	1772.6711	1563.5	680
912.3056	1774.361	1557.05	674.65
912.4462	1776.0502	1559.75	677.5
912.5868	1777.7386	1543.55	655.15
912.7274	1779.4263	1549.1	667.15
912.8679	1781.1132	1552.55	670.5
913.0084	1782.7994	1547.8	665.05
913.149	1784.4849	1538.9	658.15
913.2895	1786.1696	1547.15	657.45
913.4299	1787.8535	1542.3	659.95
913.5704	1789.5367	1541.4	657.55
913.7108	1791.2192	1539.8	655.9
913.8513	1792.9009	1551.35	640.35
913.9917	1794.5818	1532.5	647
914.132	1796.2621	1529.8	648.75
914.2724	1797.9415	1520.55	637.6
914.4128	1799.6202	1528.1	645.55
914.5531	1801.2982	1517.05	634.05
914.6934	1802.9755	1519	635.15
914.8337	1804.6519	1519.2	635.95
914.9739	1806.3277	1519.9	637.85
915.1142	1808.0027	1506.9	627
915.2544	1809.6769	1514.35	632.75
915.3946	1811.3504	1512.45	628.3
915.5348	1813.0231	1509.35	626.8
915.675	1814.6951	1503.8	621.45
915.8151	1816.3664	1516.55	629.85
915.9553	1818.0369	1507.05	626.15
916.0954	1819.7067	1496.25	615.55
916.2355	1821.3757	1500.25	615.25
916.3755	1823.044	1493.75	610.95
916.5156	1824.7115	1497.1	613.1
916.6556	1826.3783	1498.55	617.4
916.7956	1828.0443	1490	608.15
916.9356	1829.7096	1493	607.95
917.0756	1831.3741	1498.25	612
917.2155	1833.0379	1486.75	605.65
917.3555	1834.701	1480.15	593.95
917.4954	1836.3633	1480.9	598.85
917.6353	1838.0248	1482.95	597.55
917.7751	1839.6856	1486.65	603.75
917.915	1841.3457	1475.05	593.3
918.0548	1843.005	1479.05	595.5
918.1946	1844.6636	1474	592.7
918.3344	1846.3214	1477	593.85
918.4742	1847.9785	1470.35	589.8
918.6139	1849.6349	1471.7	588.65
918.7537	1851.2904	1486.35	596.45
918.8934	1852.9453	1466.65	585.15
919.0331	1854.5994	1473.55	586.6
919.1727	1856.2528	1472.55	583.5
919.3124	1857.9054	1468.85	586.85
919.452	1859.5572	1457.85	575.95
919.5916	1861.2083	1464.75	581.5
919.7312	1862.8587	1459.9	579.65
919.8708	1864.5084	1454.65	570
920.0103	1866.1572	1454.65	574.6
920.1498	1867.8054	1450.95	569.4
920.2893	1869.4528	1449.95	568.2
920.4288	1871.0994	1446	562.65
920.5683	1872.7453	1452.95	566.85
920.7077	1874.3905	1454.05	562.25
920.8471	1876.0349	1448.75	565.35
920.9865	1877.6786	1442.35	557.8
921.1259	1879.3215	1451.4	568.9
921.2653	1880.9637	1444.3	560.6
921.4046	1882.6051	1442.5	560.45
921.5439	1884.2458	1442	557.55
921.6832	1885.8858	1440.95	557.65
921.8225	1887.525	1449.05	564.05
921.9617	1889.1634	1437.5	556.25
922.101	1890.8011	1443.95	561.6
922.2402	1892.4381	1425.15	541.95
922.3794	1894.0743	1426.2	543.75
922.5185	1895.7098	1436.05	553.8
922.6577	1897.3446	1428.4	546.25
922.7968	1898.9786	1425.05	540.15
922.9359	1900.6118	1427.95	547.35
923.075	1902.2443	1424.75	540.95
923.214	1903.8761	1426.3	541.15
923.3531	1905.5071	1417.7	533.05
923.4921	1907.1374	1417.65	534.55
923.6311	1908.7669	1418.8	537.3
923.77	1910.3957	1417.65	535.25
923.909	1912.0237	1411.2	528.75
924.0479	1913.651	1407.4	523.1
924.1868	1915.2776	1408.4	526.6
924.3257	1916.9034	1408.1	526.5
924.4646	1918.5285	1406.9	522.65
924.6034	1920.1528	1406.45	522.3
924.7422	1921.7764	1406.1	522.6
924.881	1923.3992	1397.9	517.25
925.0198	1925.0213	1399.7	515.9
925.1586	1926.6427	1391.6	511.1
925.2973	1928.2633	1455.65	502.05
925.436	1929.8832	1397.6	514.35
925.5747	1931.5023	1397.2	515.45
925.7134	1933.1207	1393.55	510.45
925.852	1934.7383	1380.8	496.75
925.9906	1936.3552	1388.15	504.7
926.1292	1937.9714	1393.45	510.9
926.2678	1939.5868	1386	502.8
926.4064	1941.2015	1376.5	494
926.5449	1942.8154	1382.9	499.05
926.6834	1944.4286	1377.95	496.2
926.8219	1946.041	1392.85	487.55
926.9604	1947.6528	1381.2	494.6
927.0988	1949.2637	1374.4	493.25
927.2372	1950.8739	1376.3	491.95
927.3756	1952.4834	1371.5	487.65
927.514	1954.0921	1373.2	489.15
927.6523	1955.7001	1376.45	488.95
927.7907	1957.3074	1367.65	486.15
927.929	1958.9139	1366.8	485.55
928.0673	1960.5197	1367.65	482.5
928.2055	1962.1247	1369.85	487.55
928.3438	1963.729	1361.6	477.55
928.482	1965.3325	1380.4	472.3
928.6202	1966.9353	1362.8	479.85
928.7584	1968.5374	1362.65	479.9
928.8965	1970.1387	1350.75	468.5
929.0346	1971.7393	1352.55	467.65
929.1727	1973.3392	1347.25	464.7
929.3108	1974.9383	1351.75	469.4
929.4489	1976.5366	1345.55	463.75
929.5869	1978.1342	1344.4	460.35
929.7249	1979.7311	1342.75	457.9
929.8629	1981.3273	1345.8	462.65
930.0009	1982.9227	1346.1	461.9
930.1388	1984.5173	1342.4	460.6
930.2767	1986.1112	1345.5	462
930.4146	1987.7044	1340	458.3
930.5525	1989.2968	1340.35	457.05
930.6904	1990.8885	1344.85	458.55
930.8282	1992.4795	1342.55	459.05
930.966	1994.0697	1339.9	457.3
931.1038	1995.6592	1330.75	445.75
931.2415	1997.2479	1334.5	453.65
931.3793	1998.8359	1334.85	451.55
931.517	2000.4232	1333.95	451.85
931.6547	2002.0097	1330.9	449.2
931.7923	2003.5955	1333.4	450.7
931.93	2005.1805	1336.5	451.6
932.0676	2006.7648	1332.25	451.35
932.2052	2008.3484	1323.3	438.85
932.3427	2009.9312	1333.45	449.8
932.4803	2011.5133	1327.05	444.25
932.6178	2013.0946	1323.8	441.85
932.7553	2014.6752	1320.85	438.45
932.8928	2016.2551	1328.2	444.25
933.0302	2017.8342	1327.05	445.4
933.1676	2019.4126	1318.65	436.7
933.305	2020.9902	1315.7	433.55
933.4424	2022.5672	1313.45	430.4
933.5798	2024.1433	1324.15	434.7
933.7171	2025.7188	1317.7	436.05
933.8544	2027.2935	1320.05	436.1
933.9917	2028.8674	1308.4	428.05
934.129	2030.4406	1311.15	429.15
934.2662	2032.0131	1308.25	425.1
934.4034	2033.5849	1312.9	422.35
934.5406	2035.1559	1308.95	425.95
934.6778	2036.7261	1308.2	426.85
934.8149	2038.2957	1312.25	430.15
934.952	2039.8645	1308.25	424.7
935.0891	2041.4325	1309.8	425.15
935.2262	2042.9998	1306.75	424.2
935.3632	2044.5664	1308.4	422.5
935.5002	2046.1323	1305.15	422.5
935.6372	2047.6974	1306.9	423.9
935.7742	2049.2617	1300.55	419.3
935.9111	2050.8254	1308.3	421.45
936.048	2052.3883	1311.75	428.2
936.1849	2053.9504	1307	426.1
936.3218	2055.5118	1297.45	412.3
936.4586	2057.0725	1305.95	421.1
936.5955	2058.6325	1298.8	416.7
936.7323	2060.1917	1296.7	413.85
936.869	2061.7502	1298.75	414.35
937.0058	2063.3079	1295.65	414.1
937.1425	2064.8649	1301.3	415.6
937.2792	2066.4212	1299.9	414.8
937.4159	2067.9767	1300	418.95
937.5525	2069.5315	1288.6	407.5
937.6891	2071.0856	1291.7	410
937.8257	2072.6389	1296.2	412.85
937.9623	2074.1915	1285.65	405.95
938.0989	2075.7433	1290.5	407.6
938.2354	2077.2945	1290.05	412.2
938.3719	2078.8448	1283.9	401.45
938.5084	2080.3945	1291	409.2
938.6448	2081.9434	1288.6	406.9
938.7812	2083.4916	1286.8	403.65
938.9176	2085.039	1290.5	406.85
939.054	2086.5857	1287.6	403.25
939.1903	2088.1317	1283.1	398.3
939.3267	2089.677	1282.05	397.7
939.463	2091.2215	1281.35	398.55
939.5992	2092.7652	1283.75	399.4
939.7355	2094.3083	1276.9	394.35
939.8717	2095.8506	1280.05	397.55
940.0079	2097.3921	1291.8	409.65
940.1441	2098.933	1285.45	403.05
940.2802	2100.4731	1274.75	392.4
940.4163	2102.0124	1292.7	403.55
940.5524	2103.5511	1282.8	400.15
940.6885	2105.089	1280	398.4
940.8245	2106.6261	1278.25	395.2
940.9606	2108.1626	1283.35	399.05
941.0965	2109.6983	1311.35	402.35
941.2325	2111.2332	1280.45	396.25
941.3684	2112.7675	1280.55	398.6
941.5044	2114.301	1280.3	395.65
941.6403	2115.8337	1283	401.4
941.7761	2117.3657	1277.2	395.1
941.912	2118.897	1282.6	397.9
942.0478	2120.4276	1284.15	394.65
942.1835	2121.9575	1273.5	390.6
942.3193	2123.4866	1282.85	386.3
942.455	2125.0149	1272.25	386.55
942.5907	2126.5426	1268.45	386.85
942.7264	2128.0695	1273.4	386.15
942.8621	2129.5956	1273.25	392.25
942.9977	2131.1211	1276.6	388.2
943.1333	2132.6458	1269.45	388.5
943.2689	2134.1698	1268.75	386.5
943.4044	2135.693	1274.15	391.1
943.54	2137.2155	1268.55	384.4
943.6755	2138.7373	1270.35	386.25
943.8109	2140.2584	1264.15	381.05
943.9464	2141.7787	1271	379.85
944.0818	2143.2983	1263.9	382.45
944.2172	2144.8171	1256.7	377.7
944.3526	2146.3353	1268.05	384.05
944.4879	2147.8527	1260.7	380.5
944.6232	2149.3693	1259.9	376.75
944.7585	2150.8853	1263.6	379.8
944.8938	2152.4005	1252.75	370.9
945.029	2153.9149	1259.2	374.95
945.1642	2155.4287	1360.25	379.5
945.2994	2156.9417	1266	382.6
945.4346	2158.454	1259.25	375.5
945.5697	2159.9655	1262.05	379.75
945.7048	2161.4764	1256.6	371.85
945.8399	2162.9865	1256.3	371.9
945.9749	2164.4958	1254.4	369.7
946.1099	2166.0045	1257.95	372.85
946.2449	2167.5124	1254.55	373.9
946.3799	2169.0195	1247.55	364.25
946.5148	2170.526	1251.5	369.15
946.6498	2172.0317	1253.4	371.15
946.7846	2173.5367	1246.4	363.9
946.9195	2175.0409	1244.25	362.6
947.0543	2176.5445	1249.45	365.85
947.1891	2178.0473	1245.05	362.85
947.3239	2179.5494	1247.55	360.35
947.4587	2181.0507	1244.2	361
947.5934	2182.5513	1242.7	361.3
947.7281	2184.0512	1246.6	363.4
947.8628	2185.5504	1241.55	360.05
947.9974	2187.0488	1239.25	357.85
948.132	2188.5465	1242.2	358.4
948.2666	2190.0435	1237.65	355.5
948.4012	2191.5397	1235.7	354.25
948.5357	2193.0353	1236.2	354.6
948.6702	2194.5301	1238.8	356.5
948.8047	2196.0241	1233.95	349.8
948.9392	2197.5175	1232.05	350.3
949.0736	2199.0101	1239.45	352.1
949.208	2200.502	1230.1	348
949.3424	2201.9931	1228.2	345.55
949.4767	2203.4835	1230.65	345.1
949.611	2204.9733	1245.4	346.9
949.7453	2206.4622	1228.9	346.95
949.8796	2207.9505	1231.55	347
950.0138	2209.438	1223.35	343.05
950.148	2210.9248	1224.85	338.45
950.2822	2212.4109	1218.55	339.3
950.4164	2213.8962	1219.9	333
950.5505	2215.3809	1219.35	335.35
950.6846	2216.8648	1222.75	340
950.8186	2218.3479	1222.5	335.35
950.9527	2219.8304	1219.55	334.9
951.0867	2221.3121	1220.3	335.55
951.2207	2222.7931	1218.75	335.5
951.3546	2224.2733	1220.3	337.45
951.4886	2225.7529	1212.3	328.7
951.6225	2227.2317	1217.1	332.35
951.7563	2228.7098	1207.25	324.8
951.8902	2230.1872	1211.4	327.55
952.024	2231.6638	1213.95	332.25
952.1578	2233.1397	1211.15	323.35
952.2916	2234.6149	1207.3	325.9
952.4253	2236.0894	1209.8	327.55
952.559	2237.5632	1214.25	328.45
952.6927	2239.0362	1202.5	320.95
952.8263	2240.5085	1204.8	321.15
952.9599	2241.9801	1202.35	319.25
953.0935	2243.4509	1199.45	317.55
953.2271	2244.921	1199.6	316
953.3606	2246.3904	1202.4	318.45
953.4941	2247.8591	1201.05	319.1
953.6276	2249.3271	1197.15	315.45
953.7611	2250.7943	1197.7	314
953.8945	2252.2608	1197.2	313.15
954.0279	2253.7266	1197.1	316.25
954.1612	2255.1917	1200.55	316.65
954.2946	2256.656	1195.45	309.25
954.4279	2258.1197	1188.3	305.15
954.5612	2259.5826	1193.6	309.25
954.6944	2261.0447	1196.65	311.75
954.8276	2262.5062	1192.75	308.9
954.9608	2263.9669	1192.25	308.45
955.094	2265.4269	1190.95	311.4
955.2271	2266.8862	1186.9	304.25
955.3602	2268.3448	1190.45	306.15
955.4933	2269.8026	1183.2	300.05
955.6264	2271.2598	1183.65	299.5
955.7594	2272.7162	1184.05	304.2
955.8924	2274.1719	1183.75	302.85
956.0253	2275.6268	1188.65	306.85
956.1583	2277.0811	1182.6	300.3
956.2912	2278.5346	1178	296.1
956.4241	2279.9874	1178.95	297
956.5569	2281.4395	1184.35	302.7
956.6897	2282.8908	1188.7	301.7
956.8225	2284.3414	1180	295.1
956.9553	2285.7914	1177.35	295.9
957.088	2287.2406	1180.3	296.2
957.2207	2288.689	1176.55	293.85
957.3534	2290.1368	1182.85	299.4
957.486	2291.5838	1176.8	293.75
957.6186	2293.0302	1174.85	289.05
957.7512	2294.4758	1172.2	290.9
957.8838	2295.9206	1174.25	288.35
958.0163	2297.3648	1170.55	286.6
958.1488	2298.8082	1174.1	290.4
958.2813	2300.251	1170.85	289.05
958.4137	2301.693	1171	286
958.5461	2303.1343	1165.75	283.25
958.6785	2304.5748	1172.1	288.8
958.8108	2306.0147	1164.75	282.8
958.9432	2307.4538	1164.9	280.25
959.0754	2308.8922	1165.85	285.15
959.2077	2310.3299	1166.35	283.85
959.3399	2311.7669	1160.8	277.7
959.4721	2313.2031	1159.35	277.8
959.6043	2314.6387	1160.15	276.5
959.7365	2316.0735	1159.1	276.65
959.8686	2317.5076	1159.1	275.9
960.0006	2318.941	1161.2	280.8
960.1327	2320.3737	1161.95	278.6
960.2647	2321.8056	1158.75	271.75
960.3967	2323.2369	1153.85	268.05
960.5287	2324.6674	1161.4	278
960.6606	2326.0972	1160.3	275.55
960.7925	2327.5263	1157.65	275.05
960.9244	2328.9547	1157.7	275.9
961.0562	2330.3823	1155.55	272.85
961.1881	2331.8092	1164.65	278.5
961.3198	2333.2355	1152.7	268.3
961.4516	2334.661	1150.55	266.8
961.5833	2336.0858	1151.8	267.9
961.715	2337.5098	1147.9	265.3
961.8467	2338.9332	1150.85	267.2
961.9783	2340.3558	1153.35	265.8
962.1099	2341.7778	1145.4	259.9
962.2415	2343.199	1151.15	266.7
962.373	2344.6195	1146.2	263.15
962.5045	2346.0393	1145.65	263.15
962.636	2347.4583	1146.2	263.1
962.7675	2348.8767	1137.95	253.25
962.8989	2350.2943	1141.75	257.7
963.0303	2351.7113	1139.5	253.95
963.1617	2353.1275	1137.9	254.4
963.293	2354.543	1162.6	255.3
963.4243	2355.9578	1137.45	253.5
963.5556	2357.3718	1130.35	247.25
963.6868	2358.7852	1139.3	253.55
963.818	2360.1978	1132.3	247.4
963.9492	2361.6098	1133.1	250.95
964.0803	2363.021	1142.15	253.95
964.2114	2364.4315	1136.5	254.3
964.3425	2365.8413	1136.55	248.3
964.4736	2367.2504	1134.65	252.65
964.6046	2368.6587	1133.5	252.5
964.7356	2370.0664	1130.75	245.15
964.8666	2371.4733	1129.05	244.9
964.9975	2372.8795	1131.95	248.9
965.1284	2374.285	1129.45	246.5
965.2593	2375.6899	1126.8	243.7
965.3901	2377.0939	1121.8	237.75
965.5209	2378.4973	1122.35	241.7
965.6517	2379.9	1122.55	240.25
965.7825	2381.3019	1127.65	244.65
965.9132	2382.7032	1123.8	239.5
966.0439	2384.1037	1118.05	237.1
966.1745	2385.5035	1118.65	235.75
966.3051	2386.9027	1123.4	241.5
966.4357	2388.3011	1121.3	235.35
966.5663	2389.6987	1119.75	235.95
966.6968	2391.0957	1115.9	233.2
966.8273	2392.492	1117.55	236.05
966.9578	2393.8876	1116.8	233.6
967.0882	2395.2824	1117.1	235.55
967.2186	2396.6765	1113.75	231.1
967.349	2398.07	1108.15	225.85
967.4793	2399.4627	1108.65	224.45
967.6097	2400.8547	1102.7	218.45
967.7399	2402.246	1116.05	225
967.8702	2403.6366	1105.2	221.15
968.0004	2405.0265	1104.2	221.45
968.1306	2406.4156	1111	222.3
968.2607	2407.8041	1106.1	220.45
968.3909	2409.1918	1104	219.8
968.521	2410.5789	1103.85	219.8
968.651	2411.9652	1099.25	210.85
968.781	2413.3508	1100.75	215.75
968.911	2414.7358	1104.7	221.3
969.041	2416.12	1100.3	216.8
969.1709	2417.5035	1095.95	213.8
969.3008	2418.8863	1099.45	214.1
969.4307	2420.2684	1099.1	216.65
969.5606	2421.6497	1097.75	214.3
969.6904	2423.0304	1095.2	213.05
969.8201	2424.4104	1095.4	210.25
969.9499	2425.7896	1098.3	212.4
970.0796	2427.1682	1094.8	211.6
970.2093	2428.546	1091.05	207.15
970.3389	2429.9232	1093.65	211.55
970.4685	2431.2996	1090.7	207.2
970.5981	2432.6753	1090.1	206.85
970.7277	2434.0503	1088.15	205.55
970.8572	2435.4246	1089.4	206.3
970.9867	2436.7982	1090.35	204.2
971.1161	2438.1711	1088.5	205.95
971.2456	2439.5433	1093.75	210.45
971.375	2440.9148	1091.4	203.85
971.5043	2442.2856	1085.05	201.35
971.6336	2443.6557	1089.25	205.6
971.7629	2445.025	1083.6	200.6
971.8922	2446.3937	1088.75	203.85
972.0214	2447.7617	1085.35	201.9
972.1506	2449.1289	1082.45	198.1
972.2798	2450.4955	1084.65	198.3
972.4089	2451.8613	1085.5	203.8
972.538	2453.2265	1078.65	194.5
972.6671	2454.5909	1082.2	198.9
972.7961	2455.9546	1081	197
972.9251	2457.3177	1079.75	197.25
973.0541	2458.68	1081.35	196.05
973.1831	2460.0416	1079.2	196.85
973.312	2461.4025	1080.6	194.65
973.4408	2462.7627	1087.25	191.45
973.5697	2464.1222	1075.85	194.6
973.6985	2465.4811	1072.9	189.35
973.8273	2466.8392	1075	190.05
973.956	2468.1966	1080.75	197.15
974.0847	2469.5533	1077.1	188.4
974.2134	2470.9093	1068.75	184.5
974.3421	2472.2645	1073.55	188.65
974.4707	2473.6191	1072	187.45
974.5993	2474.973	1076.8	194.15
974.7278	2476.3262	1073.25	187.1
974.8563	2477.6787	1071.9	189.45
974.9848	2479.0305	1069.8	186.15
975.1132	2480.3816	1068.3	182.25
975.2417	2481.7319	1067.75	185
975.37	2483.0816	1070.55	185.6
975.4984	2484.4306	1065.5	182.25
975.6267	2485.7789	1063.9	179.9
975.755	2487.1264	1068.95	185.15
975.8833	2488.4733	1062.65	179.45
976.0115	2489.8195	1083.95	183.5
976.1397	2491.165	1066.15	179.6
976.2678	2492.5097	1062.9	179.65
976.3959	2493.8538	1062.8	177.8
976.524	2495.1972	1060.5	177.65
976.6521	2496.5398	1062.75	177.8
976.7801	2497.8818	1062.1	176.65
976.9081	2499.2231	1062.5	179.3
977.036	2500.5637	1063.9	176.35
977.164	2501.9035	1058.85	175.3
977.2918	2503.2427	1064.15	176.25
977.4197	2504.5812	1056.4	173.25
977.5475	2505.919	1056.5	173.7
977.6753	2507.256	1058.2	174
977.8031	2508.5924	1056.25	173.75
977.9308	2509.9281	1061.35	172.6
978.0585	2511.2631	1053.3	170.75
978.1861	2512.5974	1054.25	171.25
978.3137	2513.9309	1057.95	174
978.4413	2515.2638	1081.25	170.3
978.5689	2516.596	1051.85	169.6
978.6964	2517.9275	1053.4	170.35
978.8239	2519.2583	1053.5	169.45
978.9513	2520.5884	1049.95	164.5
979.0788	2521.9178	1049.5	165.9
979.2062	2523.2465	1050.6	168.85
979.3335	2524.5745	1046.15	161.9
979.4608	2525.9018	1049.6	167.65
979.5881	2527.2284	1047.1	166.75
979.7154	2528.5543	1045.95	161.65
979.8426	2529.8796	1044.8	160.85
979.9698	2531.2041	1047.8	162.1
980.0969	2532.5279	1050.3	168.05
980.224	2533.851	1046.65	162.65
980.3511	2535.1735	1042	157.65
980.4781	2536.4952	1043.5	163.25
980.6052	2537.8163	1044.35	161.2
980.7321	2539.1366	1039.6	158.15
980.8591	2540.4562	1041.55	155.8
980.986	2541.7752	1042	160.95
981.1129	2543.0935	1041.15	157.65
981.2397	2544.411	1046	159.85
981.3665	2545.7279	1040.95	158
981.4933	2547.0441	1038.4	155.45
981.62	2548.3596	1041.9	156
981.7467	2549.6744	1038.05	156.25
981.8734	2550.9885	1039.1	152.15
982.0001	2552.3019	1036.45	153.95
982.1267	2553.6146	1040.3	157.05
982.2532	2554.9266	1035.5	151.75
982.3798	2556.2379	1036.85	152.45
982.5063	2557.5485	1038.5	155.4
982.6327	2558.8585	1045.95	156.4
982.7592	2560.1677	1038.45	151.15
982.8856	2561.4762	1035.4	151.7
983.0119	2562.7841	1035.1	148.8
983.1383	2564.0913	1033.65	151.7
983.2646	2565.3977	1030.6	148.1
983.3908	2566.7035	1032.65	148.85
983.517	2568.0086	1035.25	150.8
983.6432	2569.313	1036.45	153.6
983.7694	2570.6167	1038.65	151
983.8955	2571.9197	1031	148.25
984.0216	2573.222	1034.55	148.25
984.1476	2574.5236	1027.85	141.95
984.2737	2575.8246	1031.75	145.3
984.3996	2577.1248	1032.8	144.2
984.5256	2578.4244	1026.15	143.45
984.6515	2579.7232	1026	144
984.7774	2581.0214	1060.25	145.85
984.9032	2582.3189	1028.6	145.05
985.029	2583.6157	1040.95	143.15
985.1548	2584.9118	1026.7	143.7
985.2806	2586.2072	1023.85	140.65
985.4063	2587.5019	1021.35	138.8
985.5319	2588.7959	1030.55	145.6
985.6576	2590.0893	1028.8	144.4
985.7832	2591.3819	1026.35	142.55
985.9087	2592.6739	1027.3	145
986.0343	2593.9652	1022.8	137.2
986.1597	2595.2557	1027	144.15
986.2852	2596.5456	1025.3	139.6
986.4106	2597.8348	1022.4	139.9
986.536	2599.1234	1022.75	140.2
986.6614	2600.4112	1022	138.7
986.7867	2601.6983	1024.05	137.6
986.912	2602.9848	1024.95	142.4
987.0372	2604.2705	1028.1	135.9
987.1624	2605.5556	1021.9	138.45
987.2876	2606.84	1020.4	137.85
987.4128	2608.1237	1020.4	136.45
987.5379	2609.4067	1018.6	136.1
987.6629	2610.689	1023	130.65
987.788	2611.9707	1023	137.25
987.913	2613.2516	1023.2	136.45
988.0379	2614.5319	1017.45	134.55
988.1629	2615.8115	1013.55	129.65
988.2878	2617.0903	1016.55	133.1
988.4126	2618.3685	1016.5	133.3
988.5375	2619.6461	1015.4	132.2
988.6622	2620.9229	1016.55	133.7
988.787	2622.199	1013.5	129.85
988.9117	2623.4745	1013.3	128.15
989.0364	2624.7493	1008.9	125.65
989.161	2626.0234	1008.6	124.65
989.2857	2627.2968	1011.7	129.4
989.4102	2628.5695	1006.35	120.5
989.5348	2629.8415	1010.2	129.1
989.6593	2631.1128	1013.15	128.85
989.7837	2632.3835	1011.75	129.65
989.9082	2633.6535	1008.35	124.25
990.0326	2634.9228	1008.2	126.4
990.1569	2636.1914	1008.7	123.65
990.2812	2637.4593	1006.5	124.4
990.4055	2638.7265	1008.55	125.8
990.5298	2639.9931	1007.65	124.75
990.654	2641.259	1004.55	117.95
990.7782	2642.5242	1006.05	121.7
990.9023	2643.7887	1003.25	117.9
991.0264	2645.0525	1001.65	119.15
991.1505	2646.3156	1019.35	120.75
991.2745	2647.5781	1001.7	120.5
991.3985	2648.8398	998.85	115.9
991.5225	2650.1009	1030	123.95
991.6464	2651.3613	997.6	115.9
991.7703	2652.6211	999.85	116.8
991.8942	2653.8801	1003	122.15
992.018	2655.1385	1001.25	115.95
992.1418	2656.3961	999.85	117.7
992.2655	2657.6531	998.4	115.6
992.3892	2658.9094	1000.75	117.65
992.5129	2660.1651	998.9	117.9
992.6366	2661.42	999.85	117.5
992.7602	2662.6743	996.9	112.85
992.8837	2663.9279	997.65	114.75
993.0073	2665.1808	996	113.95
993.1307	2666.433	1001.25	117.5
993.2542	2667.6846	994.55	113.6
993.3776	2668.9354	993.8	107.85
993.501	2670.1856	995.2	111.1
993.6244	2671.4351	995.7	114.1
993.7477	2672.6839	998.4	113.35
993.8709	2673.9321	998	114.4
993.9942	2675.1795	995.65	111.25
994.1174	2676.4263	999.85	119.6
994.2405	2677.6724	993.95	110.8
994.3637	2678.9179	996.15	112.35
994.4868	2680.1626	993.55	112.9
994.6098	2681.4067	995.75	112.6
994.7328	2682.6501	994.9	112.75
994.8558	2683.8928	993.95	109.05
994.9788	2685.1348	991.15	108.65
995.1017	2686.3761	991.85	110.35
995.2245	2687.6168	993.7	111.15
995.3474	2688.8568	992.5	109
995.4702	2690.0961	989.65	108.4
995.5929	2691.3348	988.05	105.3
995.7156	2692.5727	993.15	110.9
995.8383	2693.81	989.9	105.75
995.961	2695.0466	982.45	103.35
996.0836	2696.2826	990.2	107.2
996.2062	2697.5178	988.45	102.85
996.3287	2698.7524	987.35	104.75
996.4512	2699.9863	992.05	106.5
996.5737	2701.2195	982	99.3
996.6961	2702.452	987.2	103
996.8185	2703.6839	989.4	105.7
996.9408	2704.9151	986.85	104.7
997.0631	2706.1456	982.65	98.7
997.1854	2707.3755	986.7	103.35
997.3077	2708.6046	987.2	101.1
997.4299	2709.8331	985.75	102.3
997.552	2711.0609	985.25	102.1
997.6742	2712.2881	989.1	103.95
997.7963	2713.5145	986.1	101.2
997.9183	2714.7403	985.3	104.35
998.0403	2715.9654	984.7	99.35
998.1623	2717.1899	1000.1	106.1
998.2842	2718.4136	984	101.6
998.4062	2719.6367	987.8	103.5
998.528	2720.8591	996.7	106.7
998.6498	2722.0809	985.25	101.5
998.7716	2723.3019	990.35	104.85
998.8934	2724.5223	992.25	108.55
999.0151	2725.7421	988.95	104.45
999.1368	2726.9611	991.8	106.8
999.2584	2728.1795	989.9	101.65
999.38	2729.3972	983.85	101.65
999.5016	2730.6142	990.7	98.95
999.6231	2731.8306	983.2	99.25
999.7446	2733.0462	983.5	98.25
999.8661	2734.2612	982.2	93.9
999.9875	2735.4756	981.1	97.25
1000.1089	2736.6892	981.2	96.95
1000.2302	2737.9022	976.45	93.35
1000.3515	2739.1145	976.3	93.2
1000.4728	2740.3262	984.65	92.75
1000.594	2741.5372	975.65	93.7
1000.7152	2742.7475	976.45	93.2
1000.8363	2743.9571	980.75	96.5
1000.9575	2745.1661	978.1	90.55
1001.0785	2746.3744	975.2	91.8
1001.1996	2747.582	971.65	87.35
1001.3206	2748.7889	972.75	90.25
1001.4415	2749.9952	970.85	87.3
1001.5625	2751.2008	972.75	89.8
1001.6833	2752.4057	970.9	84.3
1001.8042	2753.61	970.2	84.7
1001.925	2754.8136	970.5	85.4
1002.0458	2756.0165	968.55	85.7
1002.1665	2757.2188	967.5	86.4
1002.2872	2758.4204	965.25	84.25
1002.4078	2759.6213	971.05	87.1
1002.5285	2760.8215	971	84.35
1002.649	2762.0211	972.75	88.4
1002.7696	2763.22	971.75	85.6
1002.8901	2764.4182	966.95	83.05
1003.0106	2765.6158	968.4	84.65
1003.131	2766.8127	965.85	81.15
1003.2514	2768.009	962.5	78.1
1003.3717	2769.2045	964.95	81.25
1003.492	2770.3994	963.75	79.3
1003.6123	2771.5936	962.6	79.7
1003.7325	2772.7872	962.05	79.35
1003.8527	2773.9801	965.45	79.25
1003.9729	2775.1723	981.45	82.05
1004.093	2776.3639	962.9	80.8
1004.2131	2777.5548	966	80.5
1004.3331	2778.745	965.15	81.35
1004.4531	2779.9346	961.6	78.65
1004.5731	2781.1235	964.1	81.8
1004.693	2782.3117	956.7	72.9
1004.8129	2783.4992	959.65	77.75
1004.9328	2784.6861	963.05	79.4
1005.0526	2785.8723	961.75	77.35
1005.1723	2787.0579	963.15	79.3
1005.2921	2788.2428	963.7	80.9
1005.4118	2789.427	955.9	73.25
1005.5314	2790.6106	959.4	75.6
1005.651	2791.7935	958	73.25
1005.7706	2792.9757	956	74.3
1005.8902	2794.1573	962.65	77.9
1006.0097	2795.3382	961.75	79.45
1006.1291	2796.5184	958.05	75.4
1006.2485	2797.698	959.25	73.4
1006.3679	2798.8769	960.55	77.3
1006.4873	2800.0551	960.05	76.7
1006.6066	2801.2327	959.95	75.2
1006.7258	2802.4096	959.45	76
1006.8451	2803.5859	958.6	75.05
1006.9642	2804.7615	960.25	76.75
1007.0834	2805.9364	958.75	76.4
1007.2025	2807.1106	956.65	75.25
1007.3216	2808.2842	960	77.2
1007.4406	2809.4572	959.95	77.65
1007.5596	2810.6294	962.5	78.25
1007.6785	2811.801	964.55	80.15
1007.7975	2812.972	963.35	82.5
1007.9163	2814.1423	965	81
1008.0352	2815.3119	967.45	83
1008.154	2816.4808	964.25	83.05
1008.2727	2817.6491	970.4	87.05
1008.3914	2818.8167	969.5	86.85
1008.5101	2819.9837	980.8	94.4
1008.6288	2821.15	978.4	95.9
1008.7474	2822.3157	979.4	96.5
1008.8659	2823.4807	984.85	102.2
1008.9844	2824.645	992.95	107.7
1009.1029	2825.8086	994.85	113.45
1009.2214	2826.9716	1000	117.55
1009.3398	2828.134	1007.45	125.4
1009.4581	2829.2957	1009.8	126.05
1009.5764	2830.4567	1015.85	136.45
1009.6947	2831.617	1019.45	136.95
1009.813	2832.7767	1022.85	140.35
1009.9312	2833.9358	1020.85	139.85
1010.0493	2835.0941	1023.8	139.7
1010.1675	2836.2519	1021.65	139.3
1010.2855	2837.4089	1019.4	136.15
1010.4036	2838.5653	1015.1	130.85
1010.5216	2839.7211	1012.35	129.95
1010.6396	2840.8761	1014.15	131
1010.7575	2842.0306	1004.3	121.55
1010.8754	2843.1843	1009.05	126.2
1010.9932	2844.3374	1007.35	127.35
1011.111	2845.4899	1010.55	128.45
1011.2288	2846.6417	1009.1	125.45
1011.3465	2847.7928	1009.7	126.75
1011.4642	2848.9433	1012.3	129.65
1011.5818	2850.0931	1015.55	131.8
1011.6995	2851.2422	1014.95	128.6
1011.817	2852.3907	1015.45	130.95
1011.9345	2853.5385	1016.9	133.15
1012.052	2854.6857	1025.85	134.55
1012.1695	2855.8323	1016.5	135.95
1012.2869	2856.9781	1021.55	138.7
1012.4042	2858.1233	1017.85	137.45
1012.5216	2859.2679	1021.75	138.4
1012.6389	2860.4118	1031.9	147.9
1012.7561	2861.555	1034.65	147.55
1012.8733	2862.6976	1029.95	145.25
1012.9905	2863.8395	1030.55	150.6
1013.1076	2864.9808	1031.7	149
1013.2247	2866.1214	1033.6	151.3
1013.3417	2867.2614	1036.4	153.8
1013.4587	2868.4007	1039	153.4
1013.5757	2869.5393	1040.05	156.55
1013.6926	2870.6773	1043.25	159.15
1013.8095	2871.8146	1045.6	161.7
1013.9263	2872.9513	1042.9	159.1
1014.0431	2874.0874	1041.15	157.25
1014.1599	2875.2227	1041.45	158.25
1014.2766	2876.3574	1045.45	163.3
1014.3933	2877.4915	1049.6	167.65
1014.51	2878.6249	1043.7	163.2
1014.6266	2879.7577	1053.45	170.65
1014.7431	2880.8898	1059.35	167.2
1014.8596	2882.0212	1056.15	173.2
1014.9761	2883.152	1060.8	179.75
1015.0925	2884.2821	1059.2	176.15
1015.2089	2885.4116	1057.6	175.15
1015.3253	2886.5405	1056.6	173.4
1015.4416	2887.6686	1063.95	179.05
1015.5579	2888.7962	1059.9	178.45
1015.6741	2889.923	1056.95	175.1
1015.7903	2891.0493	1058.55	174.95
1015.9065	2892.1748	1061.05	179.1
1016.0226	2893.2997	1061.3	177.65
1016.1387	2894.424	1057.2	174.55
1016.2547	2895.5476	1058.75	175.2
1016.3707	2896.6706	1056.45	173.2
1016.4866	2897.7929	1056.75	175.7
1016.6025	2898.9145	1060.7	175.7
1016.7184	2900.0355	1060.3	175.45
1016.8342	2901.1559	1062	178.3
1016.95	2902.2756	1060.65	174.55
1017.0658	2903.3946	1055.6	171.65
1017.1815	2904.513	1060.05	173.8
1017.2971	2905.6308	1056.85	173.05
1017.4127	2906.7479	1059.8	177.75
1017.5283	2907.8643	1054.55	169.15
1017.6439	2908.9801	1055.45	172.25
1017.7594	2910.0953	1056.55	174.95
1017.8748	2911.2098	1056.7	171.25
1017.9902	2912.3236	1063.35	170.05
1018.1056	2913.4368	1063.2	175.7
1018.2209	2914.5494	1052.05	168.25
1018.3362	2915.6613	1058.2	169.2
1018.4515	2916.7725	1051.65	164.4
1018.5667	2917.8831	1049.05	165.9
1018.6819	2918.9931	1048.6	163.15
1018.797	2920.1024	1045.9	161.3
1018.9121	2921.211	1041.75	159.9
1019.0271	2922.319	1042.25	157.75
1019.1421	2923.4264	1040.8	159.2
1019.2571	2924.5331	1036.05	155.3
1019.372	2925.6391	1034.65	152.15
1019.4869	2926.7445	1035.9	157.1
1019.6017	2927.8493	1040.05	155.3
1019.7165	2928.9534	1036.9	155.6
1019.8313	2930.0569	1039.25	154
1019.946	2931.1597	1034.4	147.85
1020.0606	2932.2619	1039.25	159.05
1020.1753	2933.3634	1040.15	155.7
1020.2899	2934.4643	1048.75	159.55
1020.4044	2935.5645	1052.45	162.45
1020.5189	2936.6641	1043.5	154.9
1020.6334	2937.763	1039.45	157.8
1020.7478	2938.8613	1039.2	157.2
1020.8622	2939.959	1048.6	160.45
1020.9765	2941.056	1037.15	155.75
1021.0908	2942.1523	1036.45	150.3
1021.2051	2943.248	1029.9	145.9
1021.3193	2944.3431	1026.4	143.9
1021.4334	2945.4375	1017.25	132
1021.5476	2946.5313	1011.75	128.7
1021.6617	2947.6244	1005.15	122.85
1021.7757	2948.7169	999.95	117.95
1021.8897	2949.8087	996.7	114.25
1022.0037	2950.8999	992.85	108.85
1022.1176	2951.9904	988.1	109.15
1022.2315	2953.0803	985.5	101.7
1022.3453	2954.1696	980.8	99.3
1022.4591	2955.2582	973.75	90.75
1022.5728	2956.3462	976.9	94.85
1022.6865	2957.4335	972.75	89.3
1022.8002	2958.5202	974.7	89.1
1022.9138	2959.6062	974.7	91.2
1023.0274	2960.6916	972.15	91.55
1023.141	2961.7764	973.4	89.95
1023.2545	2962.8605	975	93.6
1023.3679	2963.9439	973.15	89.85
1023.4813	2965.0267	971	87.75
1023.5947	2966.1089	993.25	87.05
1023.708	2967.1905	969.75	85.95
1023.8213	2968.2714	964.8	81.75
1023.9346	2969.3516	967.15	84.3
1024.0478	2970.4312	974.35	83.45
1024.1609	2971.5102	967.15	83.95
1024.274	2972.5885	966	83.2
1024.3871	2973.6662	974.15	86.65
1024.5002	2974.7432	968.45	87.2
1024.6132	2975.8196	967.25	84.75
1024.7261	2976.8954	965.9	86.05
1024.839	2977.9705	969.05	84.65
1024.9519	2979.045	967.85	86.6
1025.0647	2980.1188	967.35	83.6
1025.1775	2981.192	964.15	82.8
1025.2902	2982.2645	967.85	82.75
1025.4029	2983.3364	965.65	82.3
1025.5156	2984.4077	964.7	81.7
1025.6282	2985.4783	963.3	76.4
1025.7407	2986.5483	955.5	72.55
1025.8532	2987.6177	957	75.25
1025.9657	2988.6864	956	74.8
1026.0782	2989.7545	953.6	67.6
1026.1906	2990.8219	952.4	68.6
1026.3029	2991.8887	951.05	67.2
1026.4152	2992.9548	954.35	72.35
1026.5275	2994.0204	944.9	62.65
1026.6397	2995.0852	939.2	57.5
1026.7519	2996.1495	940.75	58.25
1026.864	2997.2131	939.55	56.3
1026.9761	2998.276	936.95	54.65
1027.0882	2999.3383	935	48.7
1027.2002	3000.4	935.7	51.25
1027.3122	3001.4611	931.1	47.9
1027.4241	3002.5215	930.2	46.4
1027.536	3003.5812	929.6	48.95
1027.6478	3004.6404	929.35	45.75
1027.7596	3005.6989	932.95	48.7
1027.8714	3006.7567	927.65	44.1
1027.9831	3007.8139	947.65	44.2
1028.0947	3008.8705	928.7	45.3
1028.2064	3009.9264	942.8	42.75
1028.3179	3010.9818	926.85	44.25
1028.4295	3012.0364	922.45	40.6
1028.541	3013.0905	922.1	39.15
1028.6524	3014.1439	922.5	38.35
1028.7638	3015.1966	922	41
1028.8752	3016.2487	924.05	39.8
1028.9865	3017.3002	927.3	40.5
1029.0978	3018.3511	921.3	39.8
1029.209	3019.4013	922.8	40.85
1029.3202	3020.4509	920.8	37.9
1029.4314	3021.4998	921.55	38.7
1029.5425	3022.5481	924.05	43.4
1029.6535	3023.5958	923.55	41.4
1029.7645	3024.6428	922.5	40.5
1029.8755	3025.6892	921.2	38.15
1029.9864	3026.735	922.8	39.85
1030.0973	3027.7802	921.2	39
1030.2082	3028.8247	919	36.35
1030.319	3029.8685	920.85	36.75
1030.4297	3030.9118	920.95	36.65
1030.5404	3031.9544	917.4	35.2
1030.6511	3032.9963	919.95	38.45
1030.7617	3034.0376	918	35.6
1030.8723	3035.0783	923.4	37.55
1030.9829	3036.1184	922.15	40.2
1031.0934	3037.1578	920.15	38.9
1031.2038	3038.1966	921.75	39.3
1031.3142	3039.2348	919.25	37.55
1031.4246	3040.2723	927.95	36.05
1031.5349	3041.3092	920.1	39.2
1031.6452	3042.3455	919.25	35.95
1031.7554	3043.3811	919.25	37.05
1031.8656	3044.4161	920	37.1
1031.9758	3045.4505	917.2	36.95
1032.0859	3046.4842	916.95	32.45
1032.1959	3047.5173	919.55	37.05
1032.3059	3048.5498	916.8	33.35
1032.4159	3049.5816	918.6	35.45
1032.5258	3050.6128	918.95	35.15
1032.6357	3051.6434	919.3	35
1032.7455	3052.6734	920.2	35.2
1032.8553	3053.7027	917.55	35
1032.9651	3054.7314	920.85	41.8
1033.0748	3055.7594	916.5	35.25
1033.1845	3056.7868	920.55	35.5
1033.2941	3057.8136	917.7	36.25
1033.4037	3058.8398	917.25	35.8
1033.5132	3059.8653	918.4	35.65
1033.6227	3060.8902	919.65	35.2
1033.7321	3061.9145	920.2	38.2
1033.8415	3062.9381	920.9	37.75
1033.9509	3063.9612	935	36.1
1034.0602	3064.9835	920.75	39
1034.1694	3066.0053	921.4	36.35
1034.2787	3067.0264	920.25	39.45
1034.3878	3068.0469	921.45	37.8
1034.497	3069.0668	922.95	37.25
1034.6061	3070.086	922.1	40.35
1034.7151	3071.1046	920.7	36.2
1034.8241	3072.1226	919.5	36
1034.9331	3073.1399	918.5	36.2
1035.042	3074.1567	918.05	34.25
1035.1508	3075.1727	919.45	35.5
1035.2597	3076.1882	918.45	34.6
1035.3684	3077.203	918.35	36.05
1035.4772	3078.2173	918.15	34.5
1035.5859	3079.2308	917.95	33.85
1035.6945	3080.2438	917.95	32.55
1035.8031	3081.2561	915.05	30.3
1035.9117	3082.2678	915.65	31.7
1036.0202	3083.2789	913.55	29.5
1036.1286	3084.2893	912.55	30.35
1036.2371	3085.2991	911.1	29.4
1036.3454	3086.3083	918.2	30.65
1036.4538	3087.3169	912.45	27.7
1036.562	3088.3248	914.15	31.3
1036.6703	3089.3321	910.8	24.7
1036.7785	3090.3388	911.15	29.5
1036.8866	3091.3449	911.3	27.8
1036.9948	3092.3503	912.6	28
1037.1028	3093.3551	910.65	29.3
1037.2108	3094.3593	909.65	28.5
1037.3188	3095.3629	908.35	24.25
1037.4267	3096.3658	910.5	27.85
1037.5346	3097.3681	906.85	23.4
1037.6425	3098.3698	913.65	30.2
1037.7503	3099.3708	915.05	23.15
1037.858	3100.3713	907.95	28
1037.9657	3101.3711	910.6	28.1
1038.0734	3102.3702	1041	26.55
1038.181	3103.3688	909.8	24.4
1038.2886	3104.3667	906.1	23.85
1038.3961	3105.364	907.05	24.45
1038.5036	3106.3607	910.8	26.6
1038.611	3107.3568	909.25	25
1038.7184	3108.3522	908.9	27.45
1038.8257	3109.347	909.2	24.85
1038.933	3110.3412	910.2	23.4
1039.0403	3111.3348	905.5	23.8
1039.1475	3112.3277	906.35	22.8
1039.2547	3113.32	906.7	26.85
1039.3618	3114.3117	906.9	20.6
1039.4689	3115.3028	905.8	23.4
1039.5759	3116.2932	906.5	23.6
1039.6829	3117.2831	912.15	23.4
1039.7898	3118.2723	904.7	22.8
1039.8967	3119.2608	902.95	21.6
1040.0035	3120.2488	904.15	21.25
1040.1103	3121.2361	903.85	19.25
1040.2171	3122.2229	902.8	20.95
1040.3238	3123.209	905.85	21.2
1040.4305	3124.1944	905.5	24.65
1040.5371	3125.1793	904.85	19.8
1040.6437	3126.1635	903.75	23.1
1040.7502	3127.1471	905	22.6
1040.8567	3128.1301	906	24.8
1040.9631	3129.1125	904.2	22.5
1041.0695	3130.0942	902.55	19.6
1041.1759	3131.0753	910.15	16.5
1041.2822	3132.0558	905.95	20.6
1041.3884	3133.0357	901.85	18.6
1041.4946	3134.015	903.8	19.6
1041.6008	3134.9936	904.35	20.75
1041.7069	3135.9716	925.1	19.8
1041.813	3136.949	902.85	19.3
1041.919	3137.9258	921	21.1
1042.025	3138.902	907.45	19.1
1042.1309	3139.8775	902.2	20.45
1042.2368	3140.8524	903.35	18.1
1042.3427	3141.8267	904.5	19.75
1042.4485	3142.8004	902.15	20.6
1042.5542	3143.7735	910.1	20.3
1042.6599	3144.7459	903	18.7
1042.7656	3145.7178	903.65	21.75
1042.8712	3146.689	898.9	18.8
1042.9768	3147.6596	901.15	16.95
1043.0823	3148.6295	900.8	18.65
1043.1878	3149.5989	900.5	16.85
1043.2932	3150.5676	901.3	20.25
1043.3986	3151.5357	900.35	19.15
1043.5039	3152.5032	899.2	16.35
1043.6092	3153.4701	903.15	22
1043.7145	3154.4364	902.7	16.35
1043.8197	3155.402	900.3	21.35
1043.9248	3156.367	902.55	18.15
1044.03	3157.3315	935.95	18.65
1044.135	3158.2952	902.35	20.5
1044.24	3159.2584	898.2	15.05
1044.345	3160.221	900.95	17.95
1044.4499	3161.1829	899.65	16.6
1044.5548	3162.1442	898.8	16
1044.6596	3163.105	899.95	16.45
1044.7644	3164.065	901.45	19.2
1044.8692	3165.0245	901.45	15.9
1044.9739	3165.9834	898.05	19.05
1045.0785	3166.9416	898.7	17.7
1045.1831	3167.8993	899.6	16.55
1045.2877	3168.8563	899.9	17.4
1045.3922	3169.8127	898.8	17.35
1045.4966	3170.7684	900	17.4
1045.6011	3171.7236	901.45	18.35
1045.7054	3172.6782	899.45	16.75
1045.8098	3173.6321	899	15.05
1045.914	3174.5854	903.55	16
1046.0183	3175.5381	899.2	16.6
1046.1224	3176.4902	897.5	14.4
1046.2266	3177.4417	897.2	14.95
1046.3307	3178.3926	896.7	14.65
1046.4347	3179.3428	898.65	18.3
1046.5387	3180.2924	897.5	14.8
1046.6427	3181.2415	897.85	14.35
1046.7466	3182.1899	900.8	16.3
1046.8504	3183.1377	898.1	15.65
1046.9542	3184.0848	899.75	13.45
1047.058	3185.0314	897.7	15.4
1047.1617	3185.9773	901	17.6
1047.2654	3186.9227	898.95	14.6
1047.369	3187.8674	899.25	16.5
1047.4726	3188.8115	899.3	13.45
1047.5761	3189.755	898.3	17.55
1047.6796	3190.6979	898.35	15.35
1047.783	3191.6402	894.25	12.55
1047.8864	3192.5818	897.45	15.3
1047.9898	3193.5229	903.55	14.95
1048.0931	3194.4633	896.95	17.15
1048.1963	3195.4031	898.95	14
1048.2995	3196.3423	897.7	14.75
1048.4027	3197.2809	897.8	15.7
1048.5058	3198.2189	896.4	13.6
1048.6089	3199.1563	905.15	17.15
1048.7119	3200.0931	896	14.4
1048.8148	3201.0292	894.8	13.3
1048.9178	3201.9648	894.65	13.25
1049.0206	3202.8997	897.6	12.6
1049.1235	3203.834	895.45	12.25
1049.2262	3204.7677	896.65	12.7
1049.329	3205.7008	896.95	13.15
1049.4317	3206.6333	893.5	12.9
1049.5343	3207.5652	898.85	15.05
1049.6369	3208.4964	897.6	15.1
1049.7394	3209.4271	894	11.7
1049.8419	3210.3571	895.75	13.35
1049.9444	3211.2865	895.6	11.55
1050.0468	3212.2154	897.3	13.35
1050.1491	3213.1436	899.55	13
1050.2514	3214.0712	901.4	13.35
1050.3537	3214.9982	896.25	14
1050.4559	3215.9246	896.95	14.25
1050.5581	3216.8503	893.4	11.45
1050.6602	3217.7755	895.45	12.1
1050.7623	3218.7001	894.5	13.45
1050.8643	3219.624	896.75	14.05
1050.9663	3220.5473	894.7	13
1051.0682	3221.4701	897.5	13.95
1051.1701	3222.3922	896.05	12.1
1051.2719	3223.3137	895.45	13.45
1051.3737	3224.2346	893.45	10.9
1051.4754	3225.1549	891.2	9.05
1051.5771	3226.0746	894.35	12.85
1051.6788	3226.9937	894.85	11.15
1051.7804	3227.9121	895.25	14.5
1051.8819	3228.83	894.55	12.3
1051.9834	3229.7473	893.85	11.15
1052.0849	3230.6639	894.7	12.35
1052.1863	3231.5799	895.65	12.8
1052.2876	3232.4954	893.9	9.55
1052.3889	3233.4102	895.15	13.95
1052.4902	3234.3244	894.85	11.7
1052.5914	3235.238	893.55	11.7
1052.6926	3236.151	916.7	8.95
1052.7937	3237.0634	893.1	9.65
1052.8948	3237.9752	892.9	10.5
1052.9958	3238.8864	895.1	10.7
1053.0968	3239.797	893.4	11.1
1053.1977	3240.7069	894.3	12.45
1053.2986	3241.6163	897.6	13.15
1053.3994	3242.5251	892.3	9
1053.5002	3243.4332	893.8	11.6
1053.6009	3244.3408	892	8
1053.7016	3245.2477	893.7	10.55
1053.8022	3246.154	894	9.9
1053.9028	3247.0598	893.4	9.95
1054.0034	3247.9649	893.75	11.2
1054.1039	3248.8694	892.4	9.85
1054.2043	3249.7733	891.4	7.9
1054.3047	3250.6766	892.5	8.75
1054.4051	3251.5793	894.15	10.35
1054.5054	3252.4814	892.15	10.2
1054.6056	3253.3829	892.25	10.55
1054.7058	3254.2838	892.45	11.2
1054.806	3255.1841	891.95	10.05
1054.9061	3256.0838	893	14
1055.0061	3256.9829	891.9	9.35
1055.1062	3257.8814	895.8	11
1055.2061	3258.7792	894.65	9.25
1055.306	3259.6765	892.85	10.6
1055.4059	3260.5731	889.6	6.85
1055.5057	3261.4692	892.1	7.3
1055.6055	3262.3647	889.85	6.65
1055.7052	3263.2595	892	10.45
1055.8049	3264.1538	891.8	7.75
1055.9045	3265.0474	894.6	10.7
1056.0041	3265.9404	891.05	8.8
1056.1036	3266.8329	891.35	9.25
1056.2031	3267.7247	900.9	7.25
1056.3025	3268.616	890.4	8.35
1056.4019	3269.5066	890.2	8.35
1056.5013	3270.3966	894	10.5
1056.6005	3271.286	889.15	8
