Software Version:	3.9.2.0
Unit SN:	10000200
Spectrometer SN:	6960
Date:	3/26/2024 1:03:42 PM
Data Line Index:	25
Spectral Points:	2048
Integration time (ms):	125
Averages:	20
Delay (ms):	30000
Sequence Number:	1
Processing:	dark subtract
Laser Power (mW):	305
Laser Current (mA):	818
Laser Diode Temp (C):	25.1
Laser Case Temp (C):	25.8
System Temp (C):	25.7
Spectrometer Temp (C):	23.6
CCD Temp (C):	0.007
Secondary Temp (C):	20.007
Heatsink Temp (C):	21.572
CCDPCB Temp (C):	35.762
SecondaryPCB Temp (C):	29.849

Wavelength	RamanShift	Raw Counts	Dark Subtracted
787.061	30.1047	422.4	10.35
787.2016	32.3739	423	12.95
787.3422	34.6426	426.2	15.55
787.4828	36.9109	430.2	17.8
787.6235	39.1787	434.6	17.6
787.7642	41.4461	440.3	19.05
787.9049	43.7131	443.55	19.05
788.0456	45.9796	450.1	24.75
788.1863	48.2456	451.15	17.9
788.3271	50.5112	458.65	22.95
788.4679	52.7764	462.45	24.95
788.6087	55.0411	466.9	25.5
788.7496	57.3054	474.9	28.35
788.8904	59.5692	477.95	31.45
789.0313	61.8326	485.1	34
789.1722	64.0955	490.95	36.35
789.3132	66.3579	497.65	37.55
789.4541	68.6199	504.15	41.45
789.5951	70.8815	519.4	55.85
789.7361	73.1426	542.25	73.55
789.8771	75.4032	591.55	115.85
790.0181	77.6634	708.05	230.65
790.1592	79.9231	985.5	502.65
790.3003	82.1824	1573.7	1085.35
790.4414	84.4412	2562.05	2068.4
790.5825	86.6995	3894	3391
790.7237	88.9574	5219.45	4709.6
790.8648	91.2148	6189.1	5677
791.006	93.4717	6707.85	6190.75
791.1472	95.7282	6912.7	6391
791.2885	97.9842	6999.55	6476.8
791.4297	100.2398	6970.75	6445.35
791.571	102.4949	6954.7	6427.7
791.7123	104.7495	6930.25	6397.3
791.8536	107.0036	6898.65	6364.95
791.9949	109.2573	6840.65	6308.7
792.1363	111.5105	6778.5	6241
792.2777	113.7632	6730.65	6194.75
792.4191	116.0154	6666.85	6120.2
792.5605	118.2672	6621.65	6081.05
792.7019	120.5185	6555.7	6014.15
792.8434	122.7693	6490.95	5945.8
792.9849	125.0197	6432.4	5884.4
793.1264	127.2696	6367.1	5816.25
793.2679	129.519	6333.85	5779.45
793.4094	131.7679	6317.45	5762.35
793.551	134.0163	6298	5737.45
793.6926	136.2642	6272.25	5708.1
793.8342	138.5117	6279.1	5705
793.9758	140.7587	6266.15	5696.95
794.1175	143.0052	6249.1	5677.6
794.2591	145.2512	6206.8	5635.85
794.4008	147.4967	6150.65	5579.65
794.5425	149.7417	6102.55	5528.35
794.6842	151.9863	6079.6	5501.65
794.826	154.2304	6063.3	5480.95
794.9677	156.4739	6034.6	5445.6
795.1095	158.717	6031.7	5443.95
795.2513	160.9596	6021.45	5429.1
795.3931	163.2017	6051.9	5458.95
795.535	165.4433	6066	5470.45
795.6768	167.6844	6049.5	5450.6
795.8187	169.925	6030.15	5427.8
795.9606	172.1651	5976.2	5372.45
796.1025	174.4047	5946.9	5338.85
796.2445	176.6439	5895.5	5285.75
796.3864	178.8825	5869.25	5255.4
796.5284	181.1206	5863.85	5246.75
796.6704	183.3582	5847.95	5227.25
796.8124	185.5954	5826.95	5205.5
796.9544	187.832	5818.75	5192.9
797.0965	190.0681	5829.6	5202.75
797.2386	192.3037	5836.7	5205.25
797.3806	194.5388	5818.65	5186.1
797.5228	196.7734	5840.15	5202.75
797.6649	199.0075	5847.05	5205.1
797.807	201.2411	5854.25	5211.45
797.9492	203.4742	5868.9	5227.15
798.0914	205.7068	5892.8	5248.2
798.2336	207.9389	5898.05	5252.75
798.3758	210.1704	5921.55	5273.6
798.518	212.4015	5902.1	5248.45
798.6603	214.632	5912.95	5259.6
798.8025	216.862	5902.1	5257.75
798.9448	219.0915	5884.1	5245.75
799.0871	221.3205	5903	5268.75
799.2294	223.549	5897.15	5265.35
799.3718	225.777	5887.05	5255.9
799.5141	228.0044	5879.65	5241.6
799.6565	230.2314	5894.25	5263.2
799.7989	232.4578	5851.25	5218.45
799.9413	234.6837	5851.9	5210.6
800.0837	236.909	5847.85	5204.95
800.2262	239.1339	5835.6	5173.1
800.3687	241.3582	5822.25	5170.65
800.5111	243.582	5835.7	5155.9
800.6536	245.8053	5831.6	5162.1
800.7961	248.0281	5812.15	5148.6
800.9387	250.2503	5814.35	5143.45
801.0812	252.472	5820.2	5143.65
801.2238	254.6932	5819.65	5141.65
801.3664	256.9139	5804.4	5123.25
801.509	259.134	5796.25	5110.7
801.6516	261.3536	5826.1	5144.35
801.7942	263.5727	5840.65	5156.35
801.9369	265.7912	5859.65	5175.7
802.0795	268.0092	5893.5	5208.8
802.2222	270.2267	5929.15	5242.5
802.3649	272.4436	5973.45	5285.55
802.5076	274.6601	5991.65	5295.2
802.6504	276.8759	5997.75	5306.85
802.7931	279.0913	6003.8	5310.05
802.9359	281.3061	5993.1	5298.45
803.0787	283.5204	6026.45	5329.55
803.2215	285.7341	6052.8	5352.3
803.3643	287.9473	6087.4	5376.45
803.5071	290.16	6068.3	5360.8
803.6499	292.3721	6029.35	5326.1
803.7928	294.5837	5974.75	5273.85
803.9357	296.7947	5929	5228.95
804.0786	299.0052	5923.9	5220.3
804.2215	301.2152	5910.75	5203.5
804.3644	303.4246	5896.05	5193.45
804.5074	305.6334	5883.35	5180.2
804.6503	307.8418	5874.1	5166.45
804.7933	310.0495	5841.3	5132.8
804.9363	312.2568	5815.75	5108.25
805.0793	314.4635	5770.9	5062.1
805.2223	316.6696	5716.75	5008
805.3653	318.8752	5677.25	4957.65
805.5084	321.0802	5631.05	4921.6
805.6514	323.2847	5633.85	4917.6
805.7945	325.4887	5604.2	4890
805.9376	327.692	5601.65	4884.95
806.0807	329.8949	5630.75	4913.35
806.2238	332.0972	5659.6	4941.8
806.367	334.2989	5702.7	4979.7
806.5101	336.5001	5714.15	4991.5
806.6533	338.7007	5688.45	4965.9
806.7965	340.9008	5663.7	4937.7
806.9397	343.1003	5625.45	4898
807.0829	345.2992	5597.05	4868.9
807.2261	347.4976	5522.5	4791.8
807.3693	349.6955	5484.9	4751.3
807.5126	351.8927	5478.6	4742.7
807.6559	354.0895	5468.55	4721.25
807.7991	356.2856	5439.85	4702.85
807.9424	358.4812	5419.75	4683.75
808.0857	360.6763	5420.05	4683.4
808.2291	362.8707	5392.65	4653
808.3724	365.0646	5408.05	4664.45
808.5158	367.258	5393.45	4651.15
808.6591	369.4508	5400.35	4653.55
808.8025	371.643	5425.05	4681.9
808.9459	373.8346	5449.3	4701.3
809.0893	376.0257	5489.5	4736.7
809.2327	378.2162	5513.2	4761.45
809.3762	380.4062	5508.85	4752.5
809.5196	382.5956	5470.55	4713.55
809.6631	384.7844	5430.75	4673.95
809.8066	386.9726	5384.7	4626
809.9501	389.1603	5366.7	4608.5
810.0936	391.3474	5350.35	4550.55
810.2371	393.5339	5308.55	4550.7
810.3806	395.7199	5266.05	4512
810.5241	397.9052	5308.6	4558.1
810.6677	400.09	5324.35	4575.85
810.8113	402.2743	5350.7	4598.9
810.9548	404.4579	5361.5	4610.75
811.0984	406.641	5416.75	4667
811.2421	408.8235	5450.1	4699.3
811.3857	411.0054	5506.25	4755.45
811.5293	413.1868	5592.25	4838.95
811.673	415.3675	5702.15	4944.95
811.8166	417.5477	5738.8	4981.15
811.9603	419.7273	5662.05	4900.65
812.104	421.9064	5526.35	4758.8
812.2477	424.0848	5446.5	4682.35
812.3914	426.2627	5362.6	4594.1
812.5351	428.4399	5326.05	4555.6
812.6788	430.6166	5278.55	4501.7
812.8226	432.7928	5220.3	4446
812.9663	434.9683	5166.45	4392.7
813.1101	437.1432	5169.75	4391.95
813.2539	439.3176	5114.2	4340.05
813.3977	441.4914	5089.95	4313.85
813.5415	443.6645	5081.65	4302.9
813.6853	445.8371	5074.35	4294.7
813.8291	448.0091	5076.3	4297.95
813.973	450.1806	5056.75	4276.65
814.1168	452.3514	5030.5	4247.8
814.2607	454.5216	5024.15	4235
814.4046	456.6913	5006.65	4224.6
814.5485	458.8603	5004.75	4221.8
814.6924	461.0288	5018.2	4236.9
814.8363	463.1967	5018	4236.3
814.9802	465.3639	5001.4	4216.8
815.1241	467.5306	5001.2	4214.65
815.2681	469.6967	5004.4	4218.65
815.412	471.8622	4984.3	4199.4
815.556	474.0271	4964.4	4178.45
815.7	476.1914	4978.95	4189.15
815.844	478.3551	4966.85	4181
815.988	480.5182	4963.5	4173.75
816.132	482.6807	4973.5	4184.15
816.276	484.8426	4983.85	4195.45
816.4201	487.0039	5024.6	4231.85
816.5641	489.1647	5055.15	4263.6
816.7082	491.3248	5100.4	4308.4
816.8522	493.4843	5098.85	4307.35
816.9963	495.6432	5084.4	4294.9
817.1404	497.8015	5070.1	4274.5
817.2845	499.9592	5034.5	4240.4
817.4286	502.1163	5011	4217.2
817.5727	504.2728	4956.8	4157.95
817.7168	506.4287	4941.9	4146.8
817.861	508.5839	4926.6	4130.95
818.0051	510.7386	4907.45	4112.95
818.1493	512.8927	4925.95	4120.45
818.2935	515.0461	4912.15	4115.15
818.4377	517.199	4928.4	4128.9
818.5818	519.3512	4939.9	4140.35
818.726	521.5029	5001.6	4196.25
818.8703	523.6539	5048.45	4246.65
819.0145	525.8043	5074.65	4270.5
819.1587	527.9541	5028.6	4223.05
819.303	530.1033	4958.45	4157.1
819.4472	532.2519	4927.05	4124.25
819.5915	534.3999	4906	4099.8
819.7357	536.5472	4885.15	4079.25
819.88	538.694	4883.1	4079.95
820.0243	540.8401	4899.85	4093.5
820.1686	542.9856	4917.2	4108.2
820.3129	545.1305	4930.1	4119
820.4572	547.2748	4958.25	4147.5
820.6016	549.4185	4944.65	4134.2
820.7459	551.5615	4955.95	4144.35
820.8902	553.704	4957.7	4146.05
821.0346	555.8458	4957.35	4147.95
821.1789	557.987	4977	4168.85
821.3233	560.1276	4991.8	4180.2
821.4677	562.2675	5043.5	4232.05
821.6121	564.4069	5100.85	4291.05
821.7565	566.5456	5130.35	4320.55
821.9009	568.6837	5131.95	4322.4
822.0453	570.8212	5046.55	4237.35
822.1897	572.958	4996.7	4183.5
822.3342	575.0942	4964.45	4151
822.4786	577.2299	4916.75	4102.4
822.6231	579.3648	4877.85	4065.45
822.7675	581.4992	4847.2	4034.5
822.912	583.6329	4827.7	4014.4
823.0565	585.766	4846.05	4033.85
823.201	587.8985	4873	4059.8
823.3454	590.0304	4916.2	4090.1
823.4899	592.1616	4938.85	4119.5
823.6345	594.2922	4932.25	4114.2
823.779	596.4222	4921.25	4104.1
823.9235	598.5515	4867	4045.9
824.068	600.6802	4814.75	3994.75
824.2126	602.8083	4766.55	3947.35
824.3571	604.9358	4745.75	3925.35
824.5017	607.0626	4738.4	3916.85
824.6462	609.1888	4741.55	3919.3
824.7908	611.3144	4769.95	3946.95
824.9354	613.4393	4796.1	3976.15
825.08	615.5636	4808.05	3985.45
825.2246	617.6873	4853.8	4031.6
825.3692	619.8103	4897.7	4073.65
825.5138	621.9327	4913.15	4086.15
825.6584	624.0544	4884	4061.9
825.803	626.1756	4839.9	4017.95
825.9477	628.2961	4786.45	3961.1
826.0923	630.4159	4746.7	3921.8
826.237	632.5351	4740.65	3913.3
826.3816	634.6537	4744.4	3916.15
826.5263	636.7716	4746.9	3918.4
826.6709	638.8889	4726.95	3900
826.8156	641.0056	4744.75	3916.25
826.9603	643.1216	4766.45	3936.2
827.105	645.237	4765.75	3935
827.2497	647.3518	4746.05	3916.45
827.3944	649.4659	4726.15	3897.9
827.5391	651.5793	4693.4	3862.75
827.6838	653.6922	4675.1	3844.05
827.8285	655.8043	4666.35	3838.4
827.9733	657.9159	4665.6	3833.9
828.118	660.0268	4641.65	3807.1
828.2627	662.137	4635.25	3802.2
828.4075	664.2466	4645.35	3812.35
828.5522	666.3556	4636.6	3803.35
828.697	668.4639	4618.85	3783.6
828.8418	670.5716	4622.3	3788.8
828.9865	672.6786	4615.5	3781.35
829.1313	674.785	4605.9	3769.4
829.2761	676.8907	4595.4	3759.7
829.4209	678.9958	4579.8	3744.15
829.5657	681.1002	4585.3	3748.25
829.7105	683.204	4600.1	3760.7
829.8553	685.3072	4582.9	3745.5
830.0001	687.4097	4590.25	3753.75
830.1449	689.5115	4577.35	3738.7
830.2898	691.6127	4576.4	3739.1
830.4346	693.7132	4562.4	3724.15
830.5794	695.8131	4574.55	3723.8
830.7243	697.9123	4586.55	3747.8
830.8691	700.0109	4578.65	3739.15
831.014	702.1089	4558.2	3718.75
831.1588	704.2061	4594.65	3755.4
831.3037	706.3028	4605.9	3766
831.4486	708.3987	4616.2	3774.5
831.5935	710.4941	4620.25	3779.8
831.7383	712.5887	4624.15	3780.7
831.8832	714.6827	4622.9	3778.65
832.0281	716.7761	4620.5	3780
832.173	718.8688	4602.35	3761.25
832.3179	720.9608	4611.35	3765.9
832.4628	723.0522	4618.05	3771.15
832.6077	725.1429	4628.95	3785.2
832.7527	727.233	4645.3	3800.1
832.8976	729.3224	4693.35	3847.6
833.0425	731.4112	4733.65	3889.25
833.1874	733.4993	4766.05	3919.4
833.3324	735.5867	4728.45	3881.9
833.4773	737.6735	4684.4	3838.7
833.6222	739.7596	4627.4	3779
833.7672	741.845	4608.7	3762.2
833.9122	743.9298	4584.1	3735.55
834.0571	746.014	4602.45	3756.3
834.2021	748.0974	4645	3794.85
834.347	750.1802	4617.15	3767.65
834.492	752.2624	4611.65	3762.9
834.637	754.3439	4575.25	3725
834.782	756.4247	4540	3681.2
834.9269	758.5048	4509.95	3661.15
835.0719	760.5843	4523.7	3674.25
835.2169	762.6631	4517.25	3668.3
835.3619	764.7413	4550.85	3702
835.5069	766.8188	4613.5	3764.5
835.6519	768.8956	4665.15	3814
835.7969	770.9718	4713.7	3863.2
835.9419	773.0473	4695.9	3846.85
836.0869	775.1221	4673.15	3823.95
836.232	777.1962	4649.15	3798.9
836.377	779.2697	4682.5	3829.45
836.522	781.3426	4766.5	3898
836.667	783.4147	4828.9	3976.3
836.8121	785.4862	4822.2	3972.45
836.9571	787.557	4759.55	3907.05
837.1021	789.6271	4657.5	3804.6
837.2472	791.6966	4543.9	3688.7
837.3922	793.7654	4464.3	3609.8
837.5373	795.8335	4398.75	3545.25
837.6823	797.901	4367.7	3515.05
837.8274	799.9678	4349.95	3494.7
837.9724	802.0339	4345.3	3491.8
838.1175	804.0993	4336.15	3472.9
838.2626	806.1641	4333.35	3478.5
838.4076	808.2282	4336.4	3481.75
838.5527	810.2916	4312.9	3455.5
838.6978	812.3544	4285.1	3429.75
838.8428	814.4164	4268.65	3416.9
838.9879	816.4778	4279.95	3424.45
839.133	818.5385	4284.3	3427.95
839.2781	820.5986	4296.4	3441.45
839.4232	822.658	4333.65	3476.75
839.5682	824.7166	4377.3	3523.3
839.7133	826.7747	4440.5	3585.6
839.8584	828.832	4502.4	3646.45
840.0035	830.8886	4534.3	3676.15
840.1486	832.9446	4548.7	3689.75
840.2937	834.9999	4543.95	3689.35
840.4388	837.0545	4480	3622.8
840.5839	839.1085	4418	3559
840.729	841.1618	4362.8	3501.8
840.8741	843.2143	4286.4	3427.95
841.0192	845.2662	4257.75	3402.5
841.1643	847.3175	4244.7	3386.05
841.3095	849.368	4212.5	3352.35
841.4546	851.4179	4203.15	3346.3
841.5997	853.467	4196.2	3337.55
841.7448	855.5155	4203.55	3344.75
841.8899	857.5633	4183.65	3324.7
842.0351	859.6105	4201.15	3344.05
842.1802	861.6569	4148.1	3290.45
842.3253	863.7027	4163.4	3303
842.4704	865.7478	4142	3281.75
842.6156	867.7922	4130.3	3272.3
842.7607	869.8359	4114.85	3252.4
842.9058	871.8789	4123.6	3264.3
843.0509	873.9212	4128.35	3235.65
843.1961	875.9629	4103.55	3245
843.3412	878.0039	4104.75	3244.65
843.4863	880.0441	4108.3	3245
843.6315	882.0837	4127.75	3266.25
843.7766	884.1226	4130.5	3265.35
843.9218	886.1609	4167.8	3306.05
844.0669	888.1984	4194.1	3334.65
844.212	890.2352	4238.6	3376.2
844.3572	892.2714	4223.45	3359
844.5023	894.3069	4245.4	3384.65
844.6475	896.3416	4160.8	3296.4
844.7926	898.3757	4135.8	3271.15
844.9377	900.4091	4107.95	3242
845.0829	902.4418	4089	3220.05
845.228	904.4739	4083.05	3217.5
845.3732	906.5052	4106.75	3241.85
845.5183	908.5358	4115.7	3253.75
845.6635	910.5658	4092.4	3225
845.8086	912.595	4057.95	3194.4
845.9538	914.6236	4016.1	3151.7
846.0989	916.6515	3989.7	3126.25
846.2441	918.6786	3953.45	3086.8
846.3892	920.7051	3951.05	3084.05
846.5344	922.7309	3954.7	3089.25
846.6795	924.756	3943.5	3079.3
846.8246	926.7804	3944.45	3075.95
846.9698	928.8041	3925.45	3059.9
847.1149	930.8272	3939.9	3073.75
847.2601	932.8495	3942.15	3073.5
847.4052	934.8711	3933.2	3065.25
847.5504	936.892	3932.2	3062.55
847.6955	938.9123	3928.65	3061.2
847.8407	940.9318	3957.5	3090.25
847.9858	942.9506	3962.05	3094.1
848.131	944.9688	3949.1	3083.65
848.2761	946.9862	3939.95	3071.3
848.4213	949.003	3900.7	3033.65
848.5664	951.019	3864.5	2998
848.7115	953.0344	3845.55	2976.15
848.8567	955.0491	3828.7	2959.45
849.0018	957.063	3808.6	2938.8
849.147	959.0763	3816.15	2944.15
849.2921	961.0888	3808.8	2937.85
849.4373	963.1007	3810.95	2941.95
849.5824	965.1119	3780.5	2914.85
849.7275	967.1223	3784.5	2917.7
849.8727	969.1321	3755.95	2889.55
850.0178	971.1412	3756.6	2889.1
850.1629	973.1495	3752.4	2883.4
850.3081	975.1572	3765.6	2865.75
850.4532	977.1641	3736.95	2868.05
850.5983	979.1704	3727.45	2858.85
850.7435	981.1759	3709.5	2836.9
850.8886	983.1808	3698.65	2826.45
851.0337	985.1849	3706.2	2824.8
851.1788	987.1884	3681.1	2807.85
851.324	989.1911	3680.05	2807
851.4691	991.1932	3676.65	2806.15
851.6142	993.1945	3661.3	2791.2
851.7593	995.1951	3664.8	2794.95
851.9045	997.1951	3659.8	2784
852.0496	999.1943	3640.8	2772.65
852.1947	1001.1928	3630.8	2759.6
852.3398	1003.1906	3631.65	2761.35
852.4849	1005.1877	3634.75	2763.85
852.63	1007.1841	3650.15	2777.6
852.7751	1009.1798	3650.45	2779.2
852.9202	1011.1748	3644.7	2773
853.0653	1013.1691	3612.55	2738.9
853.2104	1015.1627	3585.85	2712.4
853.3555	1017.1556	3537.4	2666.95
853.5006	1019.1477	3526.8	2655.3
853.6457	1021.1392	3473.55	2604.85
853.7908	1023.1299	3458.95	2587.55
853.9359	1025.12	3456.6	2584.8
854.081	1027.1093	3451.1	2580.55
854.2261	1029.0979	3461.55	2592.5
854.3712	1031.0859	3450.9	2581.1
854.5163	1033.0731	3474	2599.95
854.6613	1035.0596	3467.7	2596.4
854.8064	1037.0454	3451.95	2580.1
854.9515	1039.0304	3441	2568.75
855.0965	1041.0148	3405.3	2532.1
855.2416	1042.9985	3377.15	2502.8
855.3867	1044.9814	3375.35	2503
855.5317	1046.9636	3346.7	2471.45
855.6768	1048.9452	3332.4	2461.2
855.8219	1050.926	3349.1	2476.1
855.9669	1052.9061	3351.9	2478
856.112	1054.8855	3363.9	2491.7
856.257	1056.8642	3349.1	2475.35
856.4021	1058.8421	3332.85	2454.25
856.5471	1060.8194	3338.25	2465.05
856.6921	1062.7959	3315.2	2441.55
856.8372	1064.7717	3306.5	2429.9
856.9822	1066.7469	3313.45	2437.35
857.1272	1068.7213	3314.05	2438.4
857.2723	1070.695	3303.1	2430.85
857.4173	1072.6679	3315.9	2439.7
857.5623	1074.6402	3332.65	2458.05
857.7073	1076.6117	3338.55	2458.6
857.8523	1078.5826	3330.1	2455
857.9973	1080.5527	3284.85	2407
858.1423	1082.5221	3246.55	2373.3
858.2873	1084.4908	3230.3	2355.05
858.4323	1086.4587	3212.8	2338.2
858.5773	1088.426	3203.85	2326.35
858.7223	1090.3925	3179.2	2301
858.8673	1092.3584	3173	2297.65
859.0123	1094.3235	3167.8	2292.7
859.1573	1096.2879	3175.25	2297.45
859.3022	1098.2515	3193.55	2317.9
859.4472	1100.2145	3200.2	2324.4
859.5922	1102.1767	3224.95	2346.6
859.7371	1104.1382	3248.95	2372.25
859.8821	1106.099	3279.65	2402.25
860.027	1108.0591	3324.5	2448.3
860.172	1110.0185	3350.1	2472.4
860.3169	1111.9771	3373.95	2499.6
860.4619	1113.9351	3399.3	2520.9
860.6068	1115.8923	3456.55	2579
860.7517	1117.8488	3478.5	2600.05
860.8967	1119.8045	3455.4	2579.3
861.0416	1121.7596	3372.6	2494.95
861.1865	1123.7139	3275.7	2398.65
861.3314	1125.6675	3213.8	2337.7
861.4763	1127.6204	3201.45	2324.65
861.6212	1129.5726	3207.15	2328.4
861.7661	1131.524	3207.8	2332.1
861.911	1133.4748	3170.75	2293.35
862.0559	1135.4248	3135.05	2256.75
862.2008	1137.3741	3091.2	2212.55
862.3457	1139.3226	3057.25	2178.05
862.4905	1141.2705	3037.8	2158.25
862.6354	1143.2176	3031.8	2149.4
862.7803	1145.164	3052.2	2172.8
862.9251	1147.1097	3044.2	2165.3
863.07	1149.0546	3028.2	2150
863.2148	1150.9989	2999.25	2120.1
863.3597	1152.9424	2985.7	2106
863.5045	1154.8852	2955.05	2078.05
863.6493	1156.8272	2952.7	2073.75
863.7942	1158.7686	2943.85	2057.3
863.939	1160.7092	2928.2	2048.55
864.0838	1162.6491	2934	2053.65
864.2286	1164.5883	2929.6	2051.85
864.3734	1166.5267	2942.25	2062.95
864.5182	1168.4644	2959.3	2081.05
864.663	1170.4014	2971.7	2086.6
864.8078	1172.3377	2995.65	2119.35
864.9526	1174.2732	3029.05	2149.4
865.0974	1176.2081	3078.2	2199.25
865.2421	1178.1421	3178.45	2294.85
865.3869	1180.0755	3276.7	2398.75
865.5317	1182.0082	3344.7	2464.45
865.6764	1183.9401	3353.2	2474.45
865.8212	1185.8713	3279.55	2400.75
865.9659	1187.8017	3176.95	2298.15
866.1106	1189.7315	3075.55	2199.5
866.2554	1191.6605	2986.1	2107.3
866.4001	1193.5888	2932.95	2054.05
866.5448	1195.5163	2905.95	2028.15
866.6895	1197.4432	2880.35	2000.85
866.8342	1199.3693	2860.65	1982.35
866.9789	1201.2947	2838.4	1956.6
867.1236	1203.2193	2822.1	1941
867.2683	1205.1432	2805.25	1924.05
867.413	1207.0664	2806	1925.75
867.5576	1208.9889	2795.6	1914.1
867.7023	1210.9106	2797.05	1916.7
867.847	1212.8316	2794.35	1914.1
867.9916	1214.7519	2807.2	1917.9
868.1363	1216.6715	2798.45	1917.3
868.2809	1218.5903	2801.7	1923.05
868.4255	1220.5084	2802.6	1923.55
868.5701	1222.4257	2820.7	1940.1
868.7148	1224.3424	2811.25	1932.2
868.8594	1226.2583	2828.7	1940.15
869.004	1228.1735	2846.9	1965.55
869.1486	1230.0879	2852.1	1971.95
869.2932	1232.0016	2877.7	1998.05
869.4377	1233.9146	2908.7	2026.65
869.5823	1235.8269	2914.6	2034.1
869.7269	1237.7384	2919.9	2039.85
869.8715	1239.6492	2897.4	2016.1
870.016	1241.5592	2916	2034.05
870.1606	1243.4686	2917.7	2036.25
870.3051	1245.3772	2978.6	2097.65
870.4496	1247.285	3042.8	2160.55
870.5941	1249.1922	3109.1	2226.7
870.7387	1251.0986	3169.05	2287.45
870.8832	1253.0042	3208	2324.75
871.0277	1254.9092	3290.4	2410.2
871.1722	1256.8134	3348.4	2468.4
871.3167	1258.7169	3434.7	2551.05
871.4611	1260.6196	3491.45	2611.1
871.6056	1262.5216	3524.9	2637.85
871.7501	1264.4229	3529.65	2650.1
871.8945	1266.3234	3500.5	2619.05
872.039	1268.2232	3447.45	2564.3
872.1834	1270.1223	3386.4	2501.85
872.3278	1272.0207	3360.6	2479.9
872.4723	1273.9183	3326.05	2439
872.6167	1275.8151	3324.2	2442.05
872.7611	1277.7113	3349.9	2468.65
872.9055	1279.6067	3398.95	2516.4
873.0499	1281.5014	3511.95	2628.55
873.1943	1283.3953	3669.3	2784.45
873.3386	1285.2885	3820.7	2939.25
873.483	1287.181	3969.35	3086
873.6274	1289.0727	4043.2	3161.85
873.7717	1290.9637	4018.3	3135.35
873.9161	1292.854	3925.9	3043.25
874.0604	1294.7435	3786.4	2902.85
874.2047	1296.6323	3668.5	2786.45
874.349	1298.5204	3571.4	2685.8
874.4933	1300.4077	3494.6	2611.4
874.6376	1302.2943	3423.2	2540.4
874.7819	1304.1802	3395.25	2510.8
874.9262	1306.0653	3353.35	2468.85
875.0705	1307.9497	3342.35	2459.65
875.2147	1309.8333	3313.25	2431.1
875.359	1311.7162	3289.45	2407.3
875.5032	1313.5984	3256.25	2369.25
875.6475	1315.4798	3247.3	2346.75
875.7917	1317.3605	3255.85	2362.95
875.9359	1319.2405	3246.75	2360.55
876.0801	1321.1197	3255.4	2369.15
876.2243	1322.9982	3226.35	2340.65
876.3685	1324.876	3175.55	2294.15
876.5127	1326.753	3109.3	2225.95
876.6569	1328.6293	3028.6	2143.8
876.801	1330.5048	2956.75	2073.6
876.9452	1332.3796	2879.25	1996.95
877.0893	1334.2537	2827.15	1917
877.2335	1336.127	2771.45	1887.95
877.3776	1337.9996	2730.6	1846
877.5217	1339.8714	2699.1	1816.55
877.6658	1341.7426	2735	1808
877.8099	1343.6129	2670.65	1787.3
877.954	1345.4826	2651	1764.45
878.0981	1347.3515	2651.25	1765.55
878.2422	1349.2196	2628.6	1743.15
878.3862	1351.087	2613.6	1729.8
878.5303	1352.9537	2612.45	1727.4
878.6743	1354.8197	2602.05	1720.3
878.8184	1356.6849	2625.2	1741.05
878.9624	1358.5493	2621.4	1736.4
879.1064	1360.4131	2631.65	1748.8
879.2504	1362.276	2654.85	1771.9
879.3944	1364.1383	2693	1808.75
879.5384	1365.9998	2695.35	1806.05
879.6823	1367.8606	2690	1802.55
879.8263	1369.7206	2680.8	1797.6
879.9702	1371.5799	2689.05	1803.1
880.1142	1373.4384	2674.75	1792
880.2581	1375.2962	2661.25	1776.85
880.402	1377.1533	2600.95	1718.9
880.5459	1379.0096	2559	1674.5
880.6898	1380.8652	2528.8	1645.95
880.8337	1382.7201	2504.4	1620.1
880.9776	1384.5742	2474.8	1589.55
881.1215	1386.4275	2455.05	1570.15
881.2653	1388.2802	2421.9	1538.35
881.4092	1390.132	2420.95	1536.2
881.553	1391.9832	2408.95	1523.55
881.6968	1393.8336	2383.75	1499.05
881.8406	1395.6832	2385.05	1498.1
881.9844	1397.5322	2383.7	1499.9
882.1282	1399.3803	2369.65	1480.5
882.272	1401.2278	2353.2	1469.2
882.4158	1403.0745	2348.75	1464.8
882.5595	1404.9204	2340.05	1457.65
882.7033	1406.7656	2316.2	1432.1
882.847	1408.6101	2317.65	1432.5
882.9908	1410.4538	2313.35	1428.2
883.1345	1412.2968	2299	1413.95
883.2782	1414.139	2299.25	1415.8
883.4219	1415.9805	2297.45	1413.2
883.5656	1417.8213	2326.4	1420.35
883.7092	1419.6613	2317.15	1433.6
883.8529	1421.5006	2330.95	1445.65
883.9965	1423.3391	2363.55	1477.65
884.1402	1425.1769	2389.55	1504.2
884.2838	1427.0139	2462.75	1577.95
884.4274	1428.8502	2518.05	1631.05
884.571	1430.6858	2572.1	1686.4
884.7146	1432.5206	2594.55	1708.6
884.8582	1434.3547	2598.3	1712.95
885.0018	1436.188	2583.3	1700.9
885.1453	1438.0206	2566.45	1681.05
885.2889	1439.8524	2547.3	1662.6
885.4324	1441.6835	2550	1662.9
885.5759	1443.5139	2541.35	1651.8
885.7194	1445.3435	2545.45	1660
885.8629	1447.1724	2538.4	1653.15
886.0064	1449.0005	2548.65	1662.75
886.1499	1450.8279	2545.9	1658.3
886.2933	1452.6545	2517.5	1632.85
886.4368	1454.4804	2514.45	1631.7
886.5802	1456.3056	2508.85	1616.75
886.7237	1458.13	2497.65	1614.55
886.8671	1459.9536	2472.9	1588.1
887.0105	1461.7766	2454.5	1570
887.1539	1463.5987	2414.55	1528.5
887.2972	1465.4202	2382.65	1497.85
887.4406	1467.2409	2344.05	1457.55
887.584	1469.0608	2320.05	1436.3
887.7273	1470.88	2288.2	1402.8
887.8706	1472.6984	2271.5	1386.9
888.0139	1474.5161	2244.9	1357.2
888.1572	1476.3331	2221.15	1337.25
888.3005	1478.1493	2216.05	1330.75
888.4438	1479.9648	2213.25	1328
888.5871	1481.7795	2194.15	1309.2
888.7303	1483.5935	2199.8	1314.9
888.8736	1485.4067	2199.1	1314.05
889.0168	1487.2192	2199.3	1313.9
889.16	1489.031	2211.25	1324.25
889.3032	1490.842	2196.95	1312.05
889.4464	1492.6522	2191.75	1305.65
889.5896	1494.4618	2194.25	1307.7
889.7327	1496.2705	2184.3	1300.05
889.8759	1498.0785	2176.75	1290.15
890.019	1499.8858	2188.55	1303
890.1622	1501.6924	2173.35	1286.4
890.3053	1503.4981	2149.55	1263.35
890.4484	1505.3032	2148.2	1261.3
890.5914	1507.1075	2140.65	1253.9
890.7345	1508.911	2136.95	1252.25
890.8776	1510.7138	2126.9	1240.25
891.0206	1512.5159	2123.3	1238
891.1637	1514.3172	2124.85	1240.95
891.3067	1516.1178	2110.05	1223.4
891.4497	1517.9176	2096.3	1207.95
891.5927	1519.7166	2102.8	1219.45
891.7357	1521.515	2084.85	1192.1
891.8786	1523.3126	2079	1191.6
892.0216	1525.1094	2077.6	1186.65
892.1645	1526.9055	2062.55	1177
892.3074	1528.7008	2063.5	1178.85
892.4503	1530.4954	2051.4	1165.75
892.5932	1532.2893	2041.1	1155.35
892.7361	1534.0824	2036.95	1147.3
892.879	1535.8747	2032.3	1146.75
893.0218	1537.6663	2019.8	1129.85
893.1647	1539.4572	2030.15	1143.55
893.3075	1541.2473	2027.35	1141.95
893.4503	1543.0367	2019.7	1134.2
893.5931	1544.8253	2018.6	1126.5
893.7359	1546.6132	2015.8	1128
893.8787	1548.4003	2014.95	1119.4
894.0214	1550.1867	2031.6	1138.6
894.1642	1551.9723	2028.9	1138.1
894.3069	1553.7572	2040.85	1155.15
894.4496	1555.5414	2050.3	1164.55
894.5923	1557.3247	2059.9	1172.25
894.735	1559.1074	2081.5	1196.2
894.8777	1560.8893	2115.05	1231.1
895.0204	1562.6705	2147.7	1263.25
895.163	1564.4509	2174.75	1288.45
895.3056	1566.2305	2180.85	1297.7
895.4482	1568.0094	2182.65	1297.9
895.5908	1569.7876	2189.2	1304.85
895.7334	1571.565	2177.05	1291.95
895.876	1573.3417	2169.1	1283.75
896.0186	1575.1176	2177.4	1293.05
896.1611	1576.8928	2201.75	1316.3
896.3036	1578.6672	2201	1316.4
896.4461	1580.4409	2228.55	1343.85
896.5886	1582.2138	2261.9	1374.1
896.7311	1583.986	2287.85	1402.05
896.8736	1585.7575	2320.35	1435.7
897.0161	1587.5282	2350.55	1466.55
897.1585	1589.2981	2380.1	1497.05
897.3009	1591.0673	2386.8	1501.3
897.4433	1592.8358	2396.9	1512.5
897.5857	1594.6035	2395.75	1510.05
897.7281	1596.3704	2367.65	1482.05
897.8705	1598.1366	2354.25	1469.6
898.0128	1599.9021	2318.6	1434.5
898.1551	1601.6668	2298.35	1411.55
898.2975	1603.4308	2276.7	1391.7
898.4398	1605.194	2274.35	1381.25
898.5821	1606.9564	2288.1	1402.35
898.7243	1608.7182	2318	1428.05
898.8666	1610.4791	2388.4	1504.6
899.0088	1612.2394	2475.65	1591.75
899.1511	1613.9988	2573.55	1688.8
899.2933	1615.7576	2661	1776.95
899.4355	1617.5156	2709.75	1818.3
899.5776	1619.2728	2699.45	1813.95
899.7198	1621.0293	2627.6	1744
899.862	1622.785	2535.1	1649.9
900.0041	1624.54	2410.75	1525.8
900.1462	1626.2942	2297.5	1409.9
900.2883	1628.0477	2202.2	1314.15
900.4304	1629.8005	2110.55	1222.85
900.5725	1631.5525	2059.25	1175.3
900.7145	1633.3037	1998.7	1111.35
900.8566	1635.0542	1959.9	1074.4
900.9986	1636.804	1917.9	1032.85
901.1406	1638.553	1951.1	1017
901.2826	1640.3013	1877.3	994.3
901.4245	1642.0488	1856.15	970.5
901.5665	1643.7955	1842.8	958.1
901.7085	1645.5416	1834.25	948.65
901.8504	1647.2868	1809	923.75
901.9923	1649.0313	1805.75	921.05
902.1342	1650.7751	1803.3	916.6
902.2761	1652.5181	1802.05	917.9
902.4179	1654.2604	1794.95	909.7
902.5598	1656.0019	1792.45	907.4
902.7016	1657.7427	1797.75	911.7
902.8434	1659.4828	1805.4	920.6
902.9852	1661.222	1827.05	940.05
903.127	1662.9606	1856.45	972.25
903.2687	1664.6984	1895.2	1010.5
903.4105	1666.4354	1913.65	1026.1
903.5522	1668.1717	1903.8	1018.65
903.6939	1669.9072	1870	984.95
903.8356	1671.642	1826.95	939.05
903.9773	1673.3761	1791.65	906.95
904.119	1675.1094	1749.45	863.95
904.2606	1676.8419	1731.8	845.75
904.4022	1678.5737	1715.55	830.8
904.5439	1680.3048	1704.15	818.7
904.6855	1682.0351	1688.25	802.95
904.827	1683.7646	1685.2	796.4
904.9686	1685.4934	1684.8	799.95
905.1101	1687.2215	1670.7	785.7
905.2517	1688.9488	1667.75	781.75
905.3932	1690.6754	1650.55	766.85
905.5347	1692.4012	1643.8	756.95
905.6761	1694.1263	1652.5	766
905.8176	1695.8506	1646.35	758.7
905.9591	1697.5742	1646.4	762.5
906.1005	1699.297	1639.7	755.1
906.2419	1701.0191	1625.25	740.25
906.3833	1702.7404	1620.05	737.1
906.5246	1704.461	1614.55	729.6
906.666	1706.1808	1615.75	728.15
906.8073	1707.8999	1607.6	722.25
906.9487	1709.6182	1617.2	732.3
907.09	1711.3358	1607.7	722.05
907.2313	1713.0527	1597.25	713
907.3725	1714.7688	1598.55	707.05
907.5138	1716.4841	1596.8	709.15
907.655	1718.1987	1598.45	707.45
907.7962	1719.9126	1600.05	716
907.9374	1721.6257	1589.5	703.7
908.0786	1723.338	1593	708.3
908.2198	1725.0496	1585.8	698.5
908.3609	1726.7605	1576.3	690
908.502	1728.4706	1580	692.85
908.6431	1730.18	1581.1	693.05
908.7842	1731.8886	1578.7	694.4
908.9253	1733.5964	1577.6	685.35
909.0664	1735.3036	1577	689.7
909.2074	1737.0099	1573.7	688.35
909.3484	1738.7156	1566.75	682.35
909.4894	1740.4204	1571.9	683.2
909.6304	1742.1246	1562.5	674.75
909.7714	1743.8279	1561.55	677.25
909.9123	1745.5306	1559.65	674.15
910.0532	1747.2325	1558.8	672.4
910.1941	1748.9336	1554.8	670.45
910.335	1750.634	1557.35	670.55
910.4759	1752.3336	1559.55	674.7
910.6168	1754.0325	1551	668.1
910.7576	1755.7307	1550.65	667.9
910.8984	1757.4281	1550.6	666.45
911.0392	1759.1247	1564.35	671.9
911.18	1760.8206	1553.25	661.95
911.3208	1762.5158	1553.85	662.9
911.4615	1764.2102	1546.45	664.9
911.6022	1765.9039	1547.05	661
911.7429	1767.5968	1540.2	655.25
911.8836	1769.289	1542.2	656.1
912.0243	1770.9804	1543.95	656.55
912.1649	1772.6711	1534.35	649.8
912.3056	1774.361	1531.1	646.5
912.4462	1776.0502	1529.75	643.15
912.5868	1777.7386	1531.5	643.1
912.7274	1779.4263	1528	641.35
912.8679	1781.1132	1526.25	641.6
913.0084	1782.7994	1528.95	641.45
913.149	1784.4849	1523.1	640.4
913.2895	1786.1696	1525	634.55
913.4299	1787.8535	1512.6	626.75
913.5704	1789.5367	1516.4	631.9
913.7108	1791.2192	1514.15	629.45
913.8513	1792.9009	1534.65	624.3
913.9917	1794.5818	1514.65	627.8
914.132	1796.2621	1505.3	619
914.2724	1797.9415	1507.25	621.3
914.4128	1799.6202	1512.95	627.2
914.5531	1801.2982	1509.55	624.65
914.6934	1802.9755	1507.25	621.45
914.8337	1804.6519	1503.8	618.15
914.9739	1806.3277	1504.2	619.7
915.1142	1808.0027	1494.8	609.85
915.2544	1809.6769	1501.45	615.45
915.3946	1811.3504	1488.25	601.85
915.5348	1813.0231	1486.9	600.55
915.675	1814.6951	1494.05	609.15
915.8151	1816.3664	1492.4	605.85
915.9553	1818.0369	1490.8	604.5
916.0954	1819.7067	1480.3	596.05
916.2355	1821.3757	1485.9	599.2
916.3755	1823.044	1485.6	602.45
916.5156	1824.7115	1479.3	594.9
916.6556	1826.3783	1474.2	589.75
916.7956	1828.0443	1466.45	580.65
916.9356	1829.7096	1479.6	595.35
917.0756	1831.3741	1482.25	592.8
917.2155	1833.0379	1473.75	589.95
917.3555	1834.701	1472.3	585.1
917.4954	1836.3633	1470.35	583.1
917.6353	1838.0248	1469.9	583.05
917.7751	1839.6856	1463.2	579.4
917.915	1841.3457	1471.6	588.25
918.0548	1843.005	1461.4	575.05
918.1946	1844.6636	1463.95	580.05
918.3344	1846.3214	1464.9	578.65
918.4742	1847.9785	1455.7	570.95
918.6139	1849.6349	1461.85	574.95
918.7537	1851.2904	1465.4	572.45
918.8934	1852.9453	1462.6	576.85
919.0331	1854.5994	1451.2	563.65
919.1727	1856.2528	1463	573.05
919.3124	1857.9054	1451.05	564.75
919.452	1859.5572	1446.45	560.1
919.5916	1861.2083	1451.3	565
919.7312	1862.8587	1449.3	564.05
919.8708	1864.5084	1446.95	561.6
920.0103	1866.1572	1447.85	562
920.1498	1867.8054	1448.65	564.2
920.2893	1869.4528	1439.75	554.65
920.4288	1871.0994	1445.8	561.3
920.5683	1872.7453	1441.35	555.8
920.7077	1874.3905	1445.1	552.8
920.8471	1876.0349	1438.6	553.85
920.9865	1877.6786	1446.85	560
921.1259	1879.3215	1432.9	547.95
921.2653	1880.9637	1433.7	547.7
921.4046	1882.6051	1438.3	553.35
921.5439	1884.2458	1439.4	552.45
921.6832	1885.8858	1430.3	545.15
921.8225	1887.525	1425.9	539.1
921.9617	1889.1634	1427.15	541.8
922.101	1890.8011	1429.3	542.9
922.2402	1892.4381	1418.9	531.4
922.3794	1894.0743	1421.95	536.05
922.5185	1895.7098	1426	540.8
922.6577	1897.3446	1419.35	532.3
922.7968	1898.9786	1422.55	533.95
922.9359	1900.6118	1409.25	525.15
923.075	1902.2443	1410.55	523.8
923.214	1903.8761	1408.9	522.15
923.3531	1905.5071	1414.75	528.25
923.4921	1907.1374	1411.5	525.6
923.6311	1908.7669	1406.6	519.4
923.77	1910.3957	1402.65	515.05
923.909	1912.0237	1396.55	511.05
924.0479	1913.651	1398.95	512.1
924.1868	1915.2776	1403.9	520.65
924.3257	1916.9034	1400.6	516.4
924.4646	1918.5285	1398.45	516.15
924.6034	1920.1528	1392.5	506.55
924.7422	1921.7764	1394.2	508.95
924.881	1923.3992	1392.2	507.05
925.0198	1925.0213	1386.1	498
925.1586	1926.6427	1387	502.25
925.2973	1928.2633	1452.65	497.45
925.436	1929.8832	1386.35	498.15
925.5747	1931.5023	1384.8	497.95
925.7134	1933.1207	1387.45	504.25
925.852	1934.7383	1384.3	498.85
925.9906	1936.3552	1375.1	489.55
926.1292	1937.9714	1376.8	493.1
926.2678	1939.5868	1377.05	488.8
926.4064	1941.2015	1373.45	487.55
926.5449	1942.8154	1371	485.35
926.6834	1944.4286	1370.15	484.35
926.8219	1946.041	1382.9	475.2
926.9604	1947.6528	1369.8	476.85
927.0988	1949.2637	1360.9	477.2
927.2372	1950.8739	1364.75	479.45
927.3756	1952.4834	1366.1	481.6
927.514	1954.0921	1365.5	477.25
927.6523	1955.7001	1376	486
927.7907	1957.3074	1355.95	472.05
927.929	1958.9139	1357.75	471.05
928.0673	1960.5197	1362	475.1
928.2055	1962.1247	1351.75	464.55
928.3438	1963.729	1355.9	472.5
928.482	1965.3325	1377.8	470.25
928.6202	1966.9353	1350.3	465.1
928.7584	1968.5374	1350.5	463.2
928.8965	1970.1387	1347.75	463.05
929.0346	1971.7393	1338.65	453.05
929.1727	1973.3392	1339.4	453.3
929.3108	1974.9383	1338.35	452.95
929.4489	1976.5366	1347	461.8
929.5869	1978.1342	1340.8	455.4
929.7249	1979.7311	1336.5	450.3
929.8629	1981.3273	1338.55	453
930.0009	1982.9227	1333.35	447.25
930.1388	1984.5173	1332.55	449.4
930.2767	1986.1112	1330.3	445.45
930.4146	1987.7044	1333.25	451.2
930.5525	1989.2968	1331.65	446.5
930.6904	1990.8885	1334.4	444.85
930.8282	1992.4795	1328.25	442.05
930.966	1994.0697	1329.05	444.85
931.1038	1995.6592	1325.9	440.15
931.2415	1997.2479	1320.65	435.4
931.3793	1998.8359	1319.25	436.35
931.517	2000.4232	1322.15	437.8
931.6547	2002.0097	1320.1	436.45
931.7923	2003.5955	1321.25	436.7
931.93	2005.1805	1324.3	437.65
932.0676	2006.7648	1315.6	431.7
932.2052	2008.3484	1320.6	433.7
932.3427	2009.9312	1319.3	433.85
932.4803	2011.5133	1314.45	432.35
932.6178	2013.0946	1319.5	436.25
932.7553	2014.6752	1313.35	430.25
932.8928	2016.2551	1312.4	428.3
933.0302	2017.8342	1310.3	426
933.1676	2019.4126	1313.85	427.65
933.305	2020.9902	1307.45	425.2
933.4424	2022.5672	1309.65	423.4
933.5798	2024.1433	1314.95	424.85
933.7171	2025.7188	1304.25	421.6
933.8544	2027.2935	1300.1	415.5
933.9917	2028.8674	1300.45	417.2
934.129	2030.4406	1303.6	420.55
934.2662	2032.0131	1288.45	406.05
934.4034	2033.5849	1302.8	412.45
934.5406	2035.1559	1300.9	415.9
934.6778	2036.7261	1290.95	406.7
934.8149	2038.2957	1296.9	413.7
934.952	2039.8645	1295.85	411.35
935.0891	2041.4325	1300.7	412.6
935.2262	2042.9998	1295.05	411.7
935.3632	2044.5664	1297.3	411.45
935.5002	2046.1323	1294.55	413.45
935.6372	2047.6974	1291.1	407.55
935.7742	2049.2617	1289.75	406.8
935.9111	2050.8254	1313.8	407.75
936.048	2052.3883	1294.5	408.5
936.1849	2053.9504	1289.35	403.9
936.3218	2055.5118	1292.5	406.65
936.4586	2057.0725	1288.55	401.05
936.5955	2058.6325	1282.75	396.6
936.7323	2060.1917	1283.55	399.8
936.869	2061.7502	1288.8	400.6
937.0058	2063.3079	1284.95	400.75
937.1425	2064.8649	1283.35	397.1
937.2792	2066.4212	1278.9	392.95
937.4159	2067.9767	1285.3	401.35
937.5525	2069.5315	1283.45	400
937.6891	2071.0856	1272.45	387
937.8257	2072.6389	1278.2	392.35
937.9623	2074.1915	1273.25	391.55
938.0989	2075.7433	1270.25	384.4
938.2354	2077.2945	1276.05	394.3
938.3719	2078.8448	1275.2	390.35
938.5084	2080.3945	1273.8	390.1
938.6448	2081.9434	1278.1	393.7
938.7812	2083.4916	1271.4	384.9
938.9176	2085.039	1271.55	385
939.054	2086.5857	1269.95	385.2
939.1903	2088.1317	1267.55	381.65
939.3267	2089.677	1273.45	390.7
939.463	2091.2215	1267.9	382.05
939.5992	2092.7652	1267.35	380.85
939.7355	2094.3083	1270.5	383.75
939.8717	2095.8506	1268.95	386.05
940.0079	2097.3921	1272.15	389.25
940.1441	2098.933	1261.55	376.75
940.2802	2100.4731	1254.7	371.15
940.4163	2102.0124	1277.05	373.55
940.5524	2103.5511	1264.15	379.25
940.6885	2105.089	1261.55	377.25
940.8245	2106.6261	1265.55	379.9
940.9606	2108.1626	1263.5	377.75
941.0965	2109.6983	1288.45	375.45
941.2325	2111.2332	1266.1	381
941.3684	2112.7675	1261.55	376.9
941.5044	2114.301	1263.4	377.85
941.6403	2115.8337	1265.6	379.75
941.7761	2117.3657	1256.25	372.1
941.912	2118.897	1260.15	373.65
942.0478	2120.4276	1262.7	372.85
942.1835	2121.9575	1258.75	371.7
942.3193	2123.4866	1272	374.45
942.455	2125.0149	1251.15	363.35
942.5907	2126.5426	1257.7	374.6
942.7264	2128.0695	1250.6	362.6
942.8621	2129.5956	1252.55	370.2
942.9977	2131.1211	1254.55	365.95
943.1333	2132.6458	1251.8	369.6
943.2689	2134.1698	1245.95	361.1
943.4044	2135.693	1251.75	364.85
943.54	2137.2155	1252.6	366.35
943.6755	2138.7373	1248.15	363.05
943.8109	2140.2584	1246.45	363.5
943.9464	2141.7787	1249.45	360.35
944.0818	2143.2983	1239.75	356.8
944.2172	2144.8171	1237.1	354.65
944.3526	2146.3353	1243.65	357.3
944.4879	2147.8527	1235.1	352.05
944.6232	2149.3693	1241.1	355.4
944.7585	2150.8853	1236.25	351.8
944.8938	2152.4005	1239.55	356.5
945.029	2153.9149	1242.5	357.25
945.1642	2155.4287	1333.45	348.6
945.2994	2156.9417	1235.8	348.6
945.4346	2158.454	1239.05	353.35
945.5697	2159.9655	1237.7	353.6
945.7048	2161.4764	1230.05	345.5
945.8399	2162.9865	1239.4	355.45
945.9749	2164.4958	1231.2	345.95
946.1099	2166.0045	1232.95	344.05
946.2449	2167.5124	1231.65	348.9
946.3799	2169.0195	1229.6	346.05
946.5148	2170.526	1230.55	345.85
946.6498	2172.0317	1229.35	345.55
946.7846	2173.5367	1231.9	346.65
946.9195	2175.0409	1229.35	344.85
947.0543	2176.5445	1221.8	337.5
947.1891	2178.0473	1226.25	340.6
947.3239	2179.5494	1224.5	336.05
947.4587	2181.0507	1233.05	348.2
947.5934	2182.5513	1222.4	337.3
947.7281	2184.0512	1222.75	339.05
947.8628	2185.5504	1220.9	335.65
947.9974	2187.0488	1219.5	335.15
948.132	2188.5465	1216.4	333.85
948.2666	2190.0435	1218	333.15
948.4012	2191.5397	1215.95	332.3
948.5357	2193.0353	1216.85	332.4
948.6702	2194.5301	1218.15	331.2
948.8047	2196.0241	1215.3	329.7
948.9392	2197.5175	1212.2	329.1
949.0736	2199.0101	1212.85	323.45
949.208	2200.502	1206.5	322.5
949.3424	2201.9931	1209.55	327.05
949.4767	2203.4835	1209.15	323.15
949.611	2204.9733	1221.15	320.9
949.7453	2206.4622	1206.05	323.2
949.8796	2207.9505	1207.55	319.95
950.0138	2209.438	1203.05	320.45
950.148	2210.9248	1207.55	321.4
950.2822	2212.4109	1197.75	315.95
950.4164	2213.8962	1202.85	315.9
950.5505	2215.3809	1205.15	319.8
950.6846	2216.8648	1205.45	318.8
950.8186	2218.3479	1201.3	314.65
950.9527	2219.8304	1197.55	309.65
951.0867	2221.3121	1196.7	310.1
951.2207	2222.7931	1199.95	316.85
951.3546	2224.2733	1196.55	312.1
951.4886	2225.7529	1193.5	308.65
951.6225	2227.2317	1195.05	305.8
951.7563	2228.7098	1196.35	312.15
951.8902	2230.1872	1191.5	308.85
952.024	2231.6638	1186.3	301.95
952.1578	2233.1397	1192.8	305.65
952.2916	2234.6149	1185.7	301.7
952.4253	2236.0894	1181.85	298.7
952.559	2237.5632	1182.95	298.4
952.6927	2239.0362	1184.25	299.45
952.8263	2240.5085	1181.4	296.75
952.9599	2241.9801	1184.85	298.2
953.0935	2243.4509	1184.25	299.55
953.2271	2244.921	1185	301.5
953.3606	2246.3904	1183.95	297.4
953.4941	2247.8591	1180.25	297.55
953.6276	2249.3271	1177.5	294.2
953.7611	2250.7943	1176.3	292.45
953.8945	2252.2608	1169.85	283.6
954.0279	2253.7266	1169.35	285.2
954.1612	2255.1917	1171.75	286.6
954.2946	2256.656	1174.5	288.25
954.4279	2258.1197	1172.95	289
954.5612	2259.5826	1174.75	289.1
954.6944	2261.0447	1172.85	288.55
954.8276	2262.5062	1179.95	294
954.9608	2263.9669	1171.6	286.75
955.094	2265.4269	1169.8	282.8
955.2271	2266.8862	1167.3	282.95
955.3602	2268.3448	1172.05	288.25
955.4933	2269.8026	1170.5	286.1
955.6264	2271.2598	1167.2	283.2
955.7594	2272.7162	1167.9	284.45
955.8924	2274.1719	1167.9	284.2
956.0253	2275.6268	1164.95	281.5
956.1583	2277.0811	1163.65	279.5
956.2912	2278.5346	1165.05	281.95
956.4241	2279.9874	1156.5	272.5
956.5569	2281.4395	1164.1	280.45
956.6897	2282.8908	1166.3	276.8
956.8225	2284.3414	1158.05	270.5
956.9553	2285.7914	1158.8	274.95
957.088	2287.2406	1160.8	274.65
957.2207	2288.689	1156.7	271
957.3534	2290.1368	1159.15	274.35
957.486	2291.5838	1158.75	273.45
957.6186	2293.0302	1158.35	272.2
957.7512	2294.4758	1159.7	276.3
957.8838	2295.9206	1153.9	266.45
958.0163	2297.3648	1155	269.85
958.1488	2298.8082	1157.1	271.65
958.2813	2300.251	1151.45	267.15
958.4137	2301.693	1154	268.4
958.5461	2303.1343	1149.65	263.95
958.6785	2304.5748	1153.75	269
958.8108	2306.0147	1153.3	267.8
958.9432	2307.4538	1151	263.1
959.0754	2308.8922	1147.65	266.8
959.2077	2310.3299	1145.7	260.8
959.3399	2311.7669	1145.9	261.55
959.4721	2313.2031	1146.2	261.45
959.6043	2314.6387	1144.55	260
959.7365	2316.0735	1146.1	260.1
959.8686	2317.5076	1141.35	256.1
960.0006	2318.941	1142.6	256.6
960.1327	2320.3737	1144.95	260.2
960.2647	2321.8056	1142.5	255.7
960.3967	2323.2369	1142.05	256.1
960.5287	2324.6674	1150.2	262.3
960.6606	2326.0972	1145.75	258.35
960.7925	2327.5263	1143.35	259.7
960.9244	2328.9547	1145	260.05
961.0562	2330.3823	1144.05	258.95
961.1881	2331.8092	1147.8	260.15
961.3198	2333.2355	1139.95	254.2
961.4516	2334.661	1141.5	256.65
961.5833	2336.0858	1132.95	246.8
961.715	2337.5098	1140.3	255.2
961.8467	2338.9332	1137.65	254.3
961.9783	2340.3558	1134.2	246.15
962.1099	2341.7778	1130.65	246.75
962.2415	2343.199	1125.35	237.45
962.373	2344.6195	1127.2	241.35
962.5045	2346.0393	1132.55	249.75
962.636	2347.4583	1132.1	246.95
962.7675	2348.8767	1128.1	241.5
962.8989	2350.2943	1129.2	242.6
963.0303	2351.7113	1125.3	238.35
963.1617	2353.1275	1121.15	236.8
963.293	2354.543	1147.05	237.25
963.4243	2355.9578	1122.75	234.65
963.5556	2357.3718	1123.6	239
963.6868	2358.7852	1127.2	240.65
963.818	2360.1978	1125.3	240.05
963.9492	2361.6098	1119.5	234.85
964.0803	2363.021	1119.6	231.45
964.2114	2364.4315	1118.45	233.95
964.3425	2365.8413	1122.95	234.45
964.4736	2367.2504	1117.3	233.4
964.6046	2368.6587	1116.2	230.3
964.7356	2370.0664	1116.55	232.6
964.8666	2371.4733	1113.95	228.65
964.9975	2372.8795	1112.9	228.35
965.1284	2374.285	1115.1	230.6
965.2593	2375.6899	1113.35	229.25
965.3901	2377.0939	1112.15	228.35
965.5209	2378.4973	1112.5	227.75
965.6517	2379.9	1111.45	226.25
965.7825	2381.3019	1106.75	221.15
965.9132	2382.7032	1107.9	223.4
966.0439	2384.1037	1106.95	222.7
966.1745	2385.5035	1105.8	221.4
966.3051	2386.9027	1105.05	222.2
966.4357	2388.3011	1112.2	221.85
966.5663	2389.6987	1104.05	219.15
966.6968	2391.0957	1102.4	218.7
966.8273	2392.492	1099.2	214.35
966.9578	2393.8876	1108.45	221.9
967.0882	2395.2824	1102.8	217.55
967.2186	2396.6765	1097.3	215.1
967.349	2398.07	1102.35	217.6
967.4793	2399.4627	1099.35	212.35
967.6097	2400.8547	1100.6	214.65
967.7399	2402.246	1103.4	212.45
967.8702	2403.6366	1096.45	209.1
968.0004	2405.0265	1100.65	213.55
968.1306	2406.4156	1097.65	207.9
968.2607	2407.8041	1099.8	212.8
968.3909	2409.1918	1093.5	205.95
968.521	2410.5789	1095.4	209.4
968.651	2411.9652	1098.95	211.15
968.781	2413.3508	1092.4	207.6
968.911	2414.7358	1089.85	203.5
969.041	2416.12	1087.3	203.35
969.1709	2417.5035	1089.25	203.85
969.3008	2418.8863	1095.15	208.3
969.4307	2420.2684	1088.4	202.45
969.5606	2421.6497	1087.95	200.9
969.6904	2423.0304	1080.95	195.4
969.8201	2424.4104	1089.65	205.25
969.9499	2425.7896	1086.5	198
970.0796	2427.1682	1084.6	198.7
970.2093	2428.546	1087	200.3
970.3389	2429.9232	1086.6	200.65
970.4685	2431.2996	1081.5	194.05
970.5981	2432.6753	1083.5	199.9
970.7277	2434.0503	1081.15	192.75
970.8572	2435.4246	1080.25	196.7
970.9867	2436.7982	1084.35	197.05
971.1161	2438.1711	1084	198.7
971.2456	2439.5433	1081.95	193.65
971.375	2440.9148	1081.7	189.45
971.5043	2442.2856	1077.6	193.1
971.6336	2443.6557	1072.85	185.85
971.7629	2445.025	1079.35	193.4
971.8922	2446.3937	1076	192.15
972.0214	2447.7617	1078.95	193.15
972.1506	2449.1289	1077.65	193.15
972.2798	2450.4955	1082.5	194.2
972.4089	2451.8613	1077.55	192.55
972.538	2453.2265	1078.3	194.9
972.6671	2454.5909	1073.45	189.95
972.7961	2455.9546	1074.1	187.5
972.9251	2457.3177	1071.1	186.2
973.0541	2458.68	1071.6	183.45
973.1831	2460.0416	1068.8	182.75
973.312	2461.4025	1073.65	188.2
973.4408	2462.7627	1082.3	184.5
973.5697	2464.1222	1066.05	180.75
973.6985	2465.4811	1068.3	180.85
973.8273	2466.8392	1071.9	187.3
973.956	2468.1966	1069.1	181.95
974.0847	2469.5533	1072.85	185.6
974.2134	2470.9093	1067.35	179.45
974.3421	2472.2645	1067.8	183.1
974.4707	2473.6191	1064.8	179.65
974.5993	2474.973	1065.2	180.45
974.7278	2476.3262	1065.45	178.25
974.8563	2477.6787	1063.1	181.2
974.9848	2479.0305	1063.55	178.7
975.1132	2480.3816	1064	178.75
975.2417	2481.7319	1066	180.6
975.37	2483.0816	1063.2	177
975.4984	2484.4306	1063	174.95
975.6267	2485.7789	1057.1	173.15
975.755	2487.1264	1063.85	177.75
975.8833	2488.4733	1054.65	170.8
976.0115	2489.8195	1061.05	169.2
976.1397	2491.165	1064.5	175.6
976.2678	2492.5097	1059.15	171.3
976.3959	2493.8538	1055.1	170.5
976.524	2495.1972	1055.1	170.4
976.6521	2496.5398	1059.95	173.65
976.7801	2497.8818	1061.45	175.05
976.9081	2499.2231	1057.55	172.05
977.036	2500.5637	1057.5	174.4
977.164	2501.9035	1055	169.35
977.2918	2503.2427	1059.7	168.7
977.4197	2504.5812	1051.15	166.45
977.5475	2505.919	1049.5	161.4
977.6753	2507.256	1052.65	167.35
977.8031	2508.5924	1050.9	164.45
977.9308	2509.9281	1055.65	164.8
978.0585	2511.2631	1048.45	164
978.1861	2512.5974	1048.65	165.35
978.3137	2513.9309	1050.65	167.2
978.4413	2515.2638	1070.9	161.5
978.5689	2516.596	1048.75	164
978.6964	2517.9275	1049.25	162.8
978.8239	2519.2583	1046.8	160.75
978.9513	2520.5884	1049.75	164.45
979.0788	2521.9178	1046.3	162.35
979.2062	2523.2465	1042.45	157
979.3335	2524.5745	1045.8	161.15
979.4608	2525.9018	1045.15	158.3
979.5881	2527.2284	1041.05	157.8
979.7154	2528.5543	1039.75	156.35
979.8426	2529.8796	1044.9	159.2
979.9698	2531.2041	1041	155.95
980.0969	2532.5279	1039.5	155.85
980.224	2533.851	1042.25	154.05
980.3511	2535.1735	1042.4	158.2
980.4781	2536.4952	1037.95	151.5
980.6052	2537.8163	1037.8	153.1
980.7321	2539.1366	1037.55	154.15
980.8591	2540.4562	1035.3	147.95
980.986	2541.7752	1036.75	152.75
981.1129	2543.0935	1038.85	154.25
981.2397	2544.411	1040.25	155.05
981.3665	2545.7279	1034.3	147.9
981.4933	2547.0441	1032.25	147.05
981.62	2548.3596	1041.65	153.9
981.7467	2549.6744	1041.05	156.15
981.8734	2550.9885	1042.4	149.15
982.0001	2552.3019	1036.65	153.05
982.1267	2553.6146	1033.85	148.9
982.2532	2554.9266	1036.55	150.95
982.3798	2556.2379	1033.8	146.3
982.5063	2557.5485	1030.2	146.9
982.6327	2558.8585	1045.3	153.55
982.7592	2560.1677	1039.65	149.45
982.8856	2561.4762	1030.85	145.15
983.0119	2562.7841	1035.15	145.45
983.1383	2564.0913	1029.45	144.75
983.2646	2565.3977	1031.3	147.45
983.3908	2566.7035	1028.2	143.45
983.517	2568.0086	1033.6	146.7
983.6432	2569.313	1028.65	142.5
983.7694	2570.6167	1035.5	147.3
983.8955	2571.9197	1029.25	145.4
984.0216	2573.222	1029.25	140.75
984.1476	2574.5236	1032.45	147.95
984.2737	2575.8246	1035.55	148.2
984.3996	2577.1248	1031.9	144.25
984.5256	2578.4244	1027.4	143.1
984.6515	2579.7232	1028.85	143.7
984.7774	2581.0214	1058.65	144.2
984.9032	2582.3189	1027.4	143.8
985.029	2583.6157	1039.4	141.1
985.1548	2584.9118	1025	139.3
985.2806	2586.2072	1027.15	141.5
985.4063	2587.5019	1022.65	138.65
985.5319	2588.7959	1025.65	139.85
985.6576	2590.0893	1025.85	137
985.7832	2591.3819	1023.6	139.75
985.9087	2592.6739	1023.4	139.55
986.0343	2593.9652	1024.45	137.85
986.1597	2595.2557	1022.75	137.8
986.2852	2596.5456	1022.3	134.85
986.4106	2597.8348	1023.3	138.25
986.536	2599.1234	1021.4	136.9
986.6614	2600.4112	1025.35	141.55
986.7867	2601.6983	1024.2	135.8
986.912	2602.9848	1023.45	137.15
987.0372	2604.2705	1030.65	140.45
987.1624	2605.5556	1018.95	133.7
987.2876	2606.84	1021.75	137.3
987.4128	2608.1237	1022.15	137.55
987.5379	2609.4067	1018.55	132.4
987.6629	2610.689	1025.95	134.1
987.788	2611.9707	1016.1	128.85
987.913	2613.2516	1021.85	132.2
988.0379	2614.5319	1016.6	132.7
988.1629	2615.8115	1018.45	132.75
988.2878	2617.0903	1014.95	129.6
988.4126	2618.3685	1015.25	130.65
988.5375	2619.6461	1013.35	128.65
988.6622	2620.9229	1013.95	127.7
988.787	2622.199	1012.1	125.85
988.9117	2623.4745	1013.5	126.85
989.0364	2624.7493	1015.2	130.75
989.161	2626.0234	1008.8	124.55
989.2857	2627.2968	1013.95	129.5
989.4102	2628.5695	1014.05	126.8
989.5348	2629.8415	1006.15	121.25
989.6593	2631.1128	1008.45	121.65
989.7837	2632.3835	1009.8	124
989.9082	2633.6535	1010.05	124.8
990.0326	2634.9228	1007.5	123.55
990.1569	2636.1914	1007.4	122.25
990.2812	2637.4593	1016.3	124.7
990.4055	2638.7265	1007.45	120.75
990.5298	2639.9931	1009.55	124.4
990.654	2641.259	1007.85	122.05
990.7782	2642.5242	1008.25	123.7
990.9023	2643.7887	1008.9	124.8
991.0264	2645.0525	1006.8	122.4
991.1505	2646.3156	1023.65	124.85
991.2745	2647.5781	1004.2	118.9
991.3985	2648.8398	1003.4	118.95
991.5225	2650.1009	1011.35	119.7
991.6464	2651.3613	1004.5	119.5
991.7703	2652.6211	1002.4	119.5
991.8942	2653.8801	999.75	117.85
992.018	2655.1385	1005	115.95
992.1418	2656.3961	998.9	113.95
992.2655	2657.6531	1000.2	114.2
992.3892	2658.9094	1002.7	119.4
992.5129	2660.1651	998.65	114.5
992.6366	2661.42	1003.6	117.3
992.7602	2662.6743	1005.2	119.9
992.8837	2663.9279	1000.25	116.45
993.0073	2665.1808	994.9	110.4
993.1307	2666.433	999.55	112.6
993.2542	2667.6846	997.8	114
993.3776	2668.9354	998.85	111.7
993.501	2670.1856	1003	117.55
993.6244	2671.4351	998.15	113.75
993.7477	2672.6839	1002.75	115.65
993.8709	2673.9321	996.2	111.25
993.9942	2675.1795	1000.05	115.05
994.1174	2676.4263	997.7	114.3
994.2405	2677.6724	995.95	109.55
994.3637	2678.9179	999	112.5
994.4868	2680.1626	994.95	111.7
994.6098	2681.4067	998.1	112.25
994.7328	2682.6501	998.6	112.55
994.8558	2683.8928	997.05	111.7
994.9788	2685.1348	993.75	110.45
995.1017	2686.3761	994.45	110.15
995.2245	2687.6168	994.55	111.6
995.3474	2688.8568	990.75	105.35
995.4702	2690.0961	992.15	107.2
995.5929	2691.3348	993.45	108
995.7156	2692.5727	990.95	105.65
995.8383	2693.81	989.95	105.45
995.961	2695.0466	990	105.35
996.0836	2696.2826	993.25	109.45
996.2062	2697.5178	994.65	107.55
996.3287	2698.7524	993.4	107.95
996.4512	2699.9863	990.55	103.85
996.5737	2701.2195	988.15	105.4
996.6961	2702.452	993.2	106.8
996.8185	2703.6839	990.6	104.7
996.9408	2704.9151	990.95	106.7
997.0631	2706.1456	989.75	105.2
997.1854	2707.3755	991.8	107.75
997.3077	2708.6046	990.95	104.55
997.4299	2709.8331	991.15	104.75
997.552	2711.0609	987.25	101.6
997.6742	2712.2881	991.35	105.2
997.7963	2713.5145	988.8	100.6
997.9183	2714.7403	986.4	102.7
998.0403	2715.9654	990.4	106.35
998.1623	2717.1899	1008.95	109.2
998.2842	2718.4136	989.8	107.1
998.4062	2719.6367	993.05	108.1
998.528	2720.8591	997.4	105.5
998.6498	2722.0809	994	108.45
998.7716	2723.3019	998.45	109.55
998.8934	2724.5223	992.6	108.4
999.0151	2725.7421	995.6	109
999.1368	2726.9611	995.05	107.35
999.2584	2728.1795	1000.05	111.2
999.38	2729.3972	989.7	105.65
999.5016	2730.6142	998.35	100.1
999.6231	2731.8306	989.6	104.05
999.7446	2733.0462	988.5	101.35
999.8661	2734.2612	990.5	101.1
999.9875	2735.4756	986.95	99.7
1000.1089	2736.6892	984.15	99
1000.2302	2737.9022	985.1	100.25
1000.3515	2739.1145	983.55	98.05
1000.4728	2740.3262	987.8	93.9
1000.594	2741.5372	980.65	96.7
1000.7152	2742.7475	978.7	93.1
1000.8363	2743.9571	980.4	93.6
1000.9575	2745.1661	986.35	96.35
1001.0785	2746.3744	973.4	87.7
1001.1996	2747.582	977.65	93.6
1001.3206	2748.7889	977.3	90.4
1001.4415	2749.9952	975.9	89.45
1001.5625	2751.2008	972.65	87.85
1001.6833	2752.4057	977.65	91.9
1001.8042	2753.61	975.75	87.45
1001.925	2754.8136	972.7	85.25
1002.0458	2756.0165	972.6	88.9
1002.1665	2757.2188	971.6	88.75
1002.2872	2758.4204	972.95	88.45
1002.4078	2759.6213	972.25	85.85
1002.5285	2760.8215	975.45	85.9
1002.649	2762.0211	973.85	88.9
1002.7696	2763.22	973.5	85
1002.8901	2764.4182	973.05	86
1003.0106	2765.6158	971.95	86.55
1003.131	2766.8127	970.2	86.3
1003.2514	2768.009	969.65	85.35
1003.3717	2769.2045	972.7	86.5
1003.492	2770.3994	971.85	84.55
1003.6123	2771.5936	970.55	84.9
1003.7325	2772.7872	965.1	81.45
1003.8527	2773.9801	966.95	81.55
1003.9729	2775.1723	981.85	80.1
1004.093	2776.3639	963.6	80.15
1004.2131	2777.5548	968.8	80.95
1004.3331	2778.745	965.3	79.15
1004.4531	2779.9346	965.1	80
1004.5731	2781.1235	968.15	81.75
1004.693	2782.3117	963.9	80.55
1004.8129	2783.4992	963.75	79.25
1004.9328	2784.6861	964.1	77
1005.0526	2785.8723	965.9	81.95
1005.1723	2787.0579	966.9	81.55
1005.2921	2788.2428	963.75	79.9
1005.4118	2789.427	962.4	77.75
1005.5314	2790.6106	962.75	77.05
1005.651	2791.7935	963.2	77.5
1005.7706	2792.9757	962.65	78.9
1005.8902	2794.1573	964.05	75.35
1006.0097	2795.3382	964.4	78.6
1006.1291	2796.5184	962.3	79.65
1006.2485	2797.698	964.3	78.5
1006.3679	2798.8769	963.65	77.9
1006.4873	2800.0551	963.2	78.15
1006.6066	2801.2327	967.55	81.65
1006.7258	2802.4096	963.05	78.8
1006.8451	2803.5859	963.95	78.35
1006.9642	2804.7615	962.05	75.1
1007.0834	2805.9364	962.7	78.65
1007.2025	2807.1106	963.6	78.9
1007.3216	2808.2842	967.3	81.5
1007.4406	2809.4572	965.9	82
1007.5596	2810.6294	968.05	81.55
1007.6785	2811.801	964.95	81.5
1007.7975	2812.972	972.05	89.45
1007.9163	2814.1423	971.55	87.65
1008.0352	2815.3119	969.3	85.75
1008.154	2816.4808	974.65	92.15
1008.2727	2817.6491	976.65	92.2
1008.3914	2818.8167	979.25	95.1
1008.5101	2819.9837	987.9	98.15
1008.6288	2821.15	984.75	103
1008.7474	2822.3157	992.5	108.4
1008.8659	2823.4807	998.8	114.55
1008.9844	2824.645	1008.55	124.05
1009.1029	2825.8086	1014.6	131.5
1009.2214	2826.9716	1011.95	128.9
1009.3398	2828.134	1024.1	139.8
1009.4581	2829.2957	1032.8	149.2
1009.5764	2830.4567	1032.2	149.45
1009.6947	2831.617	1038.25	153.15
1009.813	2832.7767	1043.55	157.55
1009.9312	2833.9358	1040.1	155.65
1010.0493	2835.0941	1042.8	154.4
1010.1675	2836.2519	1033.45	147.4
1010.2855	2837.4089	1038.95	155.35
1010.4036	2838.5653	1027.8	145.15
1010.5216	2839.7211	1027.75	145.35
1010.6396	2840.8761	1027.65	144.3
1010.7575	2842.0306	1026.35	144.45
1010.8754	2843.1843	1024	139.7
1010.9932	2844.3374	1026.55	141.8
1011.111	2845.4899	1027.3	141.6
1011.2288	2846.6417	1028.15	141.45
1011.3465	2847.7928	1029.3	146.65
1011.4642	2848.9433	1032.1	148.5
1011.5818	2850.0931	1029	144.6
1011.6995	2851.2422	1032.3	148.3
1011.817	2852.3907	1033.1	146.75
1011.9345	2853.5385	1034.15	148.25
1012.052	2854.6857	1046.3	154.15
1012.1695	2855.8323	1031.2	147.05
1012.2869	2856.9781	1030.45	145.85
1012.4042	2858.1233	1038.65	153.9
1012.5216	2859.2679	1040.55	157.75
1012.6389	2860.4118	1044.4	160.3
1012.7561	2861.555	1051.25	162.3
1012.8733	2862.6976	1054.6	166.9
1012.9905	2863.8395	1056.3	172
1013.1076	2864.9808	1055.25	171.2
1013.2247	2866.1214	1050.1	165.6
1013.3417	2867.2614	1054.95	169.15
1013.4587	2868.4007	1060.25	174.3
1013.5757	2869.5393	1062.45	174.35
1013.6926	2870.6773	1061.4	173.8
1013.8095	2871.8146	1064.7	177.6
1013.9263	2872.9513	1066.15	180.05
1014.0431	2874.0874	1072.3	188.6
1014.1599	2875.2227	1073	188.15
1014.2766	2876.3574	1068.8	184.45
1014.3933	2877.4915	1074.4	190.7
1014.51	2878.6249	1074.6	192.55
1014.6266	2879.7577	1080.8	194.1
1014.7431	2880.8898	1091.05	194.45
1014.8596	2882.0212	1078.85	195.15
1014.9761	2883.152	1081.2	197.2
1015.0925	2884.2821	1086.75	201.1
1015.2089	2885.4116	1084.7	202.45
1015.3253	2886.5405	1090.75	206.8
1015.4416	2887.6686	1086.6	200.6
1015.5579	2888.7962	1084.3	201.15
1015.6741	2889.923	1083.7	202.05
1015.7903	2891.0493	1088	204.6
1015.9065	2892.1748	1089	202.8
1016.0226	2893.2997	1086.1	201.35
1016.1387	2894.424	1090.45	207.05
1016.2547	2895.5476	1080.25	195.85
1016.3707	2896.6706	1086.1	204.05
1016.4866	2897.7929	1089.35	203
1016.6025	2898.9145	1088.9	204.2
1016.7184	2900.0355	1090.6	207.15
1016.8342	2901.1559	1088.2	202.9
1016.95	2902.2756	1090.9	204.6
1017.0658	2903.3946	1083.05	198.35
1017.1815	2904.513	1085.05	197.15
1017.2971	2905.6308	1079.35	195.55
1017.4127	2906.7479	1077.5	190.35
1017.5283	2907.8643	1077.75	192.9
1017.6439	2908.9801	1079.55	196.3
1017.7594	2910.0953	1079.5	196.65
1017.8748	2911.2098	1081.35	192.7
1017.9902	2912.3236	1090.3	198.35
1018.1056	2913.4368	1081.75	193.85
1018.2209	2914.5494	1078.8	194.65
1018.3362	2915.6613	1082	191.55
1018.4515	2916.7725	1074.85	188.7
1018.5667	2917.8831	1070.7	185.3
1018.6819	2918.9931	1073.3	187.75
1018.797	2920.1024	1066.2	180.75
1018.9121	2921.211	1066.9	183.2
1019.0271	2922.319	1060	174.25
1019.1421	2923.4264	1062.6	179.75
1019.2571	2924.5331	1053.4	169.85
1019.372	2925.6391	1056.8	174.25
1019.4869	2926.7445	1056.8	172.65
1019.6017	2927.8493	1058.55	173.55
1019.7165	2928.9534	1061.65	176.3
1019.8313	2930.0569	1065.65	179.2
1019.946	2931.1597	1058.2	173.1
1020.0606	2932.2619	1061.1	175.85
1020.1753	2933.3634	1060.7	177.4
1020.2899	2934.4643	1067.8	175.8
1020.4044	2935.5645	1071.6	181.3
1020.5189	2936.6641	1069.5	181.05
1020.6334	2937.763	1063.85	181.15
1020.7478	2938.8613	1069.45	186.5
1020.8622	2939.959	1072.95	184.55
1020.9765	2941.056	1064.5	181.4
1021.0908	2942.1523	1058	172.2
1021.2051	2943.248	1050.1	163.4
1021.3193	2944.3431	1041.7	158.75
1021.4334	2945.4375	1037.2	153.2
1021.5476	2946.5313	1031.2	147.45
1021.6617	2947.6244	1024.35	140.45
1021.7757	2948.7169	1018.55	134.5
1021.8897	2949.8087	1011.1	126.85
1022.0037	2950.8999	1008.05	123.2
1022.1176	2951.9904	1002.8	117.05
1022.2315	2953.0803	996.55	111.25
1022.3453	2954.1696	996.65	111.5
1022.4591	2955.2582	993.2	110.65
1022.5728	2956.3462	987.3	104.2
1022.6865	2957.4335	985.6	101.2
1022.8002	2958.5202	988.55	104.3
1022.9138	2959.6062	984.2	99.4
1023.0274	2960.6916	986.6	101.85
1023.141	2961.7764	988.55	104.1
1023.2545	2962.8605	983.95	98.7
1023.3679	2963.9439	983.4	99.15
1023.4813	2965.0267	985.35	100.3
1023.5947	2966.1089	1006.25	95.95
1023.708	2967.1905	986.2	102.35
1023.8213	2968.2714	981.95	98.85
1023.9346	2969.3516	977.4	94.8
1024.0478	2970.4312	983.5	92.4
1024.1609	2971.5102	979.9	94.6
1024.274	2972.5885	977.6	91
1024.3871	2973.6662	982.65	92.3
1024.5002	2974.7432	980.1	98.2
1024.6132	2975.8196	982.45	98.15
1024.7261	2976.8954	976.8	91.9
1024.839	2977.9705	981.15	96.55
1024.9519	2979.045	978.85	94
1025.0647	2980.1188	979.6	97.05
1025.1775	2981.192	981	98.55
1025.2902	2982.2645	979.7	94.25
1025.4029	2983.3364	975.5	91.8
1025.5156	2984.4077	969.65	87.05
1025.6282	2985.4783	978.4	88.4
1025.7407	2986.5483	968.55	85.3
1025.8532	2987.6177	966.5	83.8
1025.9657	2988.6864	966.05	79.55
1026.0782	2989.7545	965.55	79.1
1026.1906	2990.8219	962.25	78.6
1026.3029	2991.8887	962.45	75.55
1026.4152	2992.9548	959.35	73.15
1026.5275	2994.0204	955.9	73.2
1026.6397	2995.0852	951.9	68.55
1026.7519	2996.1495	952.5	68.4
1026.864	2997.2131	947.85	62.65
1026.9761	2998.276	942.55	58.65
1027.0882	2999.3383	941.45	56.8
1027.2002	3000.4	941.2	57.1
1027.3122	3001.4611	939.9	56.05
1027.4241	3002.5215	938.45	53.8
1027.536	3003.5812	937.8	55.4
1027.6478	3004.6404	936.15	52.05
1027.7596	3005.6989	935.75	49
1027.8714	3006.7567	931.75	47.2
1027.9831	3007.8139	950.15	45.1
1028.0947	3008.8705	932.3	47.55
1028.2064	3009.9264	932.45	44.75
1028.3179	3010.9818	929	44.3
1028.4295	3012.0364	928.5	43.55
1028.541	3013.0905	927.6	42.35
1028.6524	3014.1439	927.8	44.2
1028.7638	3015.1966	929.3	44.5
1028.8752	3016.2487	929.4	45.15
1028.9865	3017.3002	932.9	43.8
1029.0978	3018.3511	924.45	41.75
1029.209	3019.4013	927.55	43.35
1029.3202	3020.4509	924	40.45
1029.4314	3021.4998	926.1	43.05
1029.5425	3022.5481	925.6	41.7
1029.6535	3023.5958	927.4	43.2
1029.7645	3024.6428	926.5	41.5
1029.8755	3025.6892	921.8	37.5
1029.9864	3026.735	925.3	40.5
1030.0973	3027.7802	925.9	41.6
1030.2082	3028.8247	926	42.85
1030.319	3029.8685	926.15	41.4
1030.4297	3030.9118	924.75	40.7
1030.5404	3031.9544	924.85	41.65
1030.6511	3032.9963	924.5	40.8
1030.7617	3034.0376	922.75	40.3
1030.8723	3035.0783	928.1	40.65
1030.9829	3036.1184	925.65	40.5
1031.0934	3037.1578	922.25	38.5
1031.2038	3038.1966	924.55	39.9
1031.3142	3039.2348	924.4	40.5
1031.4246	3040.2723	933.9	42.2
1031.5349	3041.3092	923.75	41.75
1031.6452	3042.3455	924.75	42.4
1031.7554	3043.3811	925.95	40.7
1031.8656	3044.4161	924.4	39.6
1031.9758	3045.4505	922.3	38.9
1032.0859	3046.4842	922.6	37.85
1032.1959	3047.5173	922.2	38.1
1032.3059	3048.5498	924.55	40.6
1032.4159	3049.5816	924.4	43.45
1032.5258	3050.6128	926.65	41.7
1032.6357	3051.6434	926.05	41.6
1032.7455	3052.6734	925.25	39.85
1032.8553	3053.7027	922.7	37.1
1032.9651	3054.7314	923.7	40.45
1033.0748	3055.7594	926	43.75
1033.1845	3056.7868	926.15	40.65
1033.2941	3057.8136	923.5	38.95
1033.4037	3058.8398	921.9	37.7
1033.5132	3059.8653	924.1	40.8
1033.6227	3060.8902	921.6	39
1033.7321	3061.9145	925.05	41.05
1033.8415	3062.9381	924.35	40.5
1033.9509	3063.9612	940.15	41
1034.0602	3064.9835	923.3	40.1
1034.1694	3066.0053	928.35	43.3
1034.2787	3067.0264	925.5	41
1034.3878	3068.0469	922.7	38.2
1034.497	3069.0668	927.9	40.6
1034.6061	3070.086	922.8	39.35
1034.7151	3071.1046	927.45	41.2
1034.8241	3072.1226	925.8	41.4
1034.9331	3073.1399	922.8	38.2
1035.042	3074.1567	922.35	40.3
1035.1508	3075.1727	924.25	39.3
1035.2597	3076.1882	922.7	38.95
1035.3684	3077.203	918.85	33.55
1035.4772	3078.2173	922.9	37.65
1035.5859	3079.2308	925.1	36.3
1035.6945	3080.2438	921.2	34.3
1035.8031	3081.2561	919	34.3
1035.9117	3082.2678	919.9	35.65
1036.0202	3083.2789	917.6	34.35
1036.1286	3084.2893	916.7	31.75
1036.2371	3085.2991	916.7	32.1
1036.3454	3086.3083	920.9	33.3
1036.4538	3087.3169	918.25	32.3
1036.562	3088.3248	919.5	35.75
1036.6703	3089.3321	919	35.4
1036.7785	3090.3388	911.6	27.15
1036.8866	3091.3449	915.65	29.35
1036.9948	3092.3503	915.8	28.9
1037.1028	3093.3551	913.55	32.05
1037.2108	3094.3593	912.45	30.85
1037.3188	3095.3629	914.4	30.45
1037.4267	3096.3658	915.65	31.25
1037.5346	3097.3681	911.15	26.35
1037.6425	3098.3698	913.9	30.55
1037.7503	3099.3708	921.15	30.55
1037.858	3100.3713	914.4	31.35
1037.9657	3101.3711	913.7	28.5
1038.0734	3102.3702	1053.1	28.6
1038.181	3103.3688	915.8	30.25
1038.2886	3104.3667	908.9	27.25
1038.3961	3105.364	908.85	24.75
1038.5036	3106.3607	912.7	27.75
1038.611	3107.3568	911.45	27.6
1038.7184	3108.3522	908.45	24.95
1038.8257	3109.347	911.15	25.65
1038.933	3110.3412	913.7	25.5
1039.0403	3111.3348	909.8	25.55
1039.1475	3112.3277	909.65	25.1
1039.2547	3113.32	908.4	23.5
1039.3618	3114.3117	910.2	24.75
1039.4689	3115.3028	908.3	24.95
1039.5759	3116.2932	912.5	27.15
1039.6829	3117.2831	915.55	24.85
1039.7898	3118.2723	908	25.75
1039.8967	3119.2608	908.4	25.05
1040.0035	3120.2488	905.3	20.9
1040.1103	3121.2361	908.65	23.2
1040.2171	3122.2229	908.4	24.25
1040.3238	3123.209	907.5	21.6
1040.4305	3124.1944	908.25	23.8
1040.5371	3125.1793	910.05	24.85
1040.6437	3126.1635	904.9	23.95
1040.7502	3127.1471	906.35	23.8
1040.8567	3128.1301	905.05	20.5
1040.9631	3129.1125	906	20.85
1041.0695	3130.0942	908.3	22.75
1041.1759	3131.0753	914.3	21.55
1041.2822	3132.0558	906.5	18.45
1041.3884	3133.0357	905.55	20.95
1041.4946	3134.015	905.35	20.85
1041.6008	3134.9936	908.65	22.55
1041.7069	3135.9716	926	21.7
1041.813	3136.949	906	22.75
1041.919	3137.9258	924.55	22.2
1042.025	3138.902	910.85	23.55
1042.1309	3139.8775	906.35	22.2
1042.2368	3140.8524	907.3	21.8
1042.3427	3141.8267	905.2	19.45
1042.4485	3142.8004	903.95	19.95
1042.5542	3143.7735	911.8	22.25
1042.6599	3144.7459	906.65	20.45
1042.7656	3145.7178	906.7	23.05
1042.8712	3146.689	903.5	20.3
1042.9768	3147.6596	902.65	17.3
1043.0823	3148.6295	904.75	21.65
1043.1878	3149.5989	904.95	20
1043.2932	3150.5676	903.25	20.05
1043.3986	3151.5357	903.7	20
1043.5039	3152.5032	902.35	20.6
1043.6092	3153.4701	904.3	19.3
1043.7145	3154.4364	905.95	20.75
1043.8197	3155.402	901.6	17.95
1043.9248	3156.367	904.65	18.55
1044.03	3157.3315	940.9	22.3
1044.135	3158.2952	904.15	21.65
1044.24	3159.2584	902.95	20.2
1044.345	3160.221	901.95	17.4
1044.4499	3161.1829	902.85	18
1044.5548	3162.1442	900.45	16.6
1044.6596	3163.105	901.7	17.35
1044.7644	3164.065	901.9	18.35
1044.8692	3165.0245	903.65	19.15
1044.9739	3165.9834	901.6	18.2
1045.0785	3166.9416	900.75	17.55
1045.1831	3167.8993	902.65	18.8
1045.2877	3168.8563	901.85	16.6
1045.3922	3169.8127	898.95	13.85
1045.4966	3170.7684	899.65	15.55
1045.6011	3171.7236	902.4	17.4
1045.7054	3172.6782	901.55	17.3
1045.8098	3173.6321	902.65	20.85
1045.914	3174.5854	903.9	14.9
1046.0183	3175.5381	899.55	16.05
1046.1224	3176.4902	899.05	15.75
1046.2266	3177.4417	901.75	17.5
1046.3307	3178.3926	900.95	16.6
1046.4347	3179.3428	899.75	16.45
1046.5387	3180.2924	899.95	18.3
1046.6427	3181.2415	900.2	15.55
1046.7466	3182.1899	903	16.95
1046.8504	3183.1377	899.6	13.95
1046.9542	3184.0848	904.45	18.95
1047.058	3185.0314	899.2	15
1047.1617	3185.9773	897.6	14.9
1047.2654	3186.9227	903.2	16.7
1047.369	3187.8674	900.05	16.9
1047.4726	3188.8115	902	13.75
1047.5761	3189.755	897.8	13
1047.6796	3190.6979	898.65	15.35
1047.783	3191.6402	897.65	14.85
1047.8864	3192.5818	899.6	18.6
1047.9898	3193.5229	908.45	18.85
1048.0931	3194.4633	898.2	15.75
1048.1963	3195.4031	898.25	13.9
1048.2995	3196.3423	899.5	16.1
1048.4027	3197.2809	899.95	14.8
1048.5058	3198.2189	900.1	15.85
1048.6089	3199.1563	907.5	17.05
1048.7119	3200.0931	900.7	16.7
1048.8148	3201.0292	893.95	12
1048.9178	3201.9648	896.7	12.5
1049.0206	3202.8997	900.55	12.85
1049.1235	3203.834	899.55	16.3
1049.2262	3204.7677	897.9	14.5
1049.329	3205.7008	900.3	13.4
1049.4317	3206.6333	895.95	14.5
1049.5343	3207.5652	899.2	13
1049.6369	3208.4964	898.65	16.45
1049.7394	3209.4271	898.05	16.2
1049.8419	3210.3571	895.55	10.65
1049.9444	3211.2865	898.8	13.8
1050.0468	3212.2154	897.6	11.1
1050.1491	3213.1436	898.55	11.9
1050.2514	3214.0712	903.7	13.75
1050.3537	3214.9982	900.35	16.05
1050.4559	3215.9246	898.7	13.2
1050.5581	3216.8503	896.85	15.75
1050.6602	3217.7755	894.15	9.35
1050.7623	3218.7001	899.25	14.25
1050.8643	3219.624	896.8	11.9
1050.9663	3220.5473	898.75	15.75
1051.0682	3221.4701	898.95	13.95
1051.1701	3222.3922	898.85	13.9
1051.2719	3223.3137	896.6	14.15
1051.3737	3224.2346	896.35	11.55
1051.4754	3225.1549	895.75	11.15
1051.5771	3226.0746	897.5	13.8
1051.6788	3226.9937	897.55	13.75
1051.7804	3227.9121	897.7	15
1051.8819	3228.83	894.55	8.2
1051.9834	3229.7473	895.95	11.55
1052.0849	3230.6639	895.4	12.65
1052.1863	3231.5799	893.95	11.8
1052.2876	3232.4954	897.1	12.95
1052.3889	3233.4102	896.85	13.45
1052.4902	3234.3244	896.55	12.1
1052.5914	3235.238	896.55	12.95
1052.6926	3236.151	910.85	10.1
1052.7937	3237.0634	897.6	12.85
1052.8948	3237.9752	894.7	11.15
1052.9958	3238.8864	895.55	12.4
1053.0968	3239.797	894.75	10.25
1053.1977	3240.7069	896.6	11.3
1053.2986	3241.6163	896.15	8.2
1053.3994	3242.5251	894.4	13
1053.5002	3243.4332	894.7	14.05
1053.6009	3244.3408	895.8	11.8
1053.7016	3245.2477	897.05	13.4
1053.8022	3246.154	896.55	13.65
1053.9028	3247.0598	896.8	10.95
1054.0034	3247.9649	895.1	8.8
1054.1039	3248.8694	892.9	8.5
1054.2043	3249.7733	892.85	9.95
1054.3047	3250.6766	896.1	11.9
1054.4051	3251.5793	897.6	12.45
1054.5054	3252.4814	893.85	12.3
1054.6056	3253.3829	894.55	10.65
1054.7058	3254.2838	895.6	12.15
1054.806	3255.1841	892.2	7.9
1054.9061	3256.0838	895.4	12.75
1055.0061	3256.9829	892.35	8.85
1055.1062	3257.8814	898	11.1
1055.2061	3258.7792	897.2	12.5
1055.306	3259.6765	895.95	9.8
1055.4059	3260.5731	892.2	8.3
1055.5057	3261.4692	893.2	9.25
1055.6055	3262.3647	892.05	8.7
1055.7052	3263.2595	895.45	12.95
1055.8049	3264.1538	893.05	11.25
1055.9045	3265.0474	894.4	9.8
1056.0041	3265.9404	894.1	10.6
1056.1036	3266.8329	893	10.65
1056.2031	3267.7247	901.45	6.15
1056.3025	3268.616	891.1	7.85
1056.4019	3269.5066	892.5	8.95
1056.5013	3270.3966	892.55	8.9
1056.6005	3271.286	890.95	9.1
