Software Version:	3.9.2.0
Unit SN:	10000200
Spectrometer SN:	6960
Date:	3/26/2024 1:48:15 PM
Data Line Index:	25
Spectral Points:	2048
Integration time (ms):	125
Averages:	20
Delay (ms):	30000
Sequence Number:	1
Processing:	dark subtract
Laser Power (mW):	305
Laser Current (mA):	820
Laser Diode Temp (C):	25
Laser Case Temp (C):	27.2
System Temp (C):	27.3
Spectrometer Temp (C):	25.1
CCD Temp (C):	0.007
Secondary Temp (C):	20.004
Heatsink Temp (C):	22.477
CCDPCB Temp (C):	36.774
SecondaryPCB Temp (C):	34.006

Wavelength	RamanShift	Raw Counts	Dark Subtracted
787.061	30.1047	609.55	198.35
787.2016	32.3739	615.55	206.65
787.3422	34.6426	631.3	220.7
787.4828	36.9109	646.25	231.85
787.6235	39.1787	665.8	249.8
787.7642	41.4461	688.15	267.6
787.9049	43.7131	706.25	282.95
788.0456	45.9796	724.15	294.7
788.1863	48.2456	750.1	315.8
788.3271	50.5112	771.25	335.3
788.4679	52.7764	798.4	360.4
788.6087	55.0411	824.75	383.5
788.7496	57.3054	845.35	398
788.8904	59.5692	878.5	429.1
789.0313	61.8326	904.95	451.65
789.1722	64.0955	940.2	483.55
789.3132	66.3579	984.85	521.7
789.4541	68.6199	1035.55	571.4
789.5951	70.8815	1125.1	658.05
789.7361	73.1426	1296.5	823.8
789.8771	75.4032	1762.2	1284.5
790.0181	77.6634	2885.55	2399.7
790.1592	79.9231	5681.85	5185.75
790.3003	82.1824	12103.95	11588.3
790.4414	84.4412	25169.05	24612.1
790.5825	86.6995	48777.3	48168.15
790.7237	88.9574	61628	60965.4
790.8648	91.2148	64649.35	63957.35
791.006	93.4717	64895.7	64182.35
791.1472	95.7282	64960.65	64232.35
791.2885	97.9842	64991.5	64258.55
791.4297	100.2398	64986.25	64250.9
791.571	102.4949	64971.5	64235.65
791.7123	104.7495	64972.15	64228.55
791.8536	107.0036	64936.75	64196.2
791.9949	109.2573	64967.1	64222.3
792.1363	111.5105	64932.7	64190.65
792.2777	113.7632	64932.4	64185.85
792.4191	116.0154	64930.7	64170.65
792.5605	118.2672	64955.55	64201
792.7019	120.5185	64946.05	64193.65
792.8434	122.7693	64936.45	64183.7
792.9849	125.0197	64898.05	64144.95
793.1264	127.2696	64974.5	64219.65
793.2679	129.519	64962.6	64195.2
793.4094	131.7679	64979.95	64210.3
793.551	134.0163	64906.7	64134.4
793.6926	136.2642	64926.9	64155.2
793.8342	138.5117	64971.9	64193.5
793.9758	140.7587	64952.2	64167.05
794.1175	143.0052	64945.95	64157.85
794.2591	145.2512	64894.45	64115.85
794.4008	147.4967	64946.4	64165.6
794.5425	149.7417	64919.65	64138.25
794.6842	151.9863	64923.3	64132.95
794.826	154.2304	64881.4	64084.8
794.9677	156.4739	64912.3	64112.15
795.1095	158.717	64938.2	64136.45
795.2513	160.9596	64907.55	64107.25
795.3931	163.2017	64861.4	64056.7
795.535	165.4433	64914.45	64106.3
795.6768	167.6844	64877.8	64072.05
795.8187	169.925	64893	64080.85
795.9606	172.1651	64862.05	64051.2
796.1025	174.4047	64866.6	64052.4
796.2445	176.6439	64863.35	64052.65
796.3864	178.8825	64855.55	64041.3
796.5284	181.1206	64888.05	64062.7
796.6704	183.3582	64878.1	64050.3
796.8124	185.5954	64850.85	64021.5
796.9544	187.832	64858.6	64025.45
797.0965	190.0681	64824.25	63992.9
797.2386	192.3037	64881.55	64041.55
797.3806	194.5388	64931.4	64088.55
797.5228	196.7734	64793.55	63945.7
797.6649	199.0075	64902.55	64055.35
797.807	201.2411	64875.7	64020.65
797.9492	203.4742	64919.8	64067.45
798.0914	205.7068	64911.65	64064.25
798.2336	207.9389	64906	64050.95
798.3758	210.1704	64896.9	64039.2
798.518	212.4015	64944.75	64087.1
798.6603	214.632	64891.95	64036.3
798.8025	216.862	64944.8	64096.9
798.9448	219.0915	64933.9	64092.85
799.0871	221.3205	64905.05	64064.95
799.2294	223.549	64944	64107.6
799.3718	225.777	64947.6	64111.55
799.5141	228.0044	64960.3	64125.25
799.6565	230.2314	64947.85	64112.05
799.7989	232.4578	64953.3	64118.4
799.9413	234.6837	64959.4	64120.6
800.0837	236.909	65034.25	64188.75
800.2262	239.1339	64931.05	64058.45
800.3687	241.3582	64973.6	64109.5
800.5111	243.582	64969.25	64084.45
800.6536	245.8053	64970.95	64096.6
800.7961	248.0281	64965	64094.95
800.9387	250.2503	64978.65	64106.2
801.0812	252.472	64954.25	64076.4
801.2238	254.6932	64960.85	64077.65
801.3664	256.9139	64948.3	64066.15
801.509	259.134	65020.6	64133.1
801.6516	261.3536	64937.45	64054.85
801.7942	263.5727	65002.5	64116.75
801.9369	265.7912	64960.95	64079.9
802.0795	268.0092	64978.9	64098.05
802.2222	270.2267	64977.75	64093.2
802.3649	272.4436	64955.65	64067.25
802.5076	274.6601	64975.4	64083.1
802.6504	276.8759	64991.1	64105.55
802.7931	279.0913	64989.85	64099.15
802.9359	281.3061	64976.7	64084.4
803.0787	283.5204	64990.6	64091.95
803.2215	285.7341	64981.1	64084.2
803.3643	287.9473	65014	64102.1
803.5071	290.16	64969.6	64064.45
803.6499	292.3721	65009.1	64109.1
803.7928	294.5837	64973.5	64066.8
803.9357	296.7947	64954.55	64050.85
804.0786	299.0052	65003.7	64103.3
804.2215	301.2152	64974.55	64071.3
804.3644	303.4246	65012.8	64115.85
804.5074	305.6334	65003.15	64107.85
804.6503	307.8418	64948.3	64044.45
804.7933	310.0495	64962.6	64060.35
804.9363	312.2568	64940.85	64035.55
805.0793	314.4635	64935.65	64031.3
805.2223	316.6696	64943.55	64039.25
805.3653	318.8752	64973.1	64057.5
805.5084	321.0802	64901.65	63994.55
805.6514	323.2847	64921.2	64016.05
805.7945	325.4887	64929.8	64021.7
805.9376	327.692	64907	63992
806.0807	329.8949	64919.15	64005.55
806.2238	332.0972	64904.9	63988.3
806.367	334.2989	64911.05	63992.1
806.5101	336.5001	64930.8	64013.3
806.6533	338.7007	64886.5	63964.1
806.7965	340.9008	64900	63978.95
806.9397	343.1003	64905	63985.25
807.0829	345.2992	64916.45	63995.85
807.2261	347.4976	64882.55	63960.05
807.3693	349.6955	64895.7	63973.3
807.5126	351.8927	64886.75	63958.4
807.6559	354.0895	64904.55	63966.15
807.7991	356.2856	64891.45	63961.45
807.9424	358.4812	64900.8	63974.6
808.0857	360.6763	64883.05	63953.15
808.2291	362.8707	64889.15	63961.2
808.3724	365.0646	64884.4	63956.1
808.5158	367.258	64895.2	63963.5
808.6591	369.4508	64873.1	63936.7
808.8025	371.643	64901.1	63962.85
808.9459	373.8346	64887	63951.3
809.0893	376.0257	64877.05	63935.9
809.2327	378.2162	64873.55	63936.3
809.3762	380.4062	64857.35	63918.9
809.5196	382.5956	64856.1	63920.65
809.6631	384.7844	64865.2	63927.15
809.8066	386.9726	64866.65	63930.45
809.9501	389.1603	64872.15	63936.95
810.0936	391.3474	64833.3	63861.25
810.2371	393.5339	64858.05	63921.35
810.3806	395.7199	64831.9	63897.65
810.5241	397.9052	64834.15	63906
810.6677	400.09	64834.35	63904.45
810.8113	402.2743	64837.75	63907.45
810.9548	404.4579	64838.8	63909.15
811.0984	406.641	64831.1	63906
811.2421	408.8235	64852.35	63926.1
811.3857	411.0054	64855.85	63925.2
811.5293	413.1868	64858.6	63923.7
811.673	415.3675	64853.45	63917.25
811.8166	417.5477	64848.45	63909.9
811.9603	419.7273	64857.75	63918.6
812.104	421.9064	64846.65	63903.3
812.2477	424.0848	64851.8	63910.05
812.3914	426.2627	64869.5	63924.65
812.5351	428.4399	64831.1	63886.75
812.6788	430.6166	64797.75	63846.45
812.8226	432.7928	64813.9	63865.1
812.9663	434.9683	64787.75	63845.2
813.1101	437.1432	64781.6	63839.85
813.2539	439.3176	64790.8	63854.75
813.3977	441.4914	64748.1	63811.5
813.5415	443.6645	64760.9	63821.95
813.6853	445.8371	64751.8	63808.5
813.8291	448.0091	64723.95	63782.35
813.973	450.1806	64708.15	63769.65
814.1168	452.3514	64716	63780.7
814.2607	454.5216	64646.9	63703.2
814.4046	456.6913	64712.45	63768.8
814.5485	458.8603	64718.6	63784.8
814.6924	461.0288	64643.35	63714.05
814.8363	463.1967	64714.2	63783.8
814.9802	465.3639	64696	63760.7
815.1241	467.5306	64531.85	63595.05
815.2681	469.6967	64652.7	63720.35
815.412	471.8622	64693.65	63765.05
815.556	474.0271	64652.9	63716.4
815.7	476.1914	64671.85	63726.9
815.844	478.3551	64659.1	63719.45
815.988	480.5182	64730.45	63791.45
816.132	482.6807	64634.3	63710.75
816.276	484.8426	64644.75	63723.8
816.4201	487.0039	64739.95	63810.15
816.5641	489.1647	64734.8	63789.45
816.7082	491.3248	64684.25	63739.2
816.8522	493.4843	64738.4	63807.7
816.9963	495.6432	64750.35	63819.4
817.1404	497.8015	64650.7	63704.95
817.2845	499.9592	64723.6	63766.3
817.4286	502.1163	64718.1	63764.65
817.5727	504.2728	64702.2	63759.3
817.7168	506.4287	64670.15	63743.1
817.861	508.5839	64582.65	63652.8
818.0051	510.7386	64647.75	63710.95
818.1493	512.8927	64663.85	63720.4
818.2935	515.0461	64635.9	63689.9
818.4377	517.199	64680.7	63731.3
818.5818	519.3512	64600.75	63650.2
818.726	521.5029	64633.8	63681.2
818.8703	523.6539	64652.5	63705.2
819.0145	525.8043	64533.3	63583.5
819.1587	527.9541	64632.85	63683.15
819.303	530.1033	64618.25	63673.3
819.4472	532.2519	64556.45	63608.5
819.5915	534.3999	64647.4	63696.5
819.7357	536.5472	64677.65	63733.35
819.88	538.694	64565.1	63619.95
820.0243	540.8401	64651.4	63700.7
820.1686	542.9856	64669.95	63709.5
820.3129	545.1305	64701.5	63731.05
820.4572	547.2748	64605.2	63633.65
820.6016	549.4185	64566.3	63592.5
820.7459	551.5615	64654.65	63688.1
820.8902	553.704	64637.95	63672.4
821.0346	555.8458	64586.65	63624.15
821.1789	557.987	64613.9	63653.1
821.3233	560.1276	64627.5	63665.15
821.4677	562.2675	64614.5	63648.85
821.6121	564.4069	64643.9	63679.25
821.7565	566.5456	64689.85	63732.95
821.9009	568.6837	64592.2	63634.3
822.0453	570.8212	64616.55	63662.9
822.1897	572.958	64408.8	63451.3
822.3342	575.0942	64555.9	63601.6
822.4786	577.2299	64442.15	63495.35
822.6231	579.3648	64371.35	63434.85
822.7675	581.4992	64344.9	63427.45
822.912	583.6329	64349.25	63426.25
823.0565	585.766	64362.3	63430.95
823.201	587.8985	64444.4	63504.95
823.3454	590.0304	64180.25	63210.2
823.4899	592.1616	64376.05	63417.35
823.6345	594.2922	64242.6	63283.15
823.779	596.4222	64052.8	63087.1
823.9235	598.5515	64106.2	63142.45
824.068	600.6802	64266.7	63305.25
824.2126	602.8083	64006.3	63047.5
824.3571	604.9358	63973	63010.2
824.5017	607.0626	64163.75	63193.85
824.6462	609.1888	63858.25	62886.35
824.7908	611.3144	64052.95	63080.4
824.9354	613.4393	63958.05	62985.05
825.08	615.5636	63823.4	62849.7
825.2246	617.6873	63981.15	63012.7
825.3692	619.8103	63780.95	62811.95
825.5138	621.9327	63994.2	63026.25
825.6584	624.0544	63983.5	63025.6
825.803	626.1756	63866.55	62904.15
825.9477	628.2961	63854.75	62886.3
826.0923	630.4159	63723.65	62757.45
826.237	632.5351	63660.55	62691.7
826.3816	634.6537	64004.1	63034.7
826.5263	636.7716	63651.5	62677.6
826.6709	638.8889	63738.95	62764.25
826.8156	641.0056	63705.45	62725.8
826.9603	643.1216	63751.3	62773.85
827.105	645.237	63823.8	62854.25
827.2497	647.3518	63625.95	62664.2
827.3944	649.4659	63695.85	62736.45
827.5391	651.5793	63694.8	62741.1
827.6838	653.6922	63737.55	62771.05
827.8285	655.8043	63482.8	62516.65
827.9733	657.9159	63833.6	62871.7
828.118	660.0268	63249.9	62284.15
828.2627	662.137	63594.25	62629
828.4075	664.2466	63644.45	62666.65
828.5522	666.3556	63499	62527.5
828.697	668.4639	63624.85	62657.35
828.8418	670.5716	63460.9	62498.55
828.9865	672.6786	63565.35	62598.05
829.1313	674.785	63358.2	62384
829.2761	676.8907	63397.25	62429.55
829.4209	678.9958	63478.8	62516.4
829.5657	681.1002	63526.65	62559.35
829.7105	683.204	63324.65	62346.3
829.8553	685.3072	63188.3	62209.1
830.0001	687.4097	63288.85	62317.9
830.1449	689.5115	63182.3	62207.75
830.2898	691.6127	63359.5	62392.85
830.4346	693.7132	63201.2	62238.95
830.5794	695.8131	63211.65	62221.5
830.7243	697.9123	63285.75	62304.5
830.8691	700.0109	63323.9	62341.8
831.014	702.1089	63042.3	62066
831.1588	704.2061	63113.4	62141.05
831.3037	706.3028	63153.5	62177.05
831.4486	708.3987	63212.75	62233.9
831.5935	710.4941	63094.35	62123.1
831.7383	712.5887	63271.95	62295.8
831.8832	714.6827	63145.05	62172.75
832.0281	716.7761	63284.85	62318.1
832.173	718.8688	63336.8	62362.15
832.3179	720.9608	63157.15	62180.4
832.4628	723.0522	63202.7	62213.95
832.6077	725.1429	63029.9	62050.5
832.7527	727.233	63457.75	62481.65
832.8976	729.3224	62644.6	61666.5
833.0425	731.4112	62974.8	61997.75
833.1874	733.4993	62983.7	62006.45
833.3324	735.5867	62959	61983.65
833.4773	737.6735	62718.9	61743.35
833.6222	739.7596	62479.2	61498.15
833.7672	741.845	62453.5	61480.75
833.9122	743.9298	62824.35	61848
834.0571	746.014	62428.4	61450.5
834.2021	748.0974	62175.4	61188.75
834.347	750.1802	62712.25	61726.25
834.492	752.2624	62051.25	61069.05
834.637	754.3439	62143.95	61151.8
834.782	756.4247	62334.55	61346.3
834.9269	758.5048	62051.2	61066.7
835.0719	760.5843	62231.45	61251.35
835.2169	762.6631	62453.15	61475.1
835.3619	764.7413	62374.7	61395.3
835.5069	766.8188	62485.6	61500.7
835.6519	768.8956	62763.35	61780.35
835.7969	770.9718	62732.9	61753.65
835.9419	773.0473	62672.5	61692.6
836.0869	775.1221	62303.95	61320.9
836.232	777.1962	62254.5	61274.1
836.377	779.2697	61761.85	60778.4
836.522	781.3426	62066.65	61071.45
836.667	783.4147	62162	61179.55
836.8121	785.4862	62102.15	61121.55
836.9571	787.557	61606	60624.05
837.1021	789.6271	62018.45	61034.55
837.2472	791.6966	61474.1	60490.85
837.3922	793.7654	60753.1	59771
837.5373	795.8335	60727.25	59746
837.6823	797.901	60816.55	59835.5
837.8274	799.9678	60470.7	59487.85
837.9724	802.0339	60350.95	59363.8
838.1175	804.0993	60358.4	59362.15
838.2626	806.1641	60067.55	59084.65
838.4076	808.2282	59954.25	58976.4
838.5527	810.2916	59751.05	58767.6
838.6978	812.3544	60143.35	59163.05
838.8428	814.4164	59422.3	58439.35
838.9879	816.4778	59558.3	58573.75
839.133	818.5385	59639.25	58648.9
839.2781	820.5986	59531.15	58544.1
839.4232	822.658	59764.1	58777.5
839.5682	824.7166	59950.4	58961.75
839.7133	826.7747	59497.15	58513.75
839.8584	828.832	59949.05	58963.95
840.0035	830.8886	60414.7	59424.2
840.1486	832.9446	60411.7	59424.1
840.2937	834.9999	59276.5	58292.9
840.4388	837.0545	59672.15	58681.8
840.5839	839.1085	59783.05	58794.25
840.729	841.1618	59456.35	58464.5
840.8741	843.2143	58689.95	57706.4
841.0192	845.2662	58627.75	57642.4
841.1643	847.3175	58844.95	57857.5
841.3095	849.368	57976.35	56994.9
841.4546	851.4179	58632.15	57646.45
841.5997	853.467	57975.1	56988.5
841.7448	855.5155	58239	57253.8
841.8899	857.5633	57741.8	56756.85
842.0351	859.6105	57479.05	56491.5
842.1802	861.6569	57792.35	56807.7
842.3253	863.7027	57091.4	56104.8
842.4704	865.7478	57336.15	56346.2
842.6156	867.7922	57165.95	56179.1
842.7607	869.8359	57504.4	56516.8
842.9058	871.8789	56690.05	55699.5
843.0509	873.9212	57126.3	56106.05
843.1961	875.9629	57095.5	56107.85
843.3412	878.0039	57078.65	56092.8
843.4863	880.0441	56872.5	55890.2
843.6315	882.0837	56881.15	55895.9
843.7766	884.1226	56867.65	55875.5
843.9218	886.1609	56844.75	55860.3
844.0669	888.1984	56606.85	55624.2
844.212	890.2352	57190.3	56204.15
844.3572	892.2714	56457.15	55467
844.5023	894.3069	56745.4	55756.3
844.6475	896.3416	56380.05	55394.1
844.7926	898.3757	56209.9	55222.65
844.9377	900.4091	55514.1	54517.95
845.0829	902.4418	56290.05	55294.25
845.228	904.4739	55702	54712.85
845.3732	906.5052	55907.1	54912.6
845.5183	908.5358	55519.85	54531.9
845.6635	910.5658	55221.35	54225.65
845.8086	912.595	55173.3	54185.85
845.9538	914.6236	54470.2	53479.3
846.0989	916.6515	55299.35	54310.3
846.2441	918.6786	54193.8	53202.6
846.3892	920.7051	54451.65	53453.95
846.5344	922.7309	54358.65	53368.1
846.6795	924.756	54399.75	53411.95
846.8246	926.7804	54106	53113.2
846.9698	928.8041	53554.5	52565
847.1149	930.8272	53918.1	52925.95
847.2601	932.8495	53830.25	52838.9
847.4052	934.8711	53373.05	52381.8
847.5504	936.892	53189.35	52197.05
847.6955	938.9123	53245.7	52253
847.8407	940.9318	52941.75	51950.25
847.9858	942.9506	52834.1	51848.65
848.131	944.9688	52840.4	51855.55
848.2761	946.9862	52190.3	51205.2
848.4213	949.003	52210.6	51220.75
848.5664	951.019	51674.1	50688.15
848.7115	953.0344	51702.5	50713.3
848.8567	955.0491	51535	50545.55
849.0018	957.063	51698.45	50709
849.147	959.0763	51769.75	50772.3
849.2921	961.0888	51493.8	50506.5
849.4373	963.1007	51672.2	50686.6
849.5824	965.1119	51599.35	50622.75
849.7275	967.1223	51364.3	50393.05
849.8727	969.1321	51510.1	50542.2
850.0178	971.1412	51130.8	50155.7
850.1629	973.1495	50946.65	49962.4
850.3081	975.1572	50979.65	49953.4
850.4532	977.1641	50862.35	49872.9
850.5983	979.1704	50674.9	49686.1
850.7435	981.1759	50686.6	49692.9
850.8886	983.1808	50460.15	49472.7
851.0337	985.1849	50417.4	49417.6
851.1788	987.1884	50393.55	49405.6
851.324	989.1911	50509.25	49520.3
851.4691	991.1932	50145.3	49157.5
851.6142	993.1945	50051.5	49069.15
851.7593	995.1951	49997.1	49010.65
851.9045	997.1951	49738.45	48747.2
852.0496	999.1943	49538.6	48554.55
852.1947	1001.1928	49336.65	48348.15
852.3398	1003.1906	49277.8	48289
852.4849	1005.1877	49144.1	48158.95
852.63	1007.1841	48968.1	47985.4
852.7751	1009.1798	48852.5	47867.4
852.9202	1011.1748	48599.2	47616.6
853.0653	1013.1691	48378.5	47394.1
853.2104	1015.1627	47901	46919.4
853.3555	1017.1556	47526.9	46548.2
853.5006	1019.1477	47499.4	46521.65
853.6457	1021.1392	47122.1	46149.1
853.7908	1023.1299	46752.9	45779.9
853.9359	1025.12	46748.45	45785.9
854.081	1027.1093	46522	45576.55
854.2261	1029.0979	46465.4	45519.15
854.3712	1031.0859	46309.05	45354.85
854.5163	1033.0731	46190.7	45221.6
854.6613	1035.0596	46078	45104.85
854.8064	1037.0454	45714.05	44740.2
854.9515	1039.0304	45592	44615.75
855.0965	1041.0148	45256.2	44275.65
855.2416	1042.9985	45095.35	44116.35
855.3867	1044.9814	45039.2	44058.6
855.5317	1046.9636	44792.45	43813.25
855.6768	1048.9452	44583.3	43609.1
855.8219	1050.926	44622.55	43645.6
855.9669	1052.9061	44483.7	43505.6
856.112	1054.8855	44399.9	43420.1
856.257	1056.8642	44361.7	43384.1
856.4021	1058.8421	44259.45	43271.4
856.5471	1060.8194	44165.1	43185.1
856.6921	1062.7959	44071.1	43091.35
856.8372	1064.7717	44072.55	43092.8
856.9822	1066.7469	43943.35	42961.35
857.1272	1068.7213	43895.35	42915.15
857.2723	1070.695	43828.3	42847.25
857.4173	1072.6679	43635.35	42652.15
857.5623	1074.6402	43656.4	42676.25
857.7073	1076.6117	43526.5	42539.5
857.8523	1078.5826	43409.45	42425.15
857.9973	1080.5527	43204.5	42223.75
858.1423	1082.5221	43013.25	42032.25
858.2873	1084.4908	42940.3	41960.55
858.4323	1086.4587	42889.65	41912.8
858.5773	1088.426	42871.2	41891
858.7223	1090.3925	42723.3	41738.55
858.8673	1092.3584	42646.75	41665
859.0123	1094.3235	42388.1	41408.95
859.1573	1096.2879	42331.15	41352.05
859.3022	1098.2515	42299.85	41320.95
859.4472	1100.2145	42371.8	41398.05
859.5922	1102.1767	42320.35	41338.5
859.7371	1104.1382	42404.15	41426.8
859.8821	1106.099	42485.75	41505.6
860.027	1108.0591	42540.8	41564.6
860.172	1110.0185	42491.1	41512.1
860.3169	1111.9771	42565.25	41589.3
860.4619	1113.9351	42224.75	41248.9
860.6068	1115.8923	41954.25	40972.85
860.7517	1117.8488	41763.55	40781.2
860.8967	1119.8045	41343.75	40371.45
861.0416	1121.7596	41215.25	40237.35
861.1865	1123.7139	41010.95	40032.45
861.3314	1125.6675	40852	39875.7
861.4763	1127.6204	40949.65	39975.65
861.6212	1129.5726	40742.3	39763.6
861.7661	1131.524	40645.95	39671.95
861.911	1133.4748	40489.05	39510.45
862.0559	1135.4248	40234.8	39256
862.2008	1137.3741	40085.55	39110.55
862.3457	1139.3226	39911.9	38933.25
862.4905	1141.2705	39892.8	38916.3
862.6354	1143.2176	39589.9	38608.3
862.7803	1145.164	39520.6	38540.55
862.9251	1147.1097	39354.85	38376.1
863.07	1149.0546	39240.15	38258
863.2148	1150.9989	39091.45	38113.5
863.3597	1152.9424	38999	38022.65
863.5045	1154.8852	38842	37865.55
863.6493	1156.8272	38750.75	37775.8
863.7942	1158.7686	38751.7	37765.9
863.939	1160.7092	38572.9	37595.15
864.0838	1162.6491	38469.3	37491.95
864.2286	1164.5883	38516.35	37539.45
864.3734	1166.5267	38481.25	37505.85
864.5182	1168.4644	38469.4	37495.95
864.663	1170.4014	38583.3	37608
864.8078	1172.3377	38769.45	37797.5
864.9526	1174.2732	38869.95	37895.55
865.0974	1176.2081	39123.5	38150.05
865.2421	1178.1421	39362.95	38385.15
865.3869	1180.0755	39626.25	38651.25
865.5317	1182.0082	39669.7	38696.05
865.6764	1183.9401	39700.95	38732.95
865.8212	1185.8713	39520.55	38555.3
865.9659	1187.8017	39191.3	38234.05
866.1106	1189.7315	38856.85	37907.5
866.2554	1191.6605	38354.3	37409.6
866.4001	1193.5888	38029.8	37075.05
866.5448	1195.5163	37886.65	36922.25
866.6895	1197.4432	37712.35	36743.35
866.8342	1199.3693	37579.75	36610.25
866.9789	1201.2947	37369.55	36397.25
867.1236	1203.2193	37203.5	36235.7
867.2683	1205.1432	37190.6	36219.85
867.413	1207.0664	37080.5	36111.25
867.5576	1208.9889	36945.25	35971.35
867.7023	1210.9106	36838.55	35869.4
867.847	1212.8316	36748.2	35783.65
867.9916	1214.7519	36706.1	35729.85
868.1363	1216.6715	36523.75	35552.35
868.2809	1218.5903	36502.35	35533.4
868.4255	1220.5084	36449.95	35478.65
868.5701	1222.4257	36539.1	35569.7
868.7148	1224.3424	36370.15	35403.7
868.8594	1226.2583	36375.6	35404
869.004	1228.1735	36362.55	35393.45
869.1486	1230.0879	36336.15	35365.1
869.2932	1232.0016	36344.5	35377.1
869.4377	1233.9146	36319.2	35348.4
869.5823	1235.8269	36165.75	35200.45
869.7269	1237.7384	36183.1	35218.35
869.8715	1239.6492	35831.7	34867.35
870.016	1241.5592	35803.5	34834.65
870.1606	1243.4686	35658.2	34689.3
870.3051	1245.3772	35710.3	34739.3
870.4496	1247.285	35680.8	34714.4
870.5941	1249.1922	35714.35	34746.45
870.7387	1251.0986	35717.95	34750.75
870.8832	1253.0042	35586.15	34615.9
871.0277	1254.9092	35626.25	34660.5
871.1722	1256.8134	35641.45	34678.35
871.3167	1258.7169	35662.75	34694.6
871.4611	1260.6196	35722.65	34758.4
871.6056	1262.5216	35863.85	34895.6
871.7501	1264.4229	35885.8	34922.05
871.8945	1266.3234	36033.9	35066.3
872.039	1268.2232	36059.3	35089.15
872.1834	1270.1223	35973.25	35007.9
872.3278	1272.0207	35922.55	34959.75
872.4723	1273.9183	35780	34806.6
872.6167	1275.8151	35627.65	34662.4
872.7611	1277.7113	35617.55	34652.15
872.9055	1279.6067	35497.1	34534.6
873.0499	1281.5014	35543.45	34575.3
873.1943	1283.3953	35676.95	34708.7
873.3386	1285.2885	35951.3	34983.1
873.483	1287.181	36218.6	35254.5
873.6274	1289.0727	36456.9	35493.05
873.7717	1290.9637	36606.6	35641.8
873.9161	1292.854	36699.55	35733.9
874.0604	1294.7435	36659.25	35693.6
874.2047	1296.6323	36609.2	35641.45
874.349	1298.5204	36440.6	35471.35
874.4933	1300.4077	36302.3	35336.45
874.6376	1302.2943	36145.2	35178.7
874.7819	1304.1802	35923.35	34962.4
874.9262	1306.0653	35550.8	34582.8
875.0705	1307.9497	35158.05	34195.15
875.2147	1309.8333	34855.05	33890.6
875.359	1311.7162	34634	33670.95
875.5032	1313.5984	34536.2	33571.95
875.6475	1315.4798	34353.95	33372.9
875.7917	1317.3605	34235.6	33256.6
875.9359	1319.2405	34197.25	33229.95
876.0801	1321.1197	33949.65	32979.55
876.2243	1322.9982	33675.05	32706.2
876.3685	1324.876	33499.2	32534.05
876.5127	1326.753	33208.1	32245.7
876.6569	1328.6293	33140.2	32171.6
876.801	1330.5048	32992.05	32023.45
876.9452	1332.3796	32755.1	31788.95
877.0893	1334.2537	32702.55	31708.65
877.2335	1336.127	32546.6	31580.85
877.3776	1337.9996	32492.9	31527.15
877.5217	1339.8714	32417.8	31453.45
877.6658	1341.7426	32383.05	31374.1
877.8099	1343.6129	32301.15	31337.65
877.954	1345.4826	32266.5	31299.6
878.0981	1347.3515	32230.35	31263.85
878.2422	1349.2196	32129.1	31162.75
878.3862	1351.087	32160.95	31193.3
878.5303	1352.9537	32136.9	31172.35
878.6743	1354.8197	32191.15	31227
878.8184	1356.6849	32262.9	31294.75
878.9624	1358.5493	32282.9	31321.8
879.1064	1360.4131	32310.35	31348.75
879.2504	1362.276	32307.15	31345.7
879.3944	1364.1383	32253.1	31289.2
879.5384	1365.9998	32024.4	31053.9
879.6823	1367.8606	31699.45	30728.25
879.8263	1369.7206	31366.3	30399.4
879.9702	1371.5799	31041.05	30075.4
880.1142	1373.4384	30815.95	29851.8
880.2581	1375.2962	30601.95	29635.9
880.402	1377.1533	30212.55	29253.1
880.5459	1379.0096	29852.55	28895.5
880.6898	1380.8652	29548.8	28591.8
880.8337	1382.7201	29255.6	28295.95
880.9776	1384.5742	28942.1	27979.8
881.1215	1386.4275	28705.3	27739.85
881.2653	1388.2802	28552.75	27591.75
881.4092	1390.132	28332.85	27370.1
881.553	1391.9832	28251.3	27286.05
881.6968	1393.8336	28040.6	27080.25
881.8406	1395.6832	27958	26993.6
881.9844	1397.5322	27822.75	26860.8
882.1282	1399.3803	27758.35	26792.95
882.272	1401.2278	27605.95	26648.1
882.4158	1403.0745	27532.35	26573.6
882.5595	1404.9204	27367.65	26409.6
882.7033	1406.7656	27375	26416.15
882.847	1408.6101	27289.45	26327.45
882.9908	1410.4538	27196.25	26235
883.1345	1412.2968	27153.7	26192.4
883.2782	1414.139	27127.85	26167.9
883.4219	1415.9805	27102.85	26143.6
883.5656	1417.8213	27087.2	26110.15
883.7092	1419.6613	27086.8	26128.95
883.8529	1421.5006	27159.1	26200.65
883.9965	1423.3391	27244.2	26284.35
884.1402	1425.1769	27376.9	26417.4
884.2838	1427.0139	27655.6	26698
884.4274	1428.8502	28013.4	27052.5
884.571	1430.6858	28387.95	27430.2
884.7146	1432.5206	28578.85	27620.3
884.8582	1434.3547	28729.9	27770.7
885.0018	1436.188	28726.75	27766.25
885.1453	1438.0206	28636.15	27675.8
885.2889	1439.8524	28360.5	27404.4
885.4324	1441.6835	28296.7	27339.6
885.5759	1443.5139	28150.55	27187.2
885.7194	1445.3435	28000.1	27042.9
885.8629	1447.1724	27930.2	26976.95
886.0064	1449.0005	27848.3	26893
886.1499	1450.8279	27752.3	26794.7
886.2933	1452.6545	27718.55	26765.9
886.4368	1454.4804	27711.8	26755.95
886.5802	1456.3056	27651.15	26690.6
886.7237	1458.13	27559.3	26609.15
886.8671	1459.9536	27452.2	26498.8
887.0105	1461.7766	27173.55	26219.1
887.1539	1463.5987	26842.85	25887.9
887.2972	1465.4202	26500.25	25543.75
887.4406	1467.2409	26166	25208.15
887.584	1469.0608	25958.05	25000.55
887.7273	1470.88	25714.15	24758.9
887.8706	1472.6984	25515.45	24561.55
888.0139	1474.5161	25243.8	24285.15
888.1572	1476.3331	25086.1	24133.9
888.3005	1478.1493	24983.05	24026.45
888.4438	1479.9648	24899.2	23941
888.5871	1481.7795	24739.95	23786.45
888.7303	1483.5935	24703	23745.05
888.8736	1485.4067	24577.55	23624.75
889.0168	1487.2192	24560.45	23602.55
889.16	1489.031	24441.95	23484.25
889.3032	1490.842	24395.1	23442.3
889.4464	1492.6522	24344.75	23391.1
889.5896	1494.4618	24249.75	23295.3
889.7327	1496.2705	24179.4	23224.6
889.8759	1498.0785	24119.85	23164.65
890.019	1499.8858	24063.7	23107.35
890.1622	1501.6924	23974.8	23020.3
890.3053	1503.4981	23930.35	22980.3
890.4484	1505.3032	23867.9	22914.85
890.5914	1507.1075	23790.1	22836
890.7345	1508.911	23772.1	22815.85
890.8776	1510.7138	23668.35	22713.1
891.0206	1512.5159	23513.5	22558.9
891.1637	1514.3172	23475.7	22523.05
891.3067	1516.1178	23365.9	22417.4
891.4497	1517.9176	23331.15	22374.85
891.5927	1519.7166	23228.1	22277.25
891.7357	1521.515	23129.35	22171.6
891.8786	1523.3126	23071.95	22121.35
892.0216	1525.1094	22983.65	22030.35
892.1645	1526.9055	22926.35	21978.5
892.3074	1528.7008	22863.6	21913.2
892.4503	1530.4954	22721.2	21766.6
892.5932	1532.2893	22672.65	21727.9
892.7361	1534.0824	22523.9	21573.95
892.879	1535.8747	22530.85	21584.5
893.0218	1537.6663	22416.85	21469.65
893.1647	1539.4572	22357.35	21409.55
893.3075	1541.2473	22348.45	21403.3
893.4503	1543.0367	22254.85	21311.45
893.5931	1544.8253	22221.55	21272.05
893.7359	1546.6132	22213.5	21263.45
893.8787	1548.4003	22120.4	21165.4
894.0214	1550.1867	22130.05	21179.6
894.1642	1551.9723	22085.5	21138.5
894.3069	1553.7572	22099.6	21157.6
894.4496	1555.5414	22103.9	21162.6
894.5923	1557.3247	22172.45	21232.05
894.735	1559.1074	22212.55	21277.85
894.8777	1560.8893	22229.95	21296.8
895.0204	1562.6705	22316.1	21383.15
895.163	1564.4509	22358.45	21424.4
895.3056	1566.2305	22318.6	21383.5
895.4482	1568.0094	22397.75	21467.85
895.5908	1569.7876	22337.45	21402
895.7334	1571.565	22283.9	21346.9
895.876	1573.3417	22287.2	21349.5
896.0186	1575.1176	22245.55	21311.1
896.1611	1576.8928	22181.5	21251.65
896.3036	1578.6672	22051.6	21124.15
896.4461	1580.4409	21960.85	21035.55
896.5886	1582.2138	21915.1	20988.45
896.7311	1583.986	21873.45	20941.8
896.8736	1585.7575	21933.45	21000.75
897.0161	1587.5282	21871.95	20944.3
897.1585	1589.2981	21883.45	20958
897.3009	1591.0673	21851.6	20928.2
897.4433	1592.8358	21901.45	20975.35
897.5857	1594.6035	21937.25	21003.65
897.7281	1596.3704	21901.35	20969.05
897.8705	1598.1366	21881.25	20951.5
898.0128	1599.9021	21916.3	20988.05
898.1551	1601.6668	21895.45	20965.15
898.2975	1603.4308	21925.6	20993.9
898.4398	1605.194	21990	21058.2
898.5821	1606.9564	22075.8	21158.35
898.7243	1608.7182	22217.8	21302
898.8666	1610.4791	22364.85	21456.85
899.0088	1612.2394	22562.15	21649.8
899.1511	1613.9988	22690.6	21777.7
899.2933	1615.7576	22877	21955.8
899.4355	1617.5156	23026.45	22092.45
899.5776	1619.2728	23102.8	22173.75
899.7198	1621.0293	23054.95	22127.95
899.862	1622.785	22920.65	21999.6
900.0041	1624.54	22632.15	21710.7
900.1462	1626.2942	22374.95	21456.05
900.2883	1628.0477	22006.2	21087.1
900.4304	1629.8005	21706.8	20783.5
900.5725	1631.5525	21444.55	20527.45
900.7145	1633.3037	21169.3	20248.8
900.8566	1635.0542	21019.7	20100.2
900.9986	1636.804	20825.3	19904.1
901.1406	1638.553	20797.85	19825.75
901.2826	1640.3013	20626	19706.4
901.4245	1642.0488	20535.05	19612.55
901.5665	1643.7955	20522.95	19608.55
901.7085	1645.5416	20509.2	19591.3
901.8504	1647.2868	20594.3	19674.25
901.9923	1649.0313	20581.3	19660.35
902.1342	1650.7751	20679.95	19755.75
902.2761	1652.5181	20787.4	19869.7
902.4179	1654.2604	20776.55	19860
902.5598	1656.0019	20949.95	20034.25
902.7016	1657.7427	21131.25	20210.45
902.8434	1659.4828	21335.7	20413.25
902.9852	1661.222	21346.7	20422.05
903.127	1662.9606	21334.55	20411.15
903.2687	1664.6984	21101.15	20173.8
903.4105	1666.4354	20772	19845.2
903.5522	1668.1717	20317.45	19388.5
903.6939	1669.9072	19850.65	18919.7
903.8356	1671.642	19453.6	18521.5
903.9773	1673.3761	19138.85	18213.5
904.119	1675.1094	18855.75	17931.85
904.2606	1676.8419	18592.65	17672.3
904.4022	1678.5737	18396.9	17470.8
904.5439	1680.3048	18260	17331.05
904.6855	1682.0351	18102.05	17173
904.827	1683.7646	17952	17023.45
904.9686	1685.4934	17852.3	16928.7
905.1101	1687.2215	17779.8	16859.05
905.2517	1688.9488	17674.95	16755.1
905.3932	1690.6754	17539.25	16619.3
905.5347	1692.4012	17454.1	16531.55
905.6761	1694.1263	17429.05	16505.25
905.8176	1695.8506	17337.85	16416.65
905.9591	1697.5742	17245.1	16325.2
906.1005	1699.297	17164.4	16250.7
906.2419	1701.0191	17082.1	16167.75
906.3833	1702.7404	17012.8	16096.35
906.5246	1704.461	16941.1	16021.35
906.666	1706.1808	16861.05	15940.95
906.8073	1707.8999	16798.2	15880.45
906.9487	1709.6182	16758.9	15848.85
907.09	1711.3358	16703.85	15796.85
907.2313	1713.0527	16611.95	15705.2
907.3725	1714.7688	16615.85	15698.8
907.5138	1716.4841	16484.65	15569.4
907.655	1718.1987	16443.15	15524.35
907.7962	1719.9126	16399.75	15488.35
907.9374	1721.6257	16327.1	15416.95
908.0786	1723.338	16291.05	15382.7
908.2198	1725.0496	16214.2	15303.6
908.3609	1726.7605	16176.5	15261.95
908.502	1728.4706	16130.2	15217.15
908.6431	1730.18	16036.75	15127.1
908.7842	1731.8886	15999.55	15091.65
908.9253	1733.5964	15985.15	15054.35
909.0664	1735.3036	15925.15	15011.95
909.2074	1737.0099	15907.95	14996.9
909.3484	1738.7156	15840.05	14928.7
909.4894	1740.4204	15743.75	14830
909.6304	1742.1246	15757.55	14841.8
909.7714	1743.8279	15678.95	14768.35
909.9123	1745.5306	15659.95	14749.25
910.0532	1747.2325	15618.65	14708.8
910.1941	1748.9336	15581.1	14668.6
910.335	1750.634	15483.25	14569.3
910.4759	1752.3336	15468.25	14559.75
910.6168	1754.0325	15427.8	14522.2
910.7576	1755.7307	15379.25	14471.9
910.8984	1757.4281	15363.4	14453.1
911.0392	1759.1247	15360.15	14438.1
911.18	1760.8206	15319.15	14398.6
911.3208	1762.5158	15317	14398.6
911.4615	1764.2102	15240.05	14326.9
911.6022	1765.9039	15187.85	14278.45
911.7429	1767.5968	15152.4	14244.6
911.8836	1769.289	15080.95	14175.1
912.0243	1770.9804	15063	14152.4
912.1649	1772.6711	15044.05	14130.8
912.3056	1774.361	15036.1	14120.2
912.4462	1776.0502	14961.5	14046.35
912.5868	1777.7386	14951.15	14033.85
912.7274	1779.4263	14885.85	13976
912.8679	1781.1132	14869.3	13962.75
913.0084	1782.7994	14799.75	13896.9
913.149	1784.4849	14796.35	13891.75
913.2895	1786.1696	14757.05	13843.75
913.4299	1787.8535	14702	13797.65
913.5704	1789.5367	14668.55	13768.05
913.7108	1791.2192	14659.75	13756.9
913.8513	1792.9009	14622.45	13685.25
913.9917	1794.5818	14572.65	13656.75
914.132	1796.2621	14523.5	13613.35
914.2724	1797.9415	14474.3	13561.95
914.4128	1799.6202	14438.15	13526.6
914.5531	1801.2982	14419.15	13506.55
914.6934	1802.9755	14401.65	13487.75
914.8337	1804.6519	14376.15	13466.25
914.9739	1806.3277	14287.65	13381.55
915.1142	1808.0027	14250.5	13348.5
915.2544	1809.6769	14218.35	13318
915.3946	1811.3504	14191.8	13286.9
915.5348	1813.0231	14157.05	13255
915.675	1814.6951	14147.5	13240.45
915.8151	1816.3664	14139.25	13230.05
915.9553	1818.0369	14105.25	13194.45
916.0954	1819.7067	14036.55	13126.65
916.2355	1821.3757	14020.35	13109.05
916.3755	1823.044	13972.5	13060.2
916.5156	1824.7115	13981.4	13071.45
916.6556	1826.3783	13924.55	13012.05
916.7956	1828.0443	13854.05	12946.65
916.9356	1829.7096	13854.45	12942.45
917.0756	1831.3741	13848.9	12937.75
917.2155	1833.0379	13769.7	12864.85
917.3555	1834.701	13753	12848.05
917.4954	1836.3633	13745.75	12845
917.6353	1838.0248	13700.8	12794.55
917.7751	1839.6856	13661.25	12754.85
917.915	1841.3457	13667.5	12756.7
918.0548	1843.005	13611.5	12702.35
918.1946	1844.6636	13594.65	12683.65
918.3344	1846.3214	13563.6	12657
918.4742	1847.9785	13575.45	12670.2
918.6139	1849.6349	13525.35	12614.55
918.7537	1851.2904	13488.5	12569.25
918.8934	1852.9453	13459.6	12547.1
919.0331	1854.5994	13405.45	12492.35
919.1727	1856.2528	13417.65	12501.95
919.3124	1857.9054	13397.1	12486.85
919.452	1859.5572	13370.9	12462.3
919.5916	1861.2083	13342.6	12435.9
919.7312	1862.8587	13353.8	12443.2
919.8708	1864.5084	13300.2	12385.6
920.0103	1866.1572	13256.2	12341.65
920.1498	1867.8054	13215.45	12300.5
920.2893	1869.4528	13206.45	12293.7
920.4288	1871.0994	13139.4	12224.7
920.5683	1872.7453	13116.45	12203.45
920.7077	1874.3905	13089.15	12173.45
920.8471	1876.0349	13032.95	12123.05
920.9865	1877.6786	13029.75	12118.45
921.1259	1879.3215	13050.35	12140.3
921.2653	1880.9637	12997.8	12086.5
921.4046	1882.6051	12973.8	12063.2
921.5439	1884.2458	12931.95	12021.9
921.6832	1885.8858	12864.05	11955.9
921.8225	1887.525	12877.05	11971.15
921.9617	1889.1634	12798.4	11887.95
922.101	1890.8011	12731.8	11818.75
922.2402	1892.4381	12743.85	11832.55
922.3794	1894.0743	12725.8	11815.35
922.5185	1895.7098	12717.6	11809.1
922.6577	1897.3446	12677.4	11766.8
922.7968	1898.9786	12658.2	11743.7
922.9359	1900.6118	12636.6	11729.2
923.075	1902.2443	12547.9	11638.2
923.214	1903.8761	12544.5	11635.65
923.3531	1905.5071	12450.75	11542.3
923.4921	1907.1374	12436.2	11527.1
923.6311	1908.7669	12413.75	11506.85
923.77	1910.3957	12393.75	11489.05
923.909	1912.0237	12334.25	11429.15
924.0479	1913.651	12319.6	11411.6
924.1868	1915.2776	12273.9	11369.4
924.3257	1916.9034	12207.75	11301.25
924.4646	1918.5285	12185.1	11280.2
924.6034	1920.1528	12127.5	11219.9
924.7422	1921.7764	12119.7	11211.75
924.881	1923.3992	12078.2	11170.9
925.0198	1925.0213	11998.35	11092.15
925.1586	1926.6427	11943.9	11038.25
925.2973	1928.2633	11990.85	11008.25
925.436	1929.8832	11913.35	11005.05
925.5747	1931.5023	11851.65	10943.15
925.7134	1933.1207	11819.75	10911.55
925.852	1934.7383	11783.45	10874.45
925.9906	1936.3552	11740.3	10833.6
926.1292	1937.9714	11709.05	10805.15
926.2678	1939.5868	11680.5	10773.55
926.4064	1941.2015	11638.1	10729.25
926.5449	1942.8154	11592.15	10683.7
926.6834	1944.4286	11535	10629.15
926.8219	1946.041	11512.15	10583.45
926.9604	1947.6528	11482.9	10569.1
927.0988	1949.2637	11449.8	10543.75
927.2372	1950.8739	11416.25	10511.55
927.3756	1952.4834	11356.65	10451.7
927.514	1954.0921	11377.8	10471.7
927.6523	1955.7001	11311.9	10403.35
927.7907	1957.3074	11268.6	10368.35
927.929	1958.9139	11246.1	10348.1
928.0673	1960.5197	11201.15	10300.2
928.2055	1962.1247	11142.05	10239
928.3438	1963.729	11094.35	10192.95
928.482	1965.3325	11101.45	10177.2
928.6202	1966.9353	11051.4	10153.4
928.7584	1968.5374	10993.25	10091.3
928.8965	1970.1387	10965.9	10063.55
929.0346	1971.7393	10917.35	10016.75
929.1727	1973.3392	10906.35	10005.05
929.3108	1974.9383	10886.5	9990.2
929.4489	1976.5366	10798.6	9899.95
929.5869	1978.1342	10783.95	9885.65
929.7249	1979.7311	10755.7	9858.05
929.8629	1981.3273	10741.5	9843.6
930.0009	1982.9227	10723.25	9826.4
930.1388	1984.5173	10678.5	9781.65
930.2767	1986.1112	10642.95	9746.85
930.4146	1987.7044	10622.7	9726.5
930.5525	1989.2968	10593.15	9695.65
930.6904	1990.8885	10566.5	9666.1
930.8282	1992.4795	10533.65	9636.85
930.966	1994.0697	10493.1	9600
931.1038	1995.6592	10452.85	9557.5
931.2415	1997.2479	10417.4	9520.25
931.3793	1998.8359	10396.6	9502.7
931.517	2000.4232	10363.9	9472.55
931.6547	2002.0097	10325.7	9437.6
931.7923	2003.5955	10272.65	9383.55
931.93	2005.1805	10272.65	9378.1
932.0676	2006.7648	10245.45	9353.6
932.2052	2008.3484	10228.5	9335.55
932.3427	2009.9312	10228.2	9336.95
932.4803	2011.5133	10167.05	9280.4
932.6178	2013.0946	10159.45	9269.35
932.7553	2014.6752	10153.2	9263.2
932.8928	2016.2551	10103.95	9209.35
933.0302	2017.8342	10069.5	9178.65
933.1676	2019.4126	9995.85	9104.75
933.305	2020.9902	9974.45	9086.25
933.4424	2022.5672	9953.4	9066.4
933.5798	2024.1433	9951.7	9057.55
933.7171	2025.7188	9910.95	9023.75
933.8544	2027.2935	9896.7	9008.1
933.9917	2028.8674	9852.95	8966.7
934.129	2030.4406	9838.85	8953.15
934.2662	2032.0131	9800.15	8913.1
934.4034	2033.5849	9763.35	8875.55
934.5406	2035.1559	9737.55	8850.9
934.6778	2036.7261	9723.05	8832.2
934.8149	2038.2957	9696.5	8804.1
934.952	2039.8645	9688.5	8791.6
935.0891	2041.4325	9674.8	8778.8
935.2262	2042.9998	9613.3	8723.15
935.3632	2044.5664	9591.4	8699.95
935.5002	2046.1323	9567.85	8681.25
935.6372	2047.6974	9559.5	8673.25
935.7742	2049.2617	9503.6	8614.1
935.9111	2050.8254	9487.7	8574.15
936.048	2052.3883	9497.4	8603.95
936.1849	2053.9504	9451.1	8557.65
936.3218	2055.5118	9432.1	8539.45
936.4586	2057.0725	9392.25	8498.55
936.5955	2058.6325	9396.25	8506.8
936.7323	2060.1917	9372.05	8484.65
936.869	2061.7502	9334.3	8445.55
937.0058	2063.3079	9319.85	8434.35
937.1425	2064.8649	9261.75	8369.5
937.2792	2066.4212	9237.55	8350.8
937.4159	2067.9767	9233.1	8342.9
937.5525	2069.5315	9182.35	8293.2
937.6891	2071.0856	9139.1	8249
937.8257	2072.6389	9104.4	8216.3
937.9623	2074.1915	9039.35	8153.8
938.0989	2075.7433	9020.95	8133.45
938.2354	2077.2945	9028.35	8137.6
938.3719	2078.8448	8984.3	8090.2
938.5084	2080.3945	8955.9	8062.4
938.6448	2081.9434	8938.5	8044.45
938.7812	2083.4916	8947.7	8051.5
938.9176	2085.039	8925.15	8026.5
939.054	2086.5857	8906.15	8005
939.1903	2088.1317	8865	7964
939.3267	2089.677	8815.55	7915.25
939.463	2091.2215	8803.85	7905
939.5992	2092.7652	8813.45	7910.9
939.7355	2094.3083	8765.25	7867.45
939.8717	2095.8506	8763.1	7868.45
940.0079	2097.3921	8766.1	7871.95
940.1441	2098.933	8720.05	7824.25
940.2802	2100.4731	8706.05	7810.95
940.4163	2102.0124	8716.1	7811.95
940.5524	2103.5511	8678.05	7780.55
940.6885	2105.089	8670.35	7773.9
940.8245	2106.6261	8634.95	7737.8
940.9606	2108.1626	8592.1	7698.1
941.0965	2109.6983	8593.35	7671.3
941.2325	2111.2332	8585.3	7689.6
941.3684	2112.7675	8542.9	7645.05
941.5044	2114.301	8534.9	7635.15
941.6403	2115.8337	8525.25	7629.05
941.7761	2117.3657	8485.5	7591.45
941.912	2118.897	8492.75	7594.8
942.0478	2120.4276	8445.45	7540.75
942.1835	2121.9575	8416.95	7519.65
942.3193	2123.4866	8401	7502.35
942.455	2125.0149	8378.3	7481.15
942.5907	2126.5426	8338.1	7446.1
942.7264	2128.0695	8312.3	7420.1
942.8621	2129.5956	8289.75	7400.75
942.9977	2131.1211	8286.8	7389.35
943.1333	2132.6458	8261.55	7369.3
943.2689	2134.1698	8256.35	7359
943.4044	2135.693	8226.45	7325.6
943.54	2137.2155	8198.55	7299.05
943.6755	2138.7373	8183.95	7287.5
943.8109	2140.2584	8153.5	7263.6
943.9464	2141.7787	8131.35	7239.1
944.0818	2143.2983	8096.85	7210.45
944.2172	2144.8171	8057.95	7172.7
944.3526	2146.3353	8052.05	7158.7
944.4879	2147.8527	8011.55	7119.4
944.6232	2149.3693	8024.05	7129.15
944.7585	2150.8853	8010.25	7110.3
944.8938	2152.4005	7974.45	7075.3
945.029	2153.9149	7963.8	7065.2
945.1642	2155.4287	8031.65	7030.05
945.2994	2156.9417	7932.85	7033.45
945.4346	2158.454	7903.3	7008.35
945.5697	2159.9655	7872.95	6982.7
945.7048	2161.4764	7857.45	6963.9
945.8399	2162.9865	7829.4	6937.7
945.9749	2164.4958	7791.55	6898.6
946.1099	2166.0045	7785.4	6890.95
946.2449	2167.5124	7788.95	6896.45
946.3799	2169.0195	7763.4	6868
946.5148	2170.526	7747.75	6850.25
946.6498	2172.0317	7718.35	6822.6
946.7846	2173.5367	7691.85	6796.75
946.9195	2175.0409	7682.65	6791.25
947.0543	2176.5445	7671.3	6776.15
947.1891	2178.0473	7643.15	6746.65
947.3239	2179.5494	7607.5	6708.25
947.4587	2181.0507	7585.35	6688.75
947.5934	2182.5513	7553	6659.3
947.7281	2184.0512	7538.85	6643.75
947.8628	2185.5504	7525.5	6631.75
947.9974	2187.0488	7468	6575.75
948.132	2188.5465	7452.3	6561.45
948.2666	2190.0435	7436.75	6542.9
948.4012	2191.5397	7431.4	6536.25
948.5357	2193.0353	7411.65	6515.45
948.6702	2194.5301	7357.3	6457.65
948.8047	2196.0241	7368.8	6467.35
948.9392	2197.5175	7323.35	6422.1
949.0736	2199.0101	7305.45	6401.2
949.208	2200.502	7265.95	6372.2
949.3424	2201.9931	7252.9	6358.85
949.4767	2203.4835	7218.2	6325.7
949.611	2204.9733	7215.65	6310.75
949.7453	2206.4622	7192.7	6302.5
949.8796	2207.9505	7163.4	6269.9
950.0138	2209.438	7129.35	6239.2
950.148	2210.9248	7123.3	6230.65
950.2822	2212.4109	7100.15	6205.65
950.4164	2213.8962	7078.45	6177.4
950.5505	2215.3809	7075.5	6173.8
950.6846	2216.8648	7041.5	6140.25
950.8186	2218.3479	7038.15	6130.25
950.9527	2219.8304	7014.15	6108.1
951.0867	2221.3121	6966.25	6062.95
951.2207	2222.7931	6950.3	6049.9
951.3546	2224.2733	6926.9	6029.25
951.4886	2225.7529	6912.4	6015.75
951.6225	2227.2317	6888	5991.25
951.7563	2228.7098	6884.9	5993.15
951.8902	2230.1872	6848.3	5956.95
952.024	2231.6638	6818.45	5928.35
952.1578	2233.1397	6795.05	5901.45
952.2916	2234.6149	6800.7	5908.05
952.4253	2236.0894	6771.3	5876.95
952.559	2237.5632	6760.75	5863.2
952.6927	2239.0362	6725.45	5830.65
952.8263	2240.5085	6707.6	5816
952.9599	2241.9801	6693.45	5796.55
953.0935	2243.4509	6673.3	5775.65
953.2271	2244.921	6662.55	5762.65
953.3606	2246.3904	6610.85	5710.05
953.4941	2247.8591	6602.85	5704.7
953.6276	2249.3271	6594.4	5696.2
953.7611	2250.7943	6581.95	5681.35
953.8945	2252.2608	6534.2	5635.4
954.0279	2253.7266	6523.55	5627.3
954.1612	2255.1917	6508.75	5611.9
954.2946	2256.656	6499.45	5604.05
954.4279	2258.1197	6473.8	5582.5
954.5612	2259.5826	6464.95	5570.65
954.6944	2261.0447	6460.5	5564.8
954.8276	2262.5062	6409.35	5510.75
954.9608	2263.9669	6424.8	5523
955.094	2265.4269	6408.85	5511.3
955.2271	2266.8862	6388.15	5492.15
955.3602	2268.3448	6371.35	5477.35
955.4933	2269.8026	6356.8	5465.2
955.6264	2271.2598	6347.25	5453.95
955.7594	2272.7162	6310.8	5417.8
955.8924	2274.1719	6298.25	5401.05
956.0253	2275.6268	6274.85	5373.5
956.1583	2277.0811	6280.25	5381.5
956.2912	2278.5346	6248.7	5351.95
956.4241	2279.9874	6234.8	5342.6
956.5569	2281.4395	6225.95	5335
956.6897	2282.8908	6211.95	5315.85
956.8225	2284.3414	6199.05	5301.95
956.9553	2285.7914	6189.95	5293.45
957.088	2287.2406	6159.9	5260.75
957.2207	2288.689	6142.65	5241.6
957.3534	2290.1368	6140.15	5236.25
957.486	2291.5838	6116.7	5211.7
957.6186	2293.0302	6103.4	5200.25
957.7512	2294.4758	6065.2	5165.35
957.8838	2295.9206	6029.65	5128
958.0163	2297.3648	6050	5153.45
958.1488	2298.8082	6041.8	5145.15
958.2813	2300.251	6018.1	5122.55
958.4137	2301.693	5993	5092.55
958.5461	2303.1343	5989.85	5090.85
958.6785	2304.5748	5986.25	5088.65
958.8108	2306.0147	5958.45	5063.95
958.9432	2307.4538	5937.95	5043.1
959.0754	2308.8922	5904.65	5012.8
959.2077	2310.3299	5912.7	5020.3
959.3399	2311.7669	5873.5	4978.6
959.4721	2313.2031	5859.1	4963
959.6043	2314.6387	5842.9	4943.75
959.7365	2316.0735	5843.2	4947.2
959.8686	2317.5076	5820.1	4920.8
960.0006	2318.941	5793.5	4897.15
960.1327	2320.3737	5779.5	4878.6
960.2647	2321.8056	5775.15	4870.85
960.3967	2323.2369	5759.8	4861.85
960.5287	2324.6674	5744.9	4845.05
960.6606	2326.0972	5727.75	4830.2
960.7925	2327.5263	5708.7	4812.45
960.9244	2328.9547	5689	4789.35
961.0562	2330.3823	5685.45	4782.4
961.1881	2331.8092	5665.05	4759.45
961.3198	2333.2355	5646.05	4744.8
961.4516	2334.661	5635.75	4734.55
961.5833	2336.0858	5619.45	4720.5
961.715	2337.5098	5606.15	4708.6
961.8467	2338.9332	5606.75	4710.1
961.9783	2340.3558	5568.05	4667.5
962.1099	2341.7778	5562.1	4667.35
962.2415	2343.199	5547.1	4648.75
962.373	2344.6195	5522.15	4625.75
962.5045	2346.0393	5524.25	4629.75
962.636	2347.4583	5519.7	4622.55
962.7675	2348.8767	5496.5	4597.25
962.8989	2350.2943	5496.5	4593.3
963.0303	2351.7113	5488.3	4586.15
963.1617	2353.1275	5470.6	4567.05
963.293	2354.543	5459.1	4534
963.4243	2355.9578	5439.95	4538.75
963.5556	2357.3718	5410.95	4515.55
963.6868	2358.7852	5369.9	4473.1
963.818	2360.1978	5350.25	4453.9
963.9492	2361.6098	5348.2	4450.2
964.0803	2363.021	5361.6	4459.2
964.2114	2364.4315	5322.8	4423.85
964.3425	2365.8413	5321.8	4422.35
964.4736	2367.2504	5292.35	4395.85
964.6046	2368.6587	5262.1	4366.7
964.7356	2370.0664	5245.75	4350.7
964.8666	2371.4733	5241.25	4344.55
964.9975	2372.8795	5225.65	4327.95
965.1284	2374.285	5202.3	4303.05
965.2593	2375.6899	5181.85	4286.2
965.3901	2377.0939	5169.15	4271.4
965.5209	2378.4973	5156.2	4259.35
965.6517	2379.9	5138.85	4241.8
965.7825	2381.3019	5106.85	4209.95
965.9132	2382.7032	5098.2	4203.85
966.0439	2384.1037	5096.05	4203.8
966.1745	2385.5035	5084.25	4191.15
966.3051	2386.9027	5068.65	4176.55
966.4357	2388.3011	5057.8	4159.7
966.5663	2389.6987	5033.1	4136.15
966.6968	2391.0957	5034.65	4138.25
966.8273	2392.492	5004.3	4110.75
966.9578	2393.8876	4971.5	4074.2
967.0882	2395.2824	4972.35	4076.95
967.2186	2396.6765	4954.45	4056.75
967.349	2398.07	4935.45	4036.75
967.4793	2399.4627	4941.8	4038.75
967.6097	2400.8547	4935.85	4038.4
967.7399	2402.246	4905.35	4000.5
967.8702	2403.6366	4887	3987.15
968.0004	2405.0265	4861.1	3962.35
968.1306	2406.4156	4839.75	3938.65
968.2607	2407.8041	4837.4	3935.2
968.3909	2409.1918	4815.35	3915.75
968.521	2410.5789	4807.8	3909.55
968.651	2411.9652	4789.7	3887
968.781	2413.3508	4758.75	3858
968.911	2414.7358	4770.65	3871.25
969.041	2416.12	4745.1	3850.15
969.1709	2417.5035	4730.05	3830.3
969.3008	2418.8863	4704.8	3803.55
969.4307	2420.2684	4700.75	3798.8
969.5606	2421.6497	4686.3	3782.75
969.6904	2423.0304	4663.4	3767.1
969.8201	2424.4104	4645.6	3746.65
969.9499	2425.7896	4647.75	3746.95
970.0796	2427.1682	4616.1	3718.6
970.2093	2428.546	4629.2	3728.95
970.3389	2429.9232	4600.95	3699.65
970.4685	2431.2996	4605.55	3706.05
970.5981	2432.6753	4608.2	3708.7
970.7277	2434.0503	4577.35	3676.7
970.8572	2435.4246	4562.05	3660
970.9867	2436.7982	4556.85	3654.05
971.1161	2438.1711	4539.1	3637.4
971.2456	2439.5433	4507.95	3607.9
971.375	2440.9148	4513.9	3608.8
971.5043	2442.2856	4483.5	3586.65
971.6336	2443.6557	4475.05	3575.75
971.7629	2445.025	4444.05	3548.05
971.8922	2446.3937	4471.3	3570.45
972.0214	2447.7617	4430.65	3531.25
972.1506	2449.1289	4424.5	3527.4
972.2798	2450.4955	4419	3517.5
972.4089	2451.8613	4401.3	3504.85
972.538	2453.2265	4390.05	3493.45
972.6671	2454.5909	4395.15	3497.65
972.7961	2455.9546	4381.95	3482.4
972.9251	2457.3177	4360.25	3459.4
973.0541	2458.68	4360.7	3459.65
973.1831	2460.0416	4355.5	3455.3
973.312	2461.4025	4337.9	3438.7
973.4408	2462.7627	4334.5	3427.35
973.5697	2464.1222	4299.9	3403.7
973.6985	2465.4811	4299.35	3402.7
973.8273	2466.8392	4272.75	3375.7
973.956	2468.1966	4263.65	3364
974.0847	2469.5533	4278	3377.4
974.2134	2470.9093	4255.55	3356.85
974.3421	2472.2645	4252.65	3355.95
974.4707	2473.6191	4235.95	3339.75
974.5993	2474.973	4219.05	3319.95
974.7278	2476.3262	4215.75	3316.55
974.8563	2477.6787	4190	3295.15
974.9848	2479.0305	4177	3279.35
975.1132	2480.3816	4175.5	3276.85
975.2417	2481.7319	4180.05	3282.8
975.37	2483.0816	4146.95	3247.8
975.4984	2484.4306	4148.55	3249.6
975.6267	2485.7789	4137.5	3243.35
975.755	2487.1264	4114.6	3218.4
975.8833	2488.4733	4108.5	3214.25
976.0115	2489.8195	4093.35	3181.6
976.1397	2491.165	4079.25	3180.65
976.2678	2492.5097	4066.6	3171.25
976.3959	2493.8538	4031.7	3136.65
976.524	2495.1972	4026.65	3131.15
976.6521	2496.5398	4021.75	3122.6
976.7801	2497.8818	4016.45	3115.5
976.9081	2499.2231	4003.05	3103.4
977.036	2500.5637	3996.85	3096.65
977.164	2501.9035	3980.1	3079.5
977.2918	2503.2427	3970.15	3068
977.4197	2504.5812	3955.1	3056.9
977.5475	2505.919	3935.1	3035.9
977.6753	2507.256	3943.55	3045.55
977.8031	2508.5924	3928	3029.9
977.9308	2509.9281	3921.35	3019.65
978.0585	2511.2631	3894.35	2997.75
978.1861	2512.5974	3889.8	2993.55
978.3137	2513.9309	3865.3	2969.75
978.4413	2515.2638	3874.7	2955.35
978.5689	2516.596	3869.4	2971.6
978.6964	2517.9275	3842.95	2943.15
978.8239	2519.2583	3846.75	2950.15
978.9513	2520.5884	3838	2939.15
979.0788	2521.9178	3815.4	2918.15
979.2062	2523.2465	3808.95	2913.8
979.3335	2524.5745	3784.15	2887.8
979.4608	2525.9018	3772.05	2876.1
979.5881	2527.2284	3759.1	2862.8
979.7154	2528.5543	3761.8	2864.55
979.8426	2529.8796	3757.85	2862.5
979.9698	2531.2041	3744.6	2849.65
980.0969	2532.5279	3729.9	2835.75
980.224	2533.851	3711.05	2814.5
980.3511	2535.1735	3722.95	2824.65
980.4781	2536.4952	3729.35	2829.65
980.6052	2537.8163	3708.85	2807.2
980.7321	2539.1366	3711.5	2813.1
980.8591	2540.4562	3709.35	2808.55
980.986	2541.7752	3683.95	2784.55
981.1129	2543.0935	3682.9	2782.4
981.2397	2544.411	3670.45	2769.25
981.3665	2545.7279	3667.5	2766.85
981.4933	2547.0441	3661.8	2763.5
981.62	2548.3596	3678.85	2775.25
981.7467	2549.6744	3661	2762.5
981.8734	2550.9885	3644.5	2743.4
982.0001	2552.3019	3640.65	2742.8
982.1267	2553.6146	3628.25	2728.85
982.2532	2554.9266	3609.6	2709.95
982.3798	2556.2379	3603	2703.8
982.5063	2557.5485	3586.75	2689.1
982.6327	2558.8585	3586.8	2679.65
982.7592	2560.1677	3589.65	2686.5
982.8856	2561.4762	3585.55	2685.1
983.0119	2562.7841	3579.45	2679.05
983.1383	2564.0913	3581.75	2685.3
983.2646	2565.3977	3562.8	2663.6
983.3908	2566.7035	3537.75	2641.05
983.517	2568.0086	3544.4	2643.25
983.6432	2569.313	3544.7	2643.7
983.7694	2570.6167	3532.25	2630.95
983.8955	2571.9197	3531.05	2631.55
984.0216	2573.222	3524.5	2622.85
984.1476	2574.5236	3515.25	2615.45
984.2737	2575.8246	3497.5	2597.65
984.3996	2577.1248	3503.5	2602.45
984.5256	2578.4244	3503.55	2605.5
984.6515	2579.7232	3494.3	2596.4
984.7774	2581.0214	3501.1	2571.9
984.9032	2582.3189	3468.5	2572.05
985.029	2583.6157	3464.95	2562.1
985.1548	2584.9118	3480.4	2579.8
985.2806	2586.2072	3458.2	2558.6
985.4063	2587.5019	3449	2552.6
985.5319	2588.7959	3448.75	2550.65
985.6576	2590.0893	3446.85	2546.8
985.7832	2591.3819	3434	2534.75
985.9087	2592.6739	3424.4	2528.7
986.0343	2593.9652	3420.85	2521.45
986.1597	2595.2557	3402.3	2504.2
986.2852	2596.5456	3413.5	2512.95
986.4106	2597.8348	3394.65	2499.55
986.536	2599.1234	3380.3	2483.3
986.6614	2600.4112	3371.4	2472.75
986.7867	2601.6983	3368.25	2466.7
986.912	2602.9848	3376.65	2478.1
987.0372	2604.2705	3354.45	2452.35
987.1624	2605.5556	3337.25	2439.2
987.2876	2606.84	3325.45	2429.2
987.4128	2608.1237	3310.9	2411.45
987.5379	2609.4067	3308.85	2412.1
987.6629	2610.689	3295.55	2389
987.788	2611.9707	3292.3	2389.7
987.913	2613.2516	3286.45	2382.5
988.0379	2614.5319	3256.5	2360.7
988.1629	2615.8115	3246.75	2350.15
988.2878	2617.0903	3248.95	2349
988.4126	2618.3685	3233.35	2335.7
988.5375	2619.6461	3232.2	2333.45
988.6622	2620.9229	3221.85	2325.85
988.787	2622.199	3222.5	2326.7
988.9117	2623.4745	3211.8	2313.7
989.0364	2624.7493	3202.15	2304.75
989.161	2626.0234	3175.7	2278.8
989.2857	2627.2968	3174.95	2277.1
989.4102	2628.5695	3164.9	2266.7
989.5348	2629.8415	3152.15	2254.4
989.6593	2631.1128	3147.2	2247.95
989.7837	2632.3835	3133.2	2238.3
989.9082	2633.6535	3131.7	2233.5
990.0326	2634.9228	3133.85	2238.45
990.1569	2636.1914	3115.65	2220.75
990.2812	2637.4593	3112.85	2214.9
990.4055	2638.7265	3098.45	2200.85
990.5298	2639.9931	3106.65	2209.6
990.654	2641.259	3088.85	2191
990.7782	2642.5242	3075.2	2177.85
990.9023	2643.7887	3065.2	2169.75
991.0264	2645.0525	3074.85	2178.85
991.1505	2646.3156	3071.75	2160.95
991.2745	2647.5781	3054	2159
991.3985	2648.8398	3043.95	2147.25
991.5225	2650.1009	3053.15	2133.3
991.6464	2651.3613	3034.4	2138.65
991.7703	2652.6211	3025.2	2130.2
991.8942	2653.8801	3015.65	2117.3
992.018	2655.1385	3007.9	2109.1
992.1418	2656.3961	3003.35	2108.15
992.2655	2657.6531	2994.7	2101.75
992.3892	2658.9094	2983.8	2088.5
992.5129	2660.1651	2986.8	2090.15
992.6366	2661.42	2983.6	2087.3
992.7602	2662.6743	2988.75	2090.55
992.8837	2663.9279	2980.5	2086.7
993.0073	2665.1808	2970.7	2073.05
993.1307	2666.433	2960.5	2063.45
993.2542	2667.6846	2966.95	2072.25
993.3776	2668.9354	2967.15	2068.85
993.501	2670.1856	2946.3	2048.9
993.6244	2671.4351	2948.4	2054.25
993.7477	2672.6839	2943.2	2045.45
993.8709	2673.9321	2932.25	2037.4
993.9942	2675.1795	2928.25	2032.45
994.1174	2676.4263	2925.6	2029.8
994.2405	2677.6724	2911.8	2015.1
994.3637	2678.9179	2915.85	2018.1
994.4868	2680.1626	2909.05	2012.85
994.6098	2681.4067	2910.65	2015
994.7328	2682.6501	2909.3	2014.5
994.8558	2683.8928	2894.55	1999.8
994.9788	2685.1348	2893.95	2001.2
995.1017	2686.3761	2872.5	1978.3
995.2245	2687.6168	2872	1976.6
995.3474	2688.8568	2847.6	1951.3
995.4702	2690.0961	2846.8	1951.95
995.5929	2691.3348	2856.7	1961.35
995.7156	2692.5727	2839	1942.25
995.8383	2693.81	2829.5	1933.4
995.961	2695.0466	2825.85	1931.05
996.0836	2696.2826	2813.25	1917.6
996.2062	2697.5178	2814.6	1916.8
996.3287	2698.7524	2805.85	1909.9
996.4512	2699.9863	2808.4	1910.3
996.5737	2701.2195	2794.6	1900.95
996.6961	2702.452	2801.75	1904.2
996.8185	2703.6839	2794.45	1897.5
996.9408	2704.9151	2781.7	1887.3
997.0631	2706.1456	2790	1895.85
997.1854	2707.3755	2790.35	1894.3
997.3077	2708.6046	2778.4	1879.65
997.4299	2709.8331	2795.85	1899.95
997.552	2711.0609	2773.1	1877.15
997.6742	2712.2881	2768.65	1874.5
997.7963	2713.5145	2772.55	1878.5
997.9183	2714.7403	2791.15	1895.95
998.0403	2715.9654	2776.3	1878.4
998.1623	2717.1899	2796.75	1887.2
998.2842	2718.4136	2785.65	1889.65
998.4062	2719.6367	2783.6	1886.9
998.528	2720.8591	2792	1891
998.6498	2722.0809	2783.65	1888.8
998.7716	2723.3019	2785.9	1887.65
998.8934	2724.5223	2784.2	1890.1
999.0151	2725.7421	2781.25	1888.1
999.1368	2726.9611	2781.25	1887.25
999.2584	2728.1795	2769.6	1870.8
999.38	2729.3972	2762.3	1867.7
999.5016	2730.6142	2749	1845.8
999.6231	2731.8306	2734.95	1841.05
999.7446	2733.0462	2702.8	1807.55
999.8661	2734.2612	2688.5	1791.95
999.9875	2735.4756	2672.3	1778
1000.1089	2736.6892	2657.1	1764.1
1000.2302	2737.9022	2641.9	1749.75
1000.3515	2739.1145	2638.25	1745.8
1000.4728	2740.3262	2621.4	1719
1000.594	2741.5372	2600.3	1708.65
1000.7152	2742.7475	2587.9	1695.95
1000.8363	2743.9571	2576.65	1680
1000.9575	2745.1661	2572.45	1673.2
1001.0785	2746.3744	2555.65	1657.45
1001.1996	2747.582	2553.7	1660.8
1001.3206	2748.7889	2538.1	1642.95
1001.4415	2749.9952	2532	1637.7
1001.5625	2751.2008	2509.7	1616.5
1001.6833	2752.4057	2513.15	1616.9
1001.8042	2753.61	2502.1	1607.45
1001.925	2754.8136	2491.8	1595.65
1002.0458	2756.0165	2484.95	1592.05
1002.1665	2757.2188	2489.85	1595.85
1002.2872	2758.4204	2461.7	1570.35
1002.4078	2759.6213	2465.85	1570.35
1002.5285	2760.8215	2468.5	1570.1
1002.649	2762.0211	2461.25	1566.7
1002.7696	2763.22	2461.95	1565
1002.8901	2764.4182	2452.4	1556
1003.0106	2765.6158	2442.7	1549.7
1003.131	2766.8127	2425.6	1532.25
1003.2514	2768.009	2429.45	1537.25
1003.3717	2769.2045	2428.9	1536.25
1003.492	2770.3994	2428.95	1533.05
1003.6123	2771.5936	2408.4	1514.3
1003.7325	2772.7872	2395.1	1502.7
1003.8527	2773.9801	2391.6	1499.1
1003.9729	2775.1723	2395.4	1485.95
1004.093	2776.3639	2379.9	1487.4
1004.2131	2777.5548	2380.4	1486.65
1004.3331	2778.745	2366.9	1473.05
1004.4531	2779.9346	2370.45	1479.5
1004.5731	2781.1235	2373.5	1480.05
1004.693	2782.3117	2366.3	1474.15
1004.8129	2783.4992	2357.7	1467.4
1004.9328	2784.6861	2353.05	1463.15
1005.0526	2785.8723	2353.9	1460.3
1005.1723	2787.0579	2357.5	1465.1
1005.2921	2788.2428	2367.3	1473.35
1005.4118	2789.427	2345.55	1452.4
1005.5314	2790.6106	2353	1460.9
1005.651	2791.7935	2357.6	1464.6
1005.7706	2792.9757	2343.9	1452.15
1005.8902	2794.1573	2356.4	1462.3
1006.0097	2795.3382	2341.4	1448
1006.1291	2796.5184	2355.1	1464.25
1006.2485	2797.698	2367.45	1472.55
1006.3679	2798.8769	2374	1482.5
1006.4873	2800.0551	2360.6	1470.8
1006.6066	2801.2327	2370.05	1475.05
1006.7258	2802.4096	2380.8	1490.45
1006.8451	2803.5859	2388.95	1496.8
1006.9642	2804.7615	2393.1	1501.75
1007.0834	2805.9364	2402.8	1511.1
1007.2025	2807.1106	2423.6	1532
1007.3216	2808.2842	2440.1	1547.8
1007.4406	2809.4572	2461.15	1569
1007.5596	2810.6294	2476.15	1584.65
1007.6785	2811.801	2494.55	1603.4
1007.7975	2812.972	2519.05	1629.45
1007.9163	2814.1423	2551.3	1658.5
1008.0352	2815.3119	2582.15	1689.95
1008.154	2816.4808	2619.1	1727.8
1008.2727	2817.6491	2640.6	1749.05
1008.3914	2818.8167	2678.35	1788.8
1008.5101	2819.9837	2721.65	1826.95
1008.6288	2821.15	2749.9	1858.05
1008.7474	2822.3157	2795.75	1908.25
1008.8659	2823.4807	2823.65	1931.95
1008.9844	2824.645	2864.05	1974.5
1009.1029	2825.8086	2901.6	2011.6
1009.2214	2826.9716	2937.05	2047.2
1009.3398	2828.134	2985.55	2095.75
1009.4581	2829.2957	3002.1	2111.15
1009.5764	2830.4567	3032.35	2140.55
1009.6947	2831.617	3039.35	2150.15
1009.813	2832.7767	3046.7	2156.15
1009.9312	2833.9358	3031.1	2141.65
1010.0493	2835.0941	3042.35	2151.15
1010.1675	2836.2519	3028.65	2138.2
1010.2855	2837.4089	3005.1	2115.65
1010.4036	2838.5653	3014.4	2123.7
1010.5216	2839.7211	2986.65	2097.65
1010.6396	2840.8761	2979.35	2085.05
1010.7575	2842.0306	2978.45	2088.2
1010.8754	2843.1843	2999.1	2110.4
1010.9932	2844.3374	3018.9	2128.55
1011.111	2845.4899	3064.5	2172
1011.2288	2846.6417	3096.95	2206.15
1011.3465	2847.7928	3139.75	2250.65
1011.4642	2848.9433	3184.65	2294.35
1011.5818	2850.0931	3222.7	2332.4
1011.6995	2851.2422	3274.5	2381.7
1011.817	2852.3907	3313.75	2421.35
1011.9345	2853.5385	3351.35	2459.25
1012.052	2854.6857	3393.15	2495.55
1012.1695	2855.8323	3422.55	2534.1
1012.2869	2856.9781	3457.4	2567.15
1012.4042	2858.1233	3504.8	2614.7
1012.5216	2859.2679	3524.8	2636.2
1012.6389	2860.4118	3558.35	2669.6
1012.7561	2861.555	3597.9	2702.9
1012.8733	2862.6976	3623	2730.85
1012.9905	2863.8395	3635.9	2744.7
1013.1076	2864.9808	3670.15	2780.05
1013.2247	2866.1214	3689.65	2801.55
1013.3417	2867.2614	3686.1	2795.75
1013.4587	2868.4007	3687.6	2794.25
1013.5757	2869.5393	3698.95	2807.8
1013.6926	2870.6773	3704.4	2812.65
1013.8095	2871.8146	3723.25	2829.1
1013.9263	2872.9513	3705.15	2813.35
1014.0431	2874.0874	3702.65	2814.05
1014.1599	2875.2227	3664.3	2775.15
1014.2766	2876.3574	3670.4	2780.5
1014.3933	2877.4915	3657.55	2768.95
1014.51	2878.6249	3612.55	2724.05
1014.6266	2879.7577	3602.25	2712.7
1014.7431	2880.8898	3587.3	2688.6
1014.8596	2882.0212	3564.65	2675.85
1014.9761	2883.152	3562.65	2673.6
1015.0925	2884.2821	3549.6	2661.1
1015.2089	2885.4116	3531.5	2643
1015.3253	2886.5405	3534.95	2647.45
1015.4416	2887.6686	3531.7	2637.95
1015.5579	2888.7962	3540.8	2652.2
1015.6741	2889.923	3543.55	2654.65
1015.7903	2891.0493	3532.25	2644.45
1015.9065	2892.1748	3545	2656.3
1016.0226	2893.2997	3548.45	2660.65
1016.1387	2894.424	3547.25	2659.3
1016.2547	2895.5476	3562.35	2674.25
1016.3707	2896.6706	3577.3	2687.65
1016.4866	2897.7929	3584.75	2696.2
1016.6025	2898.9145	3602.35	2711.75
1016.7184	2900.0355	3613.25	2724.95
1016.8342	2901.1559	3638.35	2750.25
1016.95	2902.2756	3645.7	2757.05
1017.0658	2903.3946	3684.65	2794.8
1017.1815	2904.513	3680.55	2788.9
1017.2971	2905.6308	3704.3	2812.9
1017.4127	2906.7479	3729.05	2838.85
1017.5283	2907.8643	3744.1	2853.5
1017.6439	2908.9801	3743.15	2855
1017.7594	2910.0953	3727.25	2839.2
1017.8748	2911.2098	3743.9	2852.4
1017.9902	2912.3236	3751.45	2852.25
1018.1056	2913.4368	3723.9	2830.3
1018.2209	2914.5494	3702.8	2814
1018.3362	2915.6613	3675.85	2784.7
1018.4515	2916.7725	3652.65	2762.7
1018.5667	2917.8831	3610.65	2719.9
1018.6819	2918.9931	3603.7	2711.6
1018.797	2920.1024	3581.4	2690.7
1018.9121	2921.211	3555.7	2668.05
1019.0271	2922.319	3532.05	2644.3
1019.1421	2923.4264	3517.3	2627.65
1019.2571	2924.5331	3513.4	2625.3
1019.372	2925.6391	3505.7	2616
1019.4869	2926.7445	3509.2	2622.55
1019.6017	2927.8493	3493.15	2604.85
1019.7165	2928.9534	3511.25	2621.6
1019.8313	2930.0569	3491.9	2600.7
1019.946	2931.1597	3500.85	2610.55
1020.0606	2932.2619	3478.8	2591.15
1020.1753	2933.3634	3495.55	2608.85
1020.2899	2934.4643	3499.05	2604.1
1020.4044	2935.5645	3481.55	2588.15
1020.5189	2936.6641	3465.15	2573.05
1020.6334	2937.763	3441.25	2554.15
1020.7478	2938.8613	3409.25	2521.4
1020.8622	2939.959	3367	2474.3
1020.9765	2941.056	3297	2410.65
1021.0908	2942.1523	3249.2	2359.8
1021.2051	2943.248	3204.9	2316.95
1021.3193	2944.3431	3129.05	2241.65
1021.4334	2945.4375	3044.6	2157.9
1021.5476	2946.5313	2981.35	2094.9
1021.6617	2947.6244	2911.15	2022.7
1021.7757	2948.7169	2830.95	1942.05
1021.8897	2949.8087	2761.1	1874.5
1022.0037	2950.8999	2674.35	1785.3
1022.1176	2951.9904	2613.5	1725.9
1022.2315	2953.0803	2559.2	1668.55
1022.3453	2954.1696	2505.25	1618.1
1022.4591	2955.2582	2475.75	1587.25
1022.5728	2956.3462	2437.25	1550.4
1022.6865	2957.4335	2400.2	1512.15
1022.8002	2958.5202	2374.5	1484
1022.9138	2959.6062	2348.85	1462.35
1023.0274	2960.6916	2324.2	1437.4
1023.141	2961.7764	2301.8	1412.15
1023.2545	2962.8605	2293.4	1407.05
1023.3679	2963.9439	2280.8	1394.45
1023.4813	2965.0267	2264.5	1375
1023.5947	2966.1089	2280.4	1372.7
1023.708	2967.1905	2261.15	1375.05
1023.8213	2968.2714	2257.25	1370.85
1023.9346	2969.3516	2254.55	1367.65
1024.0478	2970.4312	2266.15	1372.2
1024.1609	2971.5102	2252.65	1365.05
1024.274	2972.5885	2253.4	1367.7
1024.3871	2973.6662	2250.05	1358.3
1024.5002	2974.7432	2255.1	1368.3
1024.6132	2975.8196	2237.9	1350.45
1024.7261	2976.8954	2232.95	1347.35
1024.839	2977.9705	2229.15	1342
1024.9519	2979.045	2214.7	1329.55
1025.0647	2980.1188	2199.45	1310.5
1025.1775	2981.192	2186.65	1299.8
1025.2902	2982.2645	2175.75	1288.35
1025.4029	2983.3364	2153.35	1268.05
1025.5156	2984.4077	2121.6	1235.8
1025.6282	2985.4783	2113.85	1221.5
1025.7407	2986.5483	2079.85	1194.3
1025.8532	2987.6177	2055.05	1169.95
1025.9657	2988.6864	2023.25	1138.15
1026.0782	2989.7545	2001.65	1113.25
1026.1906	2990.8219	1966.2	1079.7
1026.3029	2991.8887	1938.8	1050.4
1026.4152	2992.9548	1924.45	1037.65
1026.5275	2994.0204	1891.15	1007.75
1026.6397	2995.0852	1869.6	985.4
1026.7519	2996.1495	1851.15	965.25
1026.864	2997.2131	1829.05	943.8
1026.9761	2998.276	1807.4	918
1027.0882	2999.3383	1791.05	903.7
1027.2002	3000.4	1770.6	882.55
1027.3122	3001.4611	1756.9	868.3
1027.4241	3002.5215	1736.6	848.45
1027.536	3003.5812	1726.65	840.05
1027.6478	3004.6404	1712.95	826.65
1027.7596	3005.6989	1706.3	820.75
1027.8714	3006.7567	1698.3	810.8
1027.9831	3007.8139	1698.85	792.55
1028.0947	3008.8705	1684.05	797.3
1028.2064	3009.9264	1684.95	781.6
1028.3179	3010.9818	1660.1	775.35
1028.4295	3012.0364	1661.8	774.6
1028.541	3013.0905	1641.25	754.85
1028.6524	3014.1439	1648.1	760
1028.7638	3015.1966	1642.35	756.2
1028.8752	3016.2487	1636.3	750.2
1028.9865	3017.3002	1638.15	746.75
1029.0978	3018.3511	1630.75	744.5
1029.209	3019.4013	1626.75	739.45
1029.3202	3020.4509	1618.1	734.3
1029.4314	3021.4998	1621.95	735.95
1029.5425	3022.5481	1614.35	729.7
1029.6535	3023.5958	1608.6	722.55
1029.7645	3024.6428	1617.25	731.55
1029.8755	3025.6892	1602.8	717.1
1029.9864	3026.735	1616.2	731.45
1030.0973	3027.7802	1594.45	707.8
1030.2082	3028.8247	1597.6	713.7
1030.319	3029.8685	1600.5	713.55
1030.4297	3030.9118	1594.45	708.9
1030.5404	3031.9544	1593.05	708.35
1030.6511	3032.9963	1601.15	714.4
1030.7617	3034.0376	1594.1	706.95
1030.8723	3035.0783	1607.85	719.45
1030.9829	3036.1184	1604.05	717.25
1031.0934	3037.1578	1600.55	717.4
1031.2038	3038.1966	1594.6	707.55
1031.3142	3039.2348	1593.2	709.85
1031.4246	3040.2723	1602.9	711.6
1031.5349	3041.3092	1595.05	710.5
1031.6452	3042.3455	1596	708.45
1031.7554	3043.3811	1589.4	703.05
1031.8656	3044.4161	1581.25	695.2
1031.9758	3045.4505	1583.9	699.65
1032.0859	3046.4842	1578	692.9
1032.1959	3047.5173	1568.9	684.4
1032.3059	3048.5498	1573.45	688.15
1032.4159	3049.5816	1566.3	680
1032.5258	3050.6128	1572.1	685.95
1032.6357	3051.6434	1563.9	675.6
1032.7455	3052.6734	1548	661.55
1032.8553	3053.7027	1548.15	664.3
1032.9651	3054.7314	1543.4	658.7
1033.0748	3055.7594	1537.65	652.85
1033.1845	3056.7868	1535.9	651.05
1033.2941	3057.8136	1535.45	651.8
1033.4037	3058.8398	1528.05	645.9
1033.5132	3059.8653	1522.15	638.85
1033.6227	3060.8902	1523.4	637.9
1033.7321	3061.9145	1517.95	635.55
1033.8415	3062.9381	1515.85	632.3
1033.9509	3063.9612	1519.85	619.65
1034.0602	3064.9835	1508.85	624.6
1034.1694	3066.0053	1500.5	615.25
1034.2787	3067.0264	1493.5	608.35
1034.3878	3068.0469	1486.05	599.15
1034.497	3069.0668	1493.15	606.8
1034.6061	3070.086	1477.6	593.45
1034.7151	3071.1046	1482	597.8
1034.8241	3072.1226	1470.1	584.5
1034.9331	3073.1399	1459.35	574.15
1035.042	3074.1567	1457.7	573.8
1035.1508	3075.1727	1455.9	567.55
1035.2597	3076.1882	1446.5	563.95
1035.3684	3077.203	1441.45	558
1035.4772	3078.2173	1423.2	536.7
1035.5859	3079.2308	1422.6	534.6
1035.6945	3080.2438	1414.35	528.6
1035.8031	3081.2561	1405.4	521.4
1035.9117	3082.2678	1398.05	513
1036.0202	3083.2789	1395.7	511.4
1036.1286	3084.2893	1392.15	510.9
1036.2371	3085.2991	1388.65	503.55
1036.3454	3086.3083	1381.5	490.7
1036.4538	3087.3169	1372.35	486.95
1036.562	3088.3248	1369.15	482.45
1036.6703	3089.3321	1369.25	483.2
1036.7785	3090.3388	1355.85	471.3
1036.8866	3091.3449	1352.5	466.6
1036.9948	3092.3503	1357.1	469.35
1037.1028	3093.3551	1351.1	468.25
1037.2108	3094.3593	1346	463.75
1037.3188	3095.3629	1337.6	453.35
1037.4267	3096.3658	1345.85	461.35
1037.5346	3097.3681	1337.55	453.05
1037.6425	3098.3698	1330.9	444.95
1037.7503	3099.3708	1328.75	439.3
1037.858	3100.3713	1322.45	440.25
1037.9657	3101.3711	1325.55	440.05
1038.0734	3102.3702	1443.05	425.45
1038.181	3103.3688	1324.35	438.25
1038.2886	3104.3667	1313.45	429.35
1038.3961	3105.364	1310.6	426.95
1038.5036	3106.3607	1308.75	422.35
1038.611	3107.3568	1299.8	414.1
1038.7184	3108.3522	1291.05	408.35
1038.8257	3109.347	1297.3	411.7
1038.933	3110.3412	1295.7	406.85
1039.0403	3111.3348	1292.6	408.95
1039.1475	3112.3277	1286.65	404.65
1039.2547	3113.32	1281.75	397.1
1039.3618	3114.3117	1281.7	396.4
1039.4689	3115.3028	1277.1	392.65
1039.5759	3116.2932	1279.25	393.25
1039.6829	3117.2831	1279.45	391.05
1039.7898	3118.2723	1272.3	389.05
1039.8967	3119.2608	1267.1	381
1040.0035	3120.2488	1265	381.3
1040.1103	3121.2361	1262.7	377.95
1040.2171	3122.2229	1257.05	375.3
1040.3238	3123.209	1264.95	379.55
1040.4305	3124.1944	1255.3	371.75
1040.5371	3125.1793	1254.95	368.85
1040.6437	3126.1635	1248.5	364.8
1040.7502	3127.1471	1251.05	367.55
1040.8567	3128.1301	1249.7	367.7
1040.9631	3129.1125	1243.25	359.35
1041.0695	3130.0942	1245.65	359.65
1041.1759	3131.0753	1245.35	351.75
1041.2822	3132.0558	1240.2	354.3
1041.3884	3133.0357	1231.6	345.6
1041.4946	3134.015	1234.4	349.1
1041.6008	3134.9936	1230.3	344.7
1041.7069	3135.9716	1251.8	345
1041.813	3136.949	1229.5	345.55
1041.919	3137.9258	1242	339.6
1042.025	3138.902	1231.15	342.85
1042.1309	3139.8775	1224.1	342.6
1042.2368	3140.8524	1216.4	331.6
1042.3427	3141.8267	1224.05	339.2
1042.4485	3142.8004	1217.15	333.35
1042.5542	3143.7735	1224.7	336
1042.6599	3144.7459	1218.8	334.25
1042.7656	3145.7178	1213.85	329.25
1042.8712	3146.689	1211.2	327.25
1042.9768	3147.6596	1211.4	327.55
1043.0823	3148.6295	1207.45	326.95
1043.1878	3149.5989	1202.7	316.65
1043.2932	3150.5676	1198.15	315.5
1043.3986	3151.5357	1196.6	315.55
1043.5039	3152.5032	1195.45	311.8
1043.6092	3153.4701	1196.5	313.65
1043.7145	3154.4364	1192	306.65
1043.8197	3155.402	1191.65	309.15
1043.9248	3156.367	1194.05	308.95
1044.03	3157.3315	1227	308.1
1044.135	3158.2952	1194.25	308.95
1044.24	3159.2584	1191.05	310.45
1044.345	3160.221	1183.7	298.15
1044.4499	3161.1829	1180.75	299.45
1044.5548	3162.1442	1183.05	300.75
1044.6596	3163.105	1173.65	291.15
1044.7644	3164.065	1175.9	291.75
1044.8692	3165.0245	1181.15	293
1044.9739	3165.9834	1170.75	288.45
1045.0785	3166.9416	1167.7	283.15
1045.1831	3167.8993	1166.25	283.3
1045.2877	3168.8563	1172.15	287.6
1045.3922	3169.8127	1162.9	280.95
1045.4966	3170.7684	1165.85	282.35
1045.6011	3171.7236	1168.65	287.7
1045.7054	3172.6782	1166.25	284.6
1045.8098	3173.6321	1157.05	273.3
1045.914	3174.5854	1160.6	273
1046.0183	3175.5381	1151	266.5
1046.1224	3176.4902	1154	272.2
1046.2266	3177.4417	1152.2	269.55
1046.3307	3178.3926	1156.4	274.15
1046.4347	3179.3428	1153.2	271.25
1046.5387	3180.2924	1145.8	263.1
1046.6427	3181.2415	1142.5	259.65
1046.7466	3182.1899	1149.65	263.25
1046.8504	3183.1377	1142.4	260.05
1046.9542	3184.0848	1145.55	257.75
1047.058	3185.0314	1141.3	258.95
1047.1617	3185.9773	1137.25	254.65
1047.2654	3186.9227	1141.95	257.3
1047.369	3187.8674	1136.85	254.5
1047.4726	3188.8115	1139.75	252.65
1047.5761	3189.755	1133.75	251.6
1047.6796	3190.6979	1133.7	250.1
1047.783	3191.6402	1134.35	252.85
1047.8864	3192.5818	1132.7	248.8
1047.9898	3193.5229	1135.85	245.8
1048.0931	3194.4633	1125.65	240.7
1048.1963	3195.4031	1127.65	243.7
1048.2995	3196.3423	1124.3	242.7
1048.4027	3197.2809	1121.65	240.95
1048.5058	3198.2189	1126.75	243.1
1048.6089	3199.1563	1131.5	243.75
1048.7119	3200.0931	1119.95	237.85
1048.8148	3201.0292	1114.6	232.5
1048.9178	3201.9648	1118.4	236.55
1049.0206	3202.8997	1116.05	229.9
1049.1235	3203.834	1116.05	232.5
1049.2262	3204.7677	1113.5	231.05
1049.329	3205.7008	1114.15	231.25
1049.4317	3206.6333	1113.6	230.85
1049.5343	3207.5652	1112.2	226.75
1049.6369	3208.4964	1108.1	225.3
1049.7394	3209.4271	1109.85	229.9
1049.8419	3210.3571	1104.4	221.75
1049.9444	3211.2865	1103	219.35
1050.0468	3212.2154	1103.9	220.4
1050.1491	3213.1436	1106.5	223.2
1050.2514	3214.0712	1110.85	221.25
1050.3537	3214.9982	1105	223.7
1050.4559	3215.9246	1100.6	216.4
1050.5581	3216.8503	1102.25	221.6
1050.6602	3217.7755	1097.95	215.25
1050.7623	3218.7001	1094.75	210
1050.8643	3219.624	1096.55	215.4
1050.9663	3220.5473	1092.9	208.75
1051.0682	3221.4701	1097.9	214.9
1051.1701	3222.3922	1086.85	202.2
1051.2719	3223.3137	1090.1	208.05
1051.3737	3224.2346	1090.35	209.75
1051.4754	3225.1549	1089.95	207.5
1051.5771	3226.0746	1087.65	204.95
1051.6788	3226.9937	1088.7	206.5
1051.7804	3227.9121	1088.4	207.85
1051.8819	3228.83	1088.95	207.1
1051.9834	3229.7473	1082.35	197.35
1052.0849	3230.6639	1079.2	196.65
1052.1863	3231.5799	1077.55	194.25
1052.2876	3232.4954	1076.05	193.4
1052.3889	3233.4102	1080.25	198.2
1052.4902	3234.3244	1078.6	196.3
1052.5914	3235.238	1073.95	192.25
1052.6926	3236.151	1094.9	186.65
1052.7937	3237.0634	1074.05	193.1
1052.8948	3237.9752	1072	188.65
1052.9958	3238.8864	1076.65	194.5
1053.0968	3239.797	1070.4	188.25
1053.1977	3240.7069	1069.45	187.4
1053.2986	3241.6163	1067.05	183.3
1053.3994	3242.5251	1066.25	186.1
1053.5002	3243.4332	1064.45	182.45
1053.6009	3244.3408	1064.45	181.95
1053.7016	3245.2477	1059.6	176.9
1053.8022	3246.154	1061.75	179.6
1053.9028	3247.0598	1063.5	181
1054.0034	3247.9649	1062.65	180.55
1054.1039	3248.8694	1057.15	173.75
1054.2043	3249.7733	1060.55	177.05
1054.3047	3250.6766	1056.35	173
1054.4051	3251.5793	1054.6	170.95
1054.5054	3252.4814	1052.05	170
1054.6056	3253.3829	1053.35	170.6
1054.7058	3254.2838	1048.95	168.15
1054.806	3255.1841	1049.15	167.1
1054.9061	3256.0838	1047.35	166.75
1055.0061	3256.9829	1047.45	168.1
1055.1062	3257.8814	1048	162.85
1055.2061	3258.7792	1046.05	161.05
1055.306	3259.6765	1043.2	160.15
1055.4059	3260.5731	1040.35	159.6
1055.5057	3261.4692	1037	154.1
1055.6055	3262.3647	1039.75	157.45
1055.7052	3263.2595	1035.6	154.35
1055.8049	3264.1538	1030.75	148.85
1055.9045	3265.0474	1030.8	148.25
1056.0041	3265.9404	1029	149.1
1056.1036	3266.8329	1025.45	143.95
1056.2031	3267.7247	1029.65	138.05
1056.3025	3268.616	1019.2	137.5
1056.4019	3269.5066	1015.3	133.3
1056.5013	3270.3966	1010.4	126.15
1056.6005	3271.286	1009.75	130.1
