Software Version:	3.9.2.0
Unit SN:	10000200
Spectrometer SN:	6960
Date:	3/26/2024 2:48:18 PM
Data Line Index:	25
Spectral Points:	2048
Integration time (ms):	125
Averages:	20
Delay (ms):	30000
Sequence Number:	1
Processing:	dark subtract
Laser Power (mW):	300
Laser Current (mA):	820
Laser Diode Temp (C):	25
Laser Case Temp (C):	28
System Temp (C):	28
Spectrometer Temp (C):	25.9
CCD Temp (C):	0.005
Secondary Temp (C):	20.004
Heatsink Temp (C):	23.355
CCDPCB Temp (C):	37.585
SecondaryPCB Temp (C):	34.828

Wavelength	RamanShift	Raw Counts	Dark Subtracted
787.061	30.1047	629.25	217.8
787.2016	32.3739	639.55	228.65
787.3422	34.6426	647.75	235.8
787.4828	36.9109	669.7	258.65
787.6235	39.1787	685.75	269.05
787.7642	41.4461	711.3	289.8
787.9049	43.7131	738.2	313.35
788.0456	45.9796	757.45	328.95
788.1863	48.2456	777.55	345.3
788.3271	50.5112	808.15	374.95
788.4679	52.7764	829.65	393.45
788.6087	55.0411	858.15	416.85
788.7496	57.3054	889.55	443.4
788.8904	59.5692	919.9	469
789.0313	61.8326	958.15	506.4
789.1722	64.0955	994.15	536.35
789.3132	66.3579	1039.3	578.4
789.4541	68.6199	1089	623.85
789.5951	70.8815	1183.4	716.05
789.7361	73.1426	1378.8	906.45
789.8771	75.4032	1859.75	1380.85
790.0181	77.6634	3054.55	2569.9
790.1592	79.9231	6067.05	5573.35
790.3003	82.1824	13034.2	12522.8
790.4414	84.4412	28027.9	27483.8
790.5825	86.6995	54677.75	54084.75
790.7237	88.9574	65246.85	64614.5
790.8648	91.2148	65535	64872.05
791.006	93.4717	65535	64854.75
791.1472	95.7282	65535	64841.3
791.2885	97.9842	65535	64834.8
791.4297	100.2398	65535	64833.8
791.571	102.4949	65535	64825
791.7123	104.7495	65535	64829.2
791.8536	107.0036	65535	64831.55
791.9949	109.2573	65535	64828.9
792.1363	111.5105	65535	64826.85
792.2777	113.7632	65535	64826.4
792.4191	116.0154	65535	64815.35
792.5605	118.2672	65535	64818
792.7019	120.5185	65535	64822.15
792.8434	122.7693	65535	64818.85
792.9849	125.0197	65535	64812.6
793.1264	127.2696	65535	64807.2
793.2679	129.519	65535	64810.3
793.4094	131.7679	65535	64801
793.551	134.0163	65535	64797.85
793.6926	136.2642	65535	64798.35
793.8342	138.5117	65535	64790.15
793.9758	140.7587	65535	64790.15
794.1175	143.0052	65535	64787.8
794.2591	145.2512	65535	64790.25
794.4008	147.4967	65535	64790.95
794.5425	149.7417	65535	64789.95
794.6842	151.9863	65535	64783.85
794.826	154.2304	65535	64783.1
794.9677	156.4739	65535	64777.3
795.1095	158.717	65535	64771.55
795.2513	160.9596	65535	64768.35
795.3931	163.2017	65535	64765.3
795.535	165.4433	65535	64766
795.6768	167.6844	65535	64765.05
795.8187	169.925	65535	64766
795.9606	172.1651	65535	64761.45
796.1025	174.4047	65535	64761.4
796.2445	176.6439	65535	64760.35
796.3864	178.8825	65535	64752.5
796.5284	181.1206	65535	64745.8
796.6704	183.3582	65535	64742.25
796.8124	185.5954	65535	64742.5
796.9544	187.832	65535	64742.45
797.0965	190.0681	65535	64733.65
797.2386	192.3037	65535	64733.5
797.3806	194.5388	65535	64735.35
797.5228	196.7734	65535	64729.65
797.6649	199.0075	65535	64722.75
797.807	201.2411	65535	64727.7
797.9492	203.4742	65535	64722
798.0914	205.7068	65535	64718.3
798.2336	207.9389	65535	64719.2
798.3758	210.1704	65535	64718.45
798.518	212.4015	65535	64717.3
798.6603	214.632	65535	64718.45
798.8025	216.862	65535	64731.6
798.9448	219.0915	65535	64738.4
799.0871	221.3205	65535	64730.05
799.2294	223.549	65535	64737.35
799.3718	225.777	65535	64738.25
799.5141	228.0044	65535	64733.8
799.6565	230.2314	65535	64737.75
799.7989	232.4578	65535	64740.25
799.9413	234.6837	65535	64731.75
800.0837	236.909	65535	64729.55
800.2262	239.1339	65535	64698.85
800.3687	241.3582	65535	64717.95
800.5111	243.582	65535	64682.55
800.6536	245.8053	65535	64701.5
800.7961	248.0281	65535	64707.4
800.9387	250.2503	65535	64696.15
801.0812	252.472	65535	64695.45
801.2238	254.6932	65535	64694.45
801.3664	256.9139	65535	64693.3
801.509	259.134	65535	64684.9
801.6516	261.3536	65535	64697
801.7942	263.5727	65535	64687.05
801.9369	265.7912	65535	64689.15
802.0795	268.0092	65535	64686.25
802.2222	270.2267	65535	64688.2
802.3649	272.4436	65535	64693.35
802.5076	274.6601	65535	64682.35
802.6504	276.8759	65535	64686.95
802.7931	279.0913	65535	64682.15
802.9359	281.3061	65535	64678.6
803.0787	283.5204	65535	64673.45
803.2215	285.7341	65535	64679.3
803.3643	287.9473	65535	64663.15
803.5071	290.16	65535	64668.05
803.6499	292.3721	65535	64676.1
803.7928	294.5837	65535	64672.45
803.9357	296.7947	65535	64675.45
804.0786	299.0052	65535	64675.1
804.2215	301.2152	65535	64673.45
804.3644	303.4246	65535	64679.25
804.5074	305.6334	65535	64679.65
804.6503	307.8418	65535	64673.15
804.7933	310.0495	65535	64673.5
804.9363	312.2568	65535	64674.45
805.0793	314.4635	65535	64671.65
805.2223	316.6696	65535	64666.1
805.3653	318.8752	65535	64656.3
805.5084	321.0802	65535	64666.25
805.6514	323.2847	65535	64661.8
805.7945	325.4887	65535	64662
805.9376	327.692	65535	64662.3
806.0807	329.8949	65535	64663.65
806.2238	332.0972	65535	64661.05
806.367	334.2989	65535	64656.6
806.5101	336.5001	65535	64658.8
806.6533	338.7007	65535	64653.7
806.7965	340.9008	65535	64652.6
806.9397	343.1003	65535	64655.55
807.0829	345.2992	65535	64657.65
807.2261	347.4976	65535	64654.25
807.3693	349.6955	65535	64649.2
807.5126	351.8927	65535	64649.4
807.6559	354.0895	65535	64635.85
807.7991	356.2856	65535	64650
807.9424	358.4812	65535	64647.85
808.0857	360.6763	65535	64644.9
808.2291	362.8707	65535	64646.75
808.3724	365.0646	65535	64643.75
808.5158	367.258	65535	64636.8
808.6591	369.4508	65535	64636
808.8025	371.643	65535	64639.35
808.9459	373.8346	65535	64639.35
809.0893	376.0257	65535	64634.05
809.2327	378.2162	65535	64632
809.3762	380.4062	65535	64632.45
809.5196	382.5956	65535	64634.45
809.6631	384.7844	65535	64636.65
809.8066	386.9726	65535	64632.5
809.9501	389.1603	65535	64634.9
810.0936	391.3474	65535	64596.9
810.2371	393.5339	65535	64634.4
810.3806	395.7199	65535	64641.45
810.5241	397.9052	65535	64642.25
810.6677	400.09	65535	64643.35
810.8113	402.2743	65535	64646.65
810.9548	404.4579	65535	64645.55
811.0984	406.641	65535	64641.55
811.2421	408.8235	65535	64639.35
811.3857	411.0054	65535	64643.6
811.5293	413.1868	65535	64635.1
811.673	415.3675	65535	64635.1
811.8166	417.5477	65535	64634.8
811.9603	419.7273	65535	64637.65
812.104	421.9064	65535	64628.5
812.2477	424.0848	65535	64628.85
812.3914	426.2627	65535	64630.7
812.5351	428.4399	65535	64624.95
812.6788	430.6166	65535	64624.15
812.8226	432.7928	65535	64626.65
812.9663	434.9683	65535	64628.3
813.1101	437.1432	65535	64629.45
813.2539	439.3176	65535	64634.4
813.3977	441.4914	65535	64634.1
813.5415	443.6645	65535	64628.9
813.6853	445.8371	65535	64625
813.8291	448.0091	65535	64630.55
813.973	450.1806	65535	64631.5
814.1168	452.3514	65535	64627.65
814.2607	454.5216	65535	64619.8
814.4046	456.6913	65535	64623.85
814.5485	458.8603	65535	64627
814.6924	461.0288	65535	64634.35
814.8363	463.1967	65535	64635.6
814.9802	465.3639	65535	64627.7
815.1241	467.5306	65535	64626.85
815.2681	469.6967	65535	64631.15
815.412	471.8622	65535	64635.1
815.556	474.0271	65535	64630.35
815.7	476.1914	65535	64620.55
815.844	478.3551	65535	64626.15
815.988	480.5182	65535	64633.55
816.132	482.6807	65535	64635.35
816.276	484.8426	65535	64638.05
816.4201	487.0039	65535	64636.8
816.5641	489.1647	65535	64627.8
816.7082	491.3248	65535	64627.45
816.8522	493.4843	65535	64632.35
816.9963	495.6432	65535	64631.4
817.1404	497.8015	65535	64620.95
817.2845	499.9592	65535	64617.9
817.4286	502.1163	65535	64617.5
817.5727	504.2728	65535	64623.65
817.7168	506.4287	65535	64633.65
817.861	508.5839	65535	64636.05
818.0051	510.7386	65535	64631.35
818.1493	512.8927	65535	64616.95
818.2935	515.0461	65535	64619.75
818.4377	517.199	65535	64617.65
818.5818	519.3512	65535	64617.5
818.726	521.5029	65535	64615.15
818.8703	523.6539	65535	64623.8
819.0145	525.8043	65535	64617.65
819.1587	527.9541	65535	64614.2
819.303	530.1033	65535	64622.9
819.4472	532.2519	65535	64613.5
819.5915	534.3999	65535	64613.7
819.7357	536.5472	65535	64615.25
819.88	538.694	65535	64622.7
820.0243	540.8401	65535	64616.15
820.1686	542.9856	65535	64612.55
820.3129	545.1305	65535	64602.8
820.4572	547.2748	65535	64596.8
820.6016	549.4185	65535	64601.35
820.7459	551.5615	65535	64605.9
820.8902	553.704	65535	64605.25
821.0346	555.8458	65535	64608.35
821.1789	557.987	65535	64607.05
821.3233	560.1276	65535	64603.9
821.4677	562.2675	65535	64607.85
821.6121	564.4069	65535	64603.6
821.7565	566.5456	65535	64609.55
821.9009	568.6837	65535	64607.95
822.0453	570.8212	65535	64613.4
822.1897	572.958	65535	64612.65
822.3342	575.0942	65535	64614.7
822.4786	577.2299	65535	64620.65
822.6231	579.3648	65535	64628.4
822.7675	581.4992	65535	64636.65
822.912	583.6329	65535	64639.3
823.0565	585.766	65535	64635.8
823.201	587.8985	65535	64629.2
823.3454	590.0304	65535	64609.55
823.4899	592.1616	65535	64613.4
823.6345	594.2922	65535	64609.5
823.779	596.4222	65535	64606.85
823.9235	598.5515	65535	64603.85
824.068	600.6802	65535	64605.4
824.2126	602.8083	65535	64609.65
824.3571	604.9358	65535	64608.45
824.5017	607.0626	65535	64605.05
824.6462	609.1888	65533.6	64599.15
824.7908	611.3144	65535	64600.35
824.9354	613.4393	65535	64600.55
825.08	615.5636	65524.55	64590.4
825.2246	617.6873	65535	64602.6
825.3692	619.8103	65510.1	64577.05
825.5138	621.9327	65535	64608.05
825.6584	624.0544	65535	64612.8
825.803	626.1756	65534.9	64609.4
825.9477	628.2961	65532.2	64601.2
826.0923	630.4159	65520.25	64587.9
826.237	632.5351	65501.85	64569.8
826.3816	634.6537	65535	64601.35
826.5263	636.7716	65499.2	64561.8
826.6709	638.8889	65519.05	64580
826.8156	641.0056	65519.65	64577.05
826.9603	643.1216	65525	64585.35
827.105	645.237	65532.3	64592.45
827.2497	647.3518	65499.5	64574.75
827.3944	649.4659	65512.05	64589.3
827.5391	651.5793	65517.1	64592
827.6838	653.6922	65527.85	64601.95
827.8285	655.8043	65436.95	64509.5
827.9733	657.9159	65528.15	64599.45
828.118	660.0268	65268.75	64339.45
828.2627	662.137	65491	64556.9
828.4075	664.2466	65490.6	64553.65
828.5522	666.3556	65428.55	64493.15
828.697	668.4639	65498.35	64562.7
828.8418	670.5716	65392.3	64464.7
828.9865	672.6786	65471.5	64539.3
829.1313	674.785	65385.05	64445
829.2761	676.8907	65411.1	64481.55
829.4209	678.9958	65476.55	64547.85
829.5657	681.1002	65476	64542.55
829.7105	683.204	65339.25	64396.45
829.8553	685.3072	65273.5	64332.6
830.0001	687.4097	65330.1	64393.8
830.1449	689.5115	65250.85	64311.55
830.2898	691.6127	65389.6	64451.95
830.4346	693.7132	65238.95	64308.15
830.5794	695.8131	65251.65	64296.65
830.7243	697.9123	65286.45	64343.65
830.8691	700.0109	65291.85	64351.85
831.014	702.1089	65093.95	64154.85
831.1588	704.2061	65150.85	64210.35
831.3037	706.3028	65171.15	64233.1
831.4486	708.3987	65210.9	64269.05
831.5935	710.4941	65130.25	64193.3
831.7383	712.5887	65256.4	64318.65
831.8832	714.6827	65174.9	64233.05
832.0281	716.7761	65324.2	64393.15
832.173	718.8688	65415.1	64476.65
832.3179	720.9608	65288.25	64342.1
832.4628	723.0522	65277.7	64332.2
832.6077	725.1429	65122.9	64180.75
832.7527	727.233	65388.5	64446.7
832.8976	729.3224	64663.85	63722.55
833.0425	731.4112	64964.05	64025.65
833.1874	733.4993	64951.65	64011.6
833.3324	735.5867	64967.35	64028.55
833.4773	737.6735	64748.1	63802.1
833.6222	739.7596	64502.4	63562
833.7672	741.845	64464.5	63520.95
833.9122	743.9298	64887.1	63942.85
834.0571	746.014	64502.35	63562.85
834.2021	748.0974	64118.35	63171.35
834.347	750.1802	64762.5	63820
834.492	752.2624	63990.7	63049.55
834.637	754.3439	64106.5	63158.85
834.782	756.4247	64330.55	63378.45
834.9269	758.5048	63968.3	63020.3
835.0719	760.5843	64114.95	63169.3
835.2169	762.6631	64347.8	63398.55
835.3619	764.7413	64260.1	63314.4
835.5069	766.8188	64409.9	63463.6
835.6519	768.8956	64774.6	63830.25
835.7969	770.9718	64741.5	63801.05
835.9419	773.0473	64592.1	63644.5
836.0869	775.1221	63986.75	63044
836.232	777.1962	63942.35	63001.3
836.377	779.2697	63327.6	62380.1
836.522	781.3426	63729.6	62773.65
836.667	783.4147	63980.2	63033.2
836.8121	785.4862	63984.45	63042.6
836.9571	787.557	63478.95	62532.5
837.1021	789.6271	63912.25	62964.6
837.2472	791.6966	63264.1	62321.15
837.3922	793.7654	62539.05	61593.55
837.5373	795.8335	62487.1	61542.5
837.6823	797.901	62588.75	61640.2
837.8274	799.9678	62253.25	61305
837.9724	802.0339	62160.1	61213.8
838.1175	804.0993	62255.1	61298.3
838.2626	806.1641	62057.4	61109.75
838.4076	808.2282	61874.65	60932.25
838.5527	810.2916	61623.95	60676.25
838.6978	812.3544	61961.3	61020.2
838.8428	814.4164	61112.1	60168.55
838.9879	816.4778	61165.2	60216.7
839.133	818.5385	61164.6	60213
839.2781	820.5986	61086	60135.85
839.4232	822.658	61182.15	60231.3
839.5682	824.7166	61218.8	60273.4
839.7133	826.7747	60485.1	59533.35
839.8584	828.832	60782.65	59834.35
840.0035	830.8886	61220.4	60269.4
840.1486	832.9446	61248.3	60298.7
840.2937	834.9999	60080.65	59137.3
840.4388	837.0545	60778.45	59826.95
840.5839	839.1085	61129.4	60180
840.729	841.1618	60893.75	59942.6
840.8741	843.2143	60009	59061.8
841.0192	845.2662	60001.85	59052.3
841.1643	847.3175	60245.75	59292.7
841.3095	849.368	59201.95	58252.95
841.4546	851.4179	59813.15	58864.95
841.5997	853.467	59114.6	58169.25
841.7448	855.5155	59308.8	58362.45
841.8899	857.5633	58712.15	57759.5
842.0351	859.6105	58331.3	57384.65
842.1802	861.6569	58619.65	57666.25
842.3253	863.7027	57891.35	56941.3
842.4704	865.7478	58082.15	57131.65
842.6156	867.7922	57911.85	56961.45
842.7607	869.8359	58276.3	57325
842.9058	871.8789	57531.8	56579.65
843.0509	873.9212	58084	57103.7
843.1961	875.9629	58065.8	57113.55
843.3412	878.0039	58107.55	57157.6
843.4863	880.0441	57879.05	56934.6
843.6315	882.0837	57844.6	56894.35
843.7766	884.1226	57678	56729.9
843.9218	886.1609	57468.25	56519.25
844.0669	888.1984	57065	56119.35
844.212	890.2352	57456.85	56507.25
844.3572	892.2714	56631.6	55679.35
844.5023	894.3069	56796.95	55849.35
844.6475	896.3416	56516	55565.45
844.7926	898.3757	56329.35	55379.55
844.9377	900.4091	55719.2	54767.8
845.0829	902.4418	56383.6	55426.9
845.228	904.4739	55804.15	54846.3
845.3732	906.5052	55959.05	55008.6
845.5183	908.5358	55540.05	54589.4
845.6635	910.5658	55200.2	54244.7
845.8086	912.595	54977.4	54023.65
845.9538	914.6236	54382.45	53431.4
846.0989	916.6515	55167.95	54219.45
846.2441	918.6786	54140.75	53184.3
846.3892	920.7051	54397.2	53443.45
846.5344	922.7309	54347.2	53394.45
846.6795	924.756	54392.15	53443.1
846.8246	926.7804	54162.4	53212.4
846.9698	928.8041	53580.65	52629.55
847.1149	930.8272	53859.4	52906.5
847.2601	932.8495	53659.5	52707.25
847.4052	934.8711	53192.8	52239.2
847.5504	936.892	52846.4	51895.65
847.6955	938.9123	52625.8	51672.55
847.8407	940.9318	52325.5	51374.1
847.9858	942.9506	52059	51107.35
848.131	944.9688	51979.55	51030.85
848.2761	946.9862	51410.45	50456.05
848.4213	949.003	51412.15	50458.9
848.5664	951.019	50957.65	50003.95
848.7115	953.0344	51001.15	50049.85
848.8567	955.0491	50906.8	49952.1
849.0018	957.063	50949.05	49995.5
849.147	959.0763	51051.85	50094.75
849.2921	961.0888	50809.75	49859.2
849.4373	963.1007	50924.2	49975.85
849.5824	965.1119	50880.85	49940.3
849.7275	967.1223	50675.95	49735.1
849.8727	969.1321	50776.75	49838.05
850.0178	971.1412	50504.45	49560.3
850.1629	973.1495	50261.1	49315.8
850.3081	975.1572	50343.55	49357.6
850.4532	977.1641	50187.95	49236.5
850.5983	979.1704	50038.3	49084.5
850.7435	981.1759	49957.75	49001.75
850.8886	983.1808	49822.95	48870.4
851.0337	985.1849	49772.7	48809.3
851.1788	987.1884	49832.85	48882.2
851.324	989.1911	50034.35	49084.4
851.4691	991.1932	49892.7	48942
851.6142	993.1945	49824.9	48873.85
851.7593	995.1951	49647.45	48702.05
851.9045	997.1951	49439.55	48483.6
852.0496	999.1943	49098.8	48149.9
852.1947	1001.1928	48873.9	47925.05
852.3398	1003.1906	48646.15	47697.65
852.4849	1005.1877	48507.2	47555.95
852.63	1007.1841	48292.2	47342.2
852.7751	1009.1798	47999.75	47049.6
852.9202	1011.1748	47609.35	46660
853.0653	1013.1691	47308.45	46361.7
853.2104	1015.1627	46892.85	45943.4
853.3555	1017.1556	46393.4	45447.25
853.5006	1019.1477	46250.05	45305.05
853.6457	1021.1392	45902.5	44962.25
853.7908	1023.1299	45731.8	44793.8
853.9359	1025.12	45536.6	44600.4
854.081	1027.1093	45392.45	44464.95
854.2261	1029.0979	45367.95	44446.75
854.3712	1031.0859	45125.25	44195.1
854.5163	1033.0731	44929.95	43993.15
854.6613	1035.0596	44753.9	43813.95
854.8064	1037.0454	44415.15	43471.8
854.9515	1039.0304	44207.1	43260.1
855.0965	1041.0148	43919.6	42977.05
855.2416	1042.9985	43661.85	42713.25
855.3867	1044.9814	43592.45	42644.3
855.5317	1046.9636	43354.3	42405.35
855.6768	1048.9452	43178.6	42232
855.8219	1050.926	43097.9	42151.55
855.9669	1052.9061	42855.1	41912.4
856.112	1054.8855	42724.85	41779.9
856.257	1056.8642	42678.8	41734.6
856.4021	1058.8421	42618.15	41671.1
856.5471	1060.8194	42491.85	41541.95
856.6921	1062.7959	42416.4	41470.15
856.8372	1064.7717	42300.5	41353.95
856.9822	1066.7469	42160.7	41216.85
857.1272	1068.7213	42006.3	41056
857.2723	1070.695	41880.3	40935.3
857.4173	1072.6679	41568.95	40623.8
857.5623	1074.6402	41453.1	40507
857.7073	1076.6117	41423.65	40468.1
857.8523	1078.5826	41362.55	40412.65
857.9973	1080.5527	41222.55	40272.75
858.1423	1082.5221	41263.5	40316.4
858.2873	1084.4908	41440.1	40495.6
858.4323	1086.4587	41538.3	40590.9
858.5773	1088.426	41552.85	40606.4
858.7223	1090.3925	41359.25	40406.5
858.8673	1092.3584	41308.75	40358.7
859.0123	1094.3235	40887.5	39944.65
859.1573	1096.2879	40656.45	39709.95
859.3022	1098.2515	40483.3	39543.4
859.4472	1100.2145	40438.55	39492.15
859.5922	1102.1767	40309.7	39363.6
859.7371	1104.1382	40360.45	39417
859.8821	1106.099	40480.1	39533.45
860.027	1108.0591	40521.1	39576.75
860.172	1110.0185	40523.3	39577.65
860.3169	1111.9771	40497.55	39551.05
860.4619	1113.9351	40079.9	39135.65
860.6068	1115.8923	39565.5	38620.35
860.7517	1117.8488	39129.85	38182.8
860.8967	1119.8045	38632.35	37689
861.0416	1121.7596	38507.15	37562.55
861.1865	1123.7139	38315.1	37373.45
861.3314	1125.6675	38134.3	37189.05
861.4763	1127.6204	38237.05	37292.4
861.6212	1129.5726	38108.6	37162.65
861.7661	1131.524	38110.1	37164.25
861.911	1133.4748	38038.55	37095
862.0559	1135.4248	37948.6	37005.15
862.2008	1137.3741	37916	36970.65
862.3457	1139.3226	37795.55	36851.4
862.4905	1141.2705	37719.55	36774.85
862.6354	1143.2176	37422.05	36472.25
862.7803	1145.164	37423.7	36474.5
862.9251	1147.1097	37272.45	36329.45
863.07	1149.0546	37234.25	36291.55
863.2148	1150.9989	37137.25	36193.95
863.3597	1152.9424	36948.6	36004
863.5045	1154.8852	36672	35726.6
863.6493	1156.8272	36402.8	35458.65
863.7942	1158.7686	36219.1	35268
863.939	1160.7092	36045.8	35101.3
864.0838	1162.6491	35888.85	34944.65
864.2286	1164.5883	35944	35001.55
864.3734	1166.5267	35901.1	34959.45
864.5182	1168.4644	35943	34998.65
864.663	1170.4014	36045.8	35098.6
864.8078	1172.3377	36251.25	35311.8
864.9526	1174.2732	36318.1	35377.3
865.0974	1176.2081	36445.7	35502.2
865.2421	1178.1421	36541.4	35591.25
865.3869	1180.0755	36651.15	35708.9
865.5317	1182.0082	36508.45	35566.5
865.6764	1183.9401	36400.75	35461.55
865.8212	1185.8713	36064.7	35128.05
865.9659	1187.8017	35708.9	34776.85
866.1106	1189.7315	35363.45	34439.85
866.2554	1191.6605	34902.15	33975.45
866.4001	1193.5888	34642.95	33713.85
866.5448	1195.5163	34461.4	33523.9
866.6895	1197.4432	34252.45	33314.3
866.8342	1199.3693	34083.15	33142.75
866.9789	1201.2947	33925.6	32979.6
867.1236	1203.2193	33751.95	32810.6
867.2683	1205.1432	33700.9	32759.25
867.413	1207.0664	33666.35	32729.4
867.5576	1208.9889	33559.1	32615.4
867.7023	1210.9106	33543.4	32604.1
867.847	1212.8316	33503.05	32561.8
867.9916	1214.7519	33564.7	32616.85
868.1363	1216.6715	33408.9	32473.05
868.2809	1218.5903	33334.9	32397
868.4255	1220.5084	33139.25	32197.35
868.5701	1222.4257	33107.6	32167.75
868.7148	1224.3424	32824.2	31886.7
868.8594	1226.2583	32809.05	31866
869.004	1228.1735	32798.05	31857.95
869.1486	1230.0879	32782.85	31843.3
869.2932	1232.0016	32871.35	31933.25
869.4377	1233.9146	32812.7	31871.75
869.5823	1235.8269	32564.4	31626.75
869.7269	1237.7384	32422.55	31482.75
869.8715	1239.6492	32114	31175.65
870.016	1241.5592	31947.4	31007.3
870.1606	1243.4686	31717.9	30777.1
870.3051	1245.3772	31546.15	30611.7
870.4496	1247.285	31409.35	30470.1
870.5941	1249.1922	31255.7	30316.05
870.7387	1251.0986	31196.95	30258.95
870.8832	1253.0042	31032.45	30094.2
871.0277	1254.9092	31009.6	30070.9
871.1722	1256.8134	31021.4	30083.15
871.3167	1258.7169	31155.15	30216.25
871.4611	1260.6196	31230.45	30295.7
871.6056	1262.5216	31385.6	30449.5
871.7501	1264.4229	31427.2	30493.8
871.8945	1266.3234	31527.7	30589.95
872.039	1268.2232	31486.2	30548.75
872.1834	1270.1223	31377.7	30438.85
872.3278	1272.0207	31278.35	30337.7
872.4723	1273.9183	31169.25	30225.85
872.6167	1275.8151	30984.35	30047.3
872.7611	1277.7113	30860.05	29925.1
872.9055	1279.6067	30622.25	29687.15
873.0499	1281.5014	30381.25	29437.5
873.1943	1283.3953	30150.15	29210.65
873.3386	1285.2885	29976.4	29041.45
873.483	1287.181	29833.75	28897.25
873.6274	1289.0727	29841.55	28906.05
873.7717	1290.9637	29780.55	28845.8
873.9161	1292.854	29875.35	28938.35
874.0604	1294.7435	29886.1	28948.15
874.2047	1296.6323	30054.65	29117.2
874.349	1298.5204	30304.3	29363.8
874.4933	1300.4077	30510.15	29573.5
874.6376	1302.2943	30627.65	29692.15
874.7819	1304.1802	30670.9	29733.3
874.9262	1306.0653	30544.6	29606.35
875.0705	1307.9497	30339.6	29408.05
875.2147	1309.8333	30269.25	29337.45
875.359	1311.7162	30125.1	29190.3
875.5032	1313.5984	30191.9	29252.3
875.6475	1315.4798	30261.05	29308.9
875.7917	1317.3605	30344.35	29391.15
875.9359	1319.2405	30490.2	29553.4
876.0801	1321.1197	30502.25	29565.15
876.2243	1322.9982	30367.7	29427.8
876.3685	1324.876	30375.1	29437.8
876.5127	1326.753	30215.4	29281.25
876.6569	1328.6293	30285.6	29348.5
876.801	1330.5048	30243.05	29305.05
876.9452	1332.3796	30146.2	29208.3
877.0893	1334.2537	30107.65	29146.4
877.2335	1336.127	29958.2	29026.9
877.3776	1337.9996	29843	28908.35
877.5217	1339.8714	29752.75	28816.8
877.6658	1341.7426	29607.85	28629.25
877.8099	1343.6129	29482.05	28545.65
877.954	1345.4826	29345.55	28406.7
878.0981	1347.3515	29301.1	28363.45
878.2422	1349.2196	29172.2	28232.1
878.3862	1351.087	29103.85	28168.35
878.5303	1352.9537	29101.15	28167.05
878.6743	1354.8197	29189.15	28253.1
878.8184	1356.6849	29309.75	28374.4
878.9624	1358.5493	29336.35	28400.95
879.1064	1360.4131	29281.1	28344.85
879.2504	1362.276	29100.25	28166.1
879.3944	1364.1383	28878.25	27947.15
879.5384	1365.9998	28607.7	27669.15
879.6823	1367.8606	28188.95	27251.9
879.8263	1369.7206	27897.3	26958.25
879.9702	1371.5799	27656.15	26720.4
880.1142	1373.4384	27483.6	26548.1
880.2581	1375.2962	27307.05	26372.65
880.402	1377.1533	26990.75	26057.85
880.5459	1379.0096	26585.4	25653.75
880.6898	1380.8652	26272.35	25343.85
880.8337	1382.7201	25999.9	25069.05
880.9776	1384.5742	25692.55	24758.6
881.1215	1386.4275	25488.15	24554.2
881.2653	1388.2802	25221.15	24290.7
881.4092	1390.132	25081.7	24148.15
881.553	1391.9832	24991.7	24056.9
881.6968	1393.8336	24796.65	23859.5
881.8406	1395.6832	24719.85	23784.05
881.9844	1397.5322	24610.9	23678.75
882.1282	1399.3803	24516.75	23579.6
882.272	1401.2278	24369.35	23437.45
882.4158	1403.0745	24317.7	23387.55
882.5595	1404.9204	24201.25	23270.15
882.7033	1406.7656	24168.1	23233.25
882.847	1408.6101	24068.85	23138.15
882.9908	1410.4538	24003	23069.15
883.1345	1412.2968	23953.75	23022.75
883.2782	1414.139	23927.4	22995.2
883.4219	1415.9805	23988.75	23054.9
883.5656	1417.8213	23949.05	22993.1
883.7092	1419.6613	23984.45	23053.1
883.8529	1421.5006	24142.15	23209.5
883.9965	1423.3391	24329	23396.6
884.1402	1425.1769	24605.05	23671.95
884.2838	1427.0139	25108.65	24177.45
884.4274	1428.8502	25664.3	24733.85
884.571	1430.6858	26201.6	25272.15
884.7146	1432.5206	26563.25	25631.6
884.8582	1434.3547	26821.35	25889.7
885.0018	1436.188	26844.7	25915.1
885.1453	1438.0206	26715.5	25786
885.2889	1439.8524	26487.5	25558.25
885.4324	1441.6835	26357.85	25428.6
885.5759	1443.5139	26239.6	25303.35
885.7194	1445.3435	26088.6	25159.1
885.8629	1447.1724	26010.85	25080.6
886.0064	1449.0005	25897.9	24969.3
886.1499	1450.8279	25715.8	24784.4
886.2933	1452.6545	25642.8	24716.95
886.4368	1454.4804	25689.2	24765.6
886.5802	1456.3056	25633.25	24701.5
886.7237	1458.13	25431.8	24506.35
886.8671	1459.9536	25234.45	24306.9
887.0105	1461.7766	24845.25	23914.65
887.1539	1463.5987	24367	23436.5
887.2972	1465.4202	23932.3	23001.8
887.4406	1467.2409	23454.75	22526.15
887.584	1469.0608	23193.4	22267.9
887.7273	1470.88	22872.5	21941.55
887.8706	1472.6984	22600.85	21675.9
888.0139	1474.5161	22327.15	21396
888.1572	1476.3331	22139.55	21211.25
888.3005	1478.1493	21982.8	21052.35
888.4438	1479.9648	21884.5	20955.05
888.5871	1481.7795	21732.45	20801.55
888.7303	1483.5935	21654.15	20725.8
888.8736	1485.4067	21553.55	20624.7
889.0168	1487.2192	21477.05	20548.9
889.16	1489.031	21394.3	20464.8
889.3032	1490.842	21298.8	20370.95
889.4464	1492.6522	21268.9	20341.15
889.5896	1494.4618	21156.3	20228.6
889.7327	1496.2705	21111	20180.7
889.8759	1498.0785	21051.95	20122.55
890.019	1499.8858	20984.65	20057.45
890.1622	1501.6924	20911.05	19985.25
890.3053	1503.4981	20865.75	19937.7
890.4484	1505.3032	20827.55	19899.85
890.5914	1507.1075	20747.75	19818.55
890.7345	1508.911	20663	19734.9
890.8776	1510.7138	20615.15	19686.05
891.0206	1512.5159	20488.8	19564.45
891.1637	1514.3172	20389.65	19462.25
891.3067	1516.1178	20297.05	19371.1
891.4497	1517.9176	20319.1	19389.25
891.5927	1519.7166	20194.35	19269.4
891.7357	1521.515	20141.4	19208.9
891.8786	1523.3126	20056.65	19130.5
892.0216	1525.1094	20012.6	19085.35
892.1645	1526.9055	19919.05	18995.95
892.3074	1528.7008	19831.95	18905.4
892.4503	1530.4954	19720.55	18792.05
892.5932	1532.2893	19724.5	18802.15
892.7361	1534.0824	19563.6	18638
892.879	1535.8747	19575.85	18654.85
893.0218	1537.6663	19499.15	18580.7
893.1647	1539.4572	19412.2	18492
893.3075	1541.2473	19391.25	18468.55
893.4503	1543.0367	19288.45	18366.8
893.5931	1544.8253	19220.8	18293.75
893.7359	1546.6132	19211.25	18285.6
893.8787	1548.4003	19123.8	18190.2
894.0214	1550.1867	19103.9	18175.7
894.1642	1551.9723	19071.95	18147.5
894.3069	1553.7572	18996.1	18075
894.4496	1555.5414	18982.35	18063.85
894.5923	1557.3247	18938.5	18021.4
894.735	1559.1074	18973.05	18055.8
894.8777	1560.8893	18934.6	18020.65
895.0204	1562.6705	18922.85	18006
895.163	1564.4509	18978.7	18063.45
895.3056	1566.2305	18980.5	18068.65
895.4482	1568.0094	19115.7	18198.9
895.5908	1569.7876	19165.6	18251.8
895.7334	1571.565	19160.5	18242.6
895.876	1573.3417	19171.2	18257.15
896.0186	1575.1176	19162	18249.8
896.1611	1576.8928	19105.3	18192.9
896.3036	1578.6672	18962.6	18053.25
896.4461	1580.4409	18827.3	17919.2
896.5886	1582.2138	18645.8	17735
896.7311	1583.986	18471.5	17559.45
896.8736	1585.7575	18382.25	17469.75
897.0161	1587.5282	18180.6	17271
897.1585	1589.2981	18128.5	17222.8
897.3009	1591.0673	17987.8	17083.45
897.4433	1592.8358	17936.7	17028.5
897.5857	1594.6035	17923.2	17010.65
897.7281	1596.3704	17797.8	16885.3
897.8705	1598.1366	17795.9	16884.35
898.0128	1599.9021	17740.15	16832.2
898.1551	1601.6668	17727.25	16815.55
898.2975	1603.4308	17752.1	16837.9
898.4398	1605.194	17759.85	16842.35
898.5821	1606.9564	17782.65	16879.35
898.7243	1608.7182	17860.55	16954.7
898.8666	1610.4791	17921.85	17022.95
899.0088	1612.2394	17995.35	17097.55
899.1511	1613.9988	18138.1	17239.75
899.2933	1615.7576	18340.7	17435.7
899.4355	1617.5156	18590.4	17673.3
899.5776	1619.2728	18811.45	17899
899.7198	1621.0293	18974.95	18065.7
899.862	1622.785	18966.9	18058.5
900.0041	1624.54	18867.1	17961.35
900.1462	1626.2942	18719.05	17814.65
900.2883	1628.0477	18393.05	17486.85
900.4304	1629.8005	18117.1	17209.35
900.5725	1631.5525	17831.35	16930
900.7145	1633.3037	17567.45	16664.3
900.8566	1635.0542	17382.3	16478.95
900.9986	1636.804	17173.65	16272.2
901.1406	1638.553	17102.4	16126.25
901.2826	1640.3013	16913.75	16009.6
901.4245	1642.0488	16852.65	15946.65
901.5665	1643.7955	16814.05	15912.45
901.7085	1645.5416	16753.6	15851.35
901.8504	1647.2868	16776.35	15872.1
901.9923	1649.0313	16801.35	15894.2
902.1342	1650.7751	16915.3	16008
902.2761	1652.5181	17037.6	16136.25
902.4179	1654.2604	17208.85	16305.65
902.5598	1656.0019	17469.5	16568.35
902.7016	1657.7427	17779.7	16878.55
902.8434	1659.4828	18147.75	17244
902.9852	1661.222	18373.35	17464.05
903.127	1662.9606	18442.1	17538.65
903.2687	1664.6984	18282.55	17376
903.4105	1666.4354	17902.85	16992.9
903.5522	1668.1717	17494.7	16588.45
903.6939	1669.9072	16948.45	16039.95
903.8356	1671.642	16564.85	15653.7
903.9773	1673.3761	16224.75	15317.15
904.119	1675.1094	15954	15048.55
904.2606	1676.8419	15773.25	14869.8
904.4022	1678.5737	15555.55	14650.35
904.5439	1680.3048	15401.95	14496.5
904.6855	1682.0351	15288	14380.8
904.827	1683.7646	15180.65	14272.4
904.9686	1685.4934	15079.55	14175.3
905.1101	1687.2215	15022.7	14121.05
905.2517	1688.9488	14892.65	13990.8
905.3932	1690.6754	14828.7	13926.3
905.5347	1692.4012	14814.8	13908.05
905.6761	1694.1263	14749.4	13844.05
905.8176	1695.8506	14681.15	13775.8
905.9591	1697.5742	14621.85	13721.2
906.1005	1699.297	14562.6	13662.05
906.2419	1701.0191	14443.6	13545.3
906.3833	1702.7404	14405.85	13506.3
906.5246	1704.461	14307.95	13404.9
906.666	1706.1808	14289.3	13386.95
906.8073	1707.8999	14231.8	13330.7
906.9487	1709.6182	14159.85	13261.55
907.09	1711.3358	14129.45	13234.3
907.2313	1713.0527	14057.3	13163.95
907.3725	1714.7688	13986.7	13082.05
907.5138	1716.4841	13940.3	13039.65
907.655	1718.1987	13913.75	13008.5
907.7962	1719.9126	13875.3	12976.55
907.9374	1721.6257	13816.55	12920.15
908.0786	1723.338	13782.35	12888.4
908.2198	1725.0496	13718.25	12820.7
908.3609	1726.7605	13691.95	12794.55
908.502	1728.4706	13617.7	12720.65
908.6431	1730.18	13544.4	12646
908.7842	1731.8886	13530.65	12636.1
908.9253	1733.5964	13500	12583.9
909.0664	1735.3036	13442.6	12542.45
909.2074	1737.0099	13418.05	12523.9
909.3484	1738.7156	13370.95	12476.65
909.4894	1740.4204	13293.3	12395.35
909.6304	1742.1246	13280.95	12382.3
909.7714	1743.8279	13247.2	12349.9
909.9123	1745.5306	13247.8	12353.65
910.0532	1747.2325	13160.2	12265.6
910.1941	1748.9336	13110	12213.3
910.335	1750.634	13058.55	12159.25
910.4759	1752.3336	13029.5	12134.85
910.6168	1754.0325	13024	12133.4
910.7576	1755.7307	13009.85	12116.05
910.8984	1757.4281	12986.85	12091.8
911.0392	1759.1247	12973	12066.7
911.18	1760.8206	12936.4	12031.15
911.3208	1762.5158	12916.6	12014.6
911.4615	1764.2102	12839.8	11944
911.6022	1765.9039	12796.9	11902.25
911.7429	1767.5968	12790.65	11896.95
911.8836	1769.289	12721.6	11828.25
912.0243	1770.9804	12678.8	11783.25
912.1649	1772.6711	12692.15	11794.25
912.3056	1774.361	12633.65	11736.15
912.4462	1776.0502	12627.8	11731.3
912.5868	1777.7386	12604.55	11705.3
912.7274	1779.4263	12550.15	11655.85
912.8679	1781.1132	12511.15	11617.85
913.0084	1782.7994	12475.2	11582.3
913.149	1784.4849	12423.9	11532.45
913.2895	1786.1696	12372.15	11475.05
913.4299	1787.8535	12368.3	11476.25
913.5704	1789.5367	12342.7	11451.65
913.7108	1791.2192	12330.9	11439.9
913.8513	1792.9009	12264.15	11340.9
913.9917	1794.5818	12217.2	11317.75
914.132	1796.2621	12205.1	11311.75
914.2724	1797.9415	12180.95	11286.45
914.4128	1799.6202	12131.65	11236.3
914.5531	1801.2982	12109.25	11212.6
914.6934	1802.9755	12095.35	11198.45
914.8337	1804.6519	12060.15	11165
914.9739	1806.3277	12006.8	11114.35
915.1142	1808.0027	11956.15	11066.95
915.2544	1809.6769	11993.6	11100.3
915.3946	1811.3504	11927.1	11037.8
915.5348	1813.0231	11850.25	10958.4
915.675	1814.6951	11859.3	10967
915.8151	1816.3664	11869.45	10972.9
915.9553	1818.0369	11833.1	10938
916.0954	1819.7067	11810.95	10916.5
916.2355	1821.3757	11761.8	10867.15
916.3755	1823.044	11725.15	10829.6
916.5156	1824.7115	11706.75	10812.65
916.6556	1826.3783	11656.65	10761.35
916.7956	1828.0443	11635.35	10742.5
916.9356	1829.7096	11617.1	10721.8
917.0756	1831.3741	11591	10693.15
917.2155	1833.0379	11554.55	10665.55
917.3555	1834.701	11529.4	10636.45
917.4954	1836.3633	11501.95	10611.35
917.6353	1838.0248	11471	10577.15
917.7751	1839.6856	11451.05	10558.75
917.915	1841.3457	11419.3	10528.7
918.0548	1843.005	11401.6	10509.55
918.1946	1844.6636	11379.95	10487.8
918.3344	1846.3214	11350.15	10457.15
918.4742	1847.9785	11317.1	10426.65
918.6139	1849.6349	11282.6	10384.75
918.7537	1851.2904	11286.9	10381.6
918.8934	1852.9453	11254.2	10356.7
919.0331	1854.5994	11255.6	10359.7
919.1727	1856.2528	11258.8	10360.55
919.3124	1857.9054	11211.5	10318
919.452	1859.5572	11158.85	10267.05
919.5916	1861.2083	11166	10272.9
919.7312	1862.8587	11148.7	10252.25
919.8708	1864.5084	11124.05	10226.8
920.0103	1866.1572	11064.85	10166.35
920.1498	1867.8054	10995.5	10099.95
920.2893	1869.4528	11020.9	10124.95
920.4288	1871.0994	10992.5	10096.75
920.5683	1872.7453	10963.6	10068.25
920.7077	1874.3905	10937.45	10026
920.8471	1876.0349	10883.9	9989.2
920.9865	1877.6786	10897.85	10000.55
921.1259	1879.3215	10886.95	9994.05
921.2653	1880.9637	10827.6	9934.4
921.4046	1882.6051	10806.3	9914.75
921.5439	1884.2458	10794.65	9901.25
921.6832	1885.8858	10755.4	9862.05
921.8225	1887.525	10730.95	9835.75
921.9617	1889.1634	10659.6	9765.7
922.101	1890.8011	10623.4	9727.75
922.2402	1892.4381	10626.2	9732.9
922.3794	1894.0743	10612.25	9717
922.5185	1895.7098	10558.1	9666.3
922.6577	1897.3446	10554.6	9660.95
922.7968	1898.9786	10509.45	9612.55
922.9359	1900.6118	10484	9590.4
923.075	1902.2443	10457.55	9562.4
923.214	1903.8761	10462.75	9570.8
923.3531	1905.5071	10380.4	9484.55
923.4921	1907.1374	10341.55	9447.4
923.6311	1908.7669	10325.75	9435.3
923.77	1910.3957	10302.4	9408.55
923.909	1912.0237	10269.45	9377.85
924.0479	1913.651	10243.4	9349.35
924.1868	1915.2776	10227	9334.1
924.3257	1916.9034	10167.45	9276.75
924.4646	1918.5285	10134.1	9243
924.6034	1920.1528	10090.8	9198.55
924.7422	1921.7764	10058.15	9167.9
924.881	1923.3992	10031.95	9140.85
925.0198	1925.0213	9989.7	9097.95
925.1586	1926.6427	9938.9	9047.8
925.2973	1928.2633	9993.3	9032
925.436	1929.8832	9908.9	9015.9
925.5747	1931.5023	9858.5	8966.25
925.7134	1933.1207	9818.6	8923.05
925.852	1934.7383	9812.25	8919.35
925.9906	1936.3552	9767.05	8876.25
926.1292	1937.9714	9747.75	8855.85
926.2678	1939.5868	9729.05	8835.8
926.4064	1941.2015	9685.25	8790.15
926.5449	1942.8154	9639.7	8745.35
926.6834	1944.4286	9582.6	8688.65
926.8219	1946.041	9569.9	8656.75
926.9604	1947.6528	9494.1	8597.35
927.0988	1949.2637	9479.7	8587.1
927.2372	1950.8739	9460.25	8568.75
927.3756	1952.4834	9437	8544.6
927.514	1954.0921	9418.25	8528.25
927.6523	1955.7001	9412.95	8517.65
927.7907	1957.3074	9347.65	8459.1
927.929	1958.9139	9303.85	8415.5
928.0673	1960.5197	9296.9	8407
928.2055	1962.1247	9252.9	8364.05
928.3438	1963.729	9196.85	8310
928.482	1965.3325	9201.65	8288.9
928.6202	1966.9353	9180.6	8291.25
928.7584	1968.5374	9129.25	8240.1
928.8965	1970.1387	9085.25	8196.15
929.0346	1971.7393	9065.7	8175.4
929.1727	1973.3392	9022.2	8134.25
929.3108	1974.9383	8974.35	8086.2
929.4489	1976.5366	8943.6	8054.25
929.5869	1978.1342	8937.2	8049.65
929.7249	1979.7311	8950.35	8063.1
929.8629	1981.3273	8920.8	8033.65
930.0009	1982.9227	8872.6	7983.45
930.1388	1984.5173	8836.95	7951.15
930.2767	1986.1112	8802.85	7916.35
930.4146	1987.7044	8766.2	7880.8
930.5525	1989.2968	8770.4	7881.85
930.6904	1990.8885	8751.95	7861.25
930.8282	1992.4795	8709.3	7821.45
930.966	1994.0697	8686.75	7801.2
931.1038	1995.6592	8668.7	7781.75
931.2415	1997.2479	8637.4	7750.55
931.3793	1998.8359	8611.4	7725.75
931.517	2000.4232	8582.4	7700.2
931.6547	2002.0097	8570.3	7689.65
931.7923	2003.5955	8517.2	7633.05
931.93	2005.1805	8520	7634.4
932.0676	2006.7648	8507.7	7622.55
932.2052	2008.3484	8455	7571.45
932.3427	2009.9312	8473	7587.2
932.4803	2011.5133	8433.25	7552.65
932.6178	2013.0946	8396.2	7512.05
932.7553	2014.6752	8372.25	7490.7
932.8928	2016.2551	8372.75	7487.35
933.0302	2017.8342	8322.9	7438
933.1676	2019.4126	8292.3	7409.85
933.305	2020.9902	8250.4	7368.45
933.4424	2022.5672	8245.65	7363.35
933.5798	2024.1433	8219.7	7329
933.7171	2025.7188	8195.2	7314.35
933.8544	2027.2935	8183.85	7301.65
933.9917	2028.8674	8144.65	7261.45
934.129	2030.4406	8131.9	7250.55
934.2662	2032.0131	8077.25	7194.05
934.4034	2033.5849	8074.55	7187.65
934.5406	2035.1559	8064.9	7182.75
934.6778	2036.7261	8035.2	7151.9
934.8149	2038.2957	8021.95	7138.3
934.952	2039.8645	8011.9	7127.05
935.0891	2041.4325	8017.85	7131.4
935.2262	2042.9998	7960.9	7079.85
935.3632	2044.5664	7930.65	7043.85
935.5002	2046.1323	7903.2	7019.15
935.6372	2047.6974	7877.25	6992.5
935.7742	2049.2617	7864.5	6982.55
935.9111	2050.8254	7853.35	6964.65
936.048	2052.3883	7861.95	6978.15
936.1849	2053.9504	7820.85	6936.15
936.3218	2055.5118	7777.2	6892.25
936.4586	2057.0725	7740.95	6854.55
936.5955	2058.6325	7735.9	6853.85
936.7323	2060.1917	7720.9	6837.05
936.869	2061.7502	7694.65	6810
937.0058	2063.3079	7674.1	6792.5
937.1425	2064.8649	7655.35	6769.35
937.2792	2066.4212	7669.6	6787.5
937.4159	2067.9767	7650.9	6769.1
937.5525	2069.5315	7600.2	6717.35
937.6891	2071.0856	7559.85	6678.9
937.8257	2072.6389	7535.6	6651.7
937.9623	2074.1915	7516.05	6636.35
938.0989	2075.7433	7474.6	6589.75
938.2354	2077.2945	7452.95	6569.7
938.3719	2078.8448	7429.1	6545.1
938.5084	2080.3945	7399.6	6514.05
938.6448	2081.9434	7405.55	6520
938.7812	2083.4916	7385.35	6498.65
938.9176	2085.039	7360.55	6470
939.054	2086.5857	7335	6444.15
939.1903	2088.1317	7336.55	6446.35
939.3267	2089.677	7308.4	6417.85
939.463	2091.2215	7269.65	6378.75
939.5992	2092.7652	7239.55	6346.7
939.7355	2094.3083	7223.9	6334.3
939.8717	2095.8506	7219.85	6334.55
940.0079	2097.3921	7208	6323.05
940.1441	2098.933	7213.5	6328.6
940.2802	2100.4731	7176.75	6291.8
940.4163	2102.0124	7172.65	6276.25
940.5524	2103.5511	7130.1	6241.95
940.6885	2105.089	7136.35	6246.9
940.8245	2106.6261	7108.45	6222
940.9606	2108.1626	7107	6221.55
941.0965	2109.6983	7104.5	6186.05
941.2325	2111.2332	7069.2	6182.55
941.3684	2112.7675	7046.7	6156.95
941.5044	2114.301	7019.9	6130.3
941.6403	2115.8337	7018.55	6131
941.7761	2117.3657	6987.5	6098.75
941.912	2118.897	6980.55	6091.5
942.0478	2120.4276	6956.3	6063.95
942.1835	2121.9575	6933.4	6042.55
942.3193	2123.4866	6944.55	6043.7
942.455	2125.0149	6899.65	6008.3
942.5907	2126.5426	6866.55	5982.75
942.7264	2128.0695	6851.65	5962.95
942.8621	2129.5956	6846.5	5964.7
942.9977	2131.1211	6822.6	5933.65
943.1333	2132.6458	6804.8	5919.15
943.2689	2134.1698	6796.4	5907.5
943.4044	2135.693	6763.8	5872.55
943.54	2137.2155	6764.7	5873.65
943.6755	2138.7373	6749.35	5864
943.8109	2140.2584	6712.3	5826.2
943.9464	2141.7787	6720.4	5830.55
944.0818	2143.2983	6675.3	5793.4
944.2172	2144.8171	6655.65	5776.4
944.3526	2146.3353	6640.45	5756.6
944.4879	2147.8527	6627.45	5742.8
944.6232	2149.3693	6599.55	5714.65
944.7585	2150.8853	6592.9	5703.5
944.8938	2152.4005	6561	5671.65
945.029	2153.9149	6560.3	5671.3
945.1642	2155.4287	6621.95	5628.25
945.2994	2156.9417	6554.85	5665.3
945.4346	2158.454	6502	5613.9
945.5697	2159.9655	6477.45	5593.2
945.7048	2161.4764	6457.7	5571.95
945.8399	2162.9865	6444.2	5559.75
945.9749	2164.4958	6420.85	5535.05
946.1099	2166.0045	6405.15	5515.75
946.2449	2167.5124	6417.5	5531.75
946.3799	2169.0195	6393.25	5507.55
946.5148	2170.526	6380	5491.35
946.6498	2172.0317	6363.3	5477.65
946.7846	2173.5367	6347.15	5461.65
946.9195	2175.0409	6306.9	5421.9
947.0543	2176.5445	6313.1	5426.95
947.1891	2178.0473	6308.65	5420.4
947.3239	2179.5494	6280.2	5388.75
947.4587	2181.0507	6251.4	5364.5
947.5934	2182.5513	6224.15	5336.35
947.7281	2184.0512	6225.05	5338.75
947.8628	2185.5504	6196.2	5308.95
947.9974	2187.0488	6154.1	5268.55
948.132	2188.5465	6145.05	5260.65
948.2666	2190.0435	6131.15	5246.3
948.4012	2191.5397	6130.7	5242.95
948.5357	2193.0353	6109.85	5221.3
948.6702	2194.5301	6075.5	5186.2
948.8047	2196.0241	6067.3	5178
948.9392	2197.5175	6040.65	5147.75
949.0736	2199.0101	6034.3	5138.05
949.208	2200.502	5993.45	5106.15
949.3424	2201.9931	5963.55	5078.2
949.4767	2203.4835	5964.6	5079.45
949.611	2204.9733	5957.2	5064.8
949.7453	2206.4622	5954.55	5069.85
949.8796	2207.9505	5910.6	5024.35
950.0138	2209.438	5868.1	4987.55
950.148	2210.9248	5873.15	4986.45
950.2822	2212.4109	5854.25	4966.8
950.4164	2213.8962	5836.35	4945.7
950.5505	2215.3809	5827.65	4933.95
950.6846	2216.8648	5802.25	4910.9
950.8186	2218.3479	5790.2	4894
950.9527	2219.8304	5767.1	4873.2
951.0867	2221.3121	5763.05	4870.8
951.2207	2222.7931	5735.25	4844.95
951.3546	2224.2733	5713.4	4822.9
951.4886	2225.7529	5701.4	4814.8
951.6225	2227.2317	5680.3	4790.5
951.7563	2228.7098	5668.15	4782.55
951.8902	2230.1872	5639.9	4755.65
952.024	2231.6638	5628.45	4742.2
952.1578	2233.1397	5608.8	4719.6
952.2916	2234.6149	5613.35	4727.45
952.4253	2236.0894	5595.3	4709.65
952.559	2237.5632	5567.55	4678.3
952.6927	2239.0362	5546.75	4659.95
952.8263	2240.5085	5534.7	4648.7
952.9599	2241.9801	5510.25	4621.6
953.0935	2243.4509	5498.35	4609.6
953.2271	2244.921	5470.4	4583.4
953.3606	2246.3904	5459.75	4565.7
953.4941	2247.8591	5456.95	4569.7
953.6276	2249.3271	5421.7	4534.6
953.7611	2250.7943	5421.45	4532.1
953.8945	2252.2608	5405.5	4518.15
954.0279	2253.7266	5369.8	4480.15
954.1612	2255.1917	5368.95	4482.6
954.2946	2256.656	5355.75	4468.4
954.4279	2258.1197	5339.8	4455.3
954.5612	2259.5826	5319.15	4429.9
954.6944	2261.0447	5325.55	4437.75
954.8276	2262.5062	5302.15	4412.15
954.9608	2263.9669	5293.25	4402.8
955.094	2265.4269	5277.3	4388.2
955.2271	2266.8862	5263.15	4376.4
955.3602	2268.3448	5255.75	4367.65
955.4933	2269.8026	5237.85	4350.8
955.6264	2271.2598	5237.35	4351.8
955.7594	2272.7162	5206.55	4320.8
955.8924	2274.1719	5188.65	4302.1
956.0253	2275.6268	5195.4	4306.75
956.1583	2277.0811	5176.65	4286.75
956.2912	2278.5346	5160.2	4274.75
956.4241	2279.9874	5145.55	4262.15
956.5569	2281.4395	5143.85	4260.25
956.6897	2282.8908	5133.25	4241.6
956.8225	2284.3414	5103	4211
956.9553	2285.7914	5082.8	4195.7
957.088	2287.2406	5085	4196.8
957.2207	2288.689	5071.95	4182.65
957.3534	2290.1368	5064.15	4171.4
957.486	2291.5838	5063.65	4168.45
957.6186	2293.0302	5034.85	4143.1
957.7512	2294.4758	5025.2	4134.1
957.8838	2295.9206	5007.8	4117.1
958.0163	2297.3648	4976.05	4087
958.1488	2298.8082	4964.95	4075.7
958.2813	2300.251	4960.55	4070.7
958.4137	2301.693	4931.7	4038.85
958.5461	2303.1343	4937.25	4047.45
958.6785	2304.5748	4939.95	4053.4
958.8108	2306.0147	4909.25	4022.25
958.9432	2307.4538	4890.45	4001.8
959.0754	2308.8922	4866.35	3984.95
959.2077	2310.3299	4882.5	3999
959.3399	2311.7669	4847.05	3960.25
959.4721	2313.2031	4834.15	3948
959.6043	2314.6387	4833.15	3946.35
959.7365	2316.0735	4810.9	3922.5
959.8686	2317.5076	4786.5	3898.65
960.0006	2318.941	4784.35	3894.7
960.1327	2320.3737	4785.55	3894.9
960.2647	2321.8056	4773.55	3880.4
960.3967	2323.2369	4734.1	3846.25
960.5287	2324.6674	4730	3840.7
960.6606	2326.0972	4737.9	3848.15
960.7925	2327.5263	4718.55	3832.1
960.9244	2328.9547	4702.85	3815
961.0562	2330.3823	4694.55	3802.6
961.1881	2331.8092	4677.15	3779.7
961.3198	2333.2355	4657.3	3766
961.4516	2334.661	4651.2	3759.9
961.5833	2336.0858	4625.9	3736.3
961.715	2337.5098	4625.05	3734.95
961.8467	2338.9332	4624.05	3735.1
961.9783	2340.3558	4617.75	3725.75
962.1099	2341.7778	4593.6	3707.25
962.2415	2343.199	4575	3684.6
962.373	2344.6195	4565.3	3677.8
962.5045	2346.0393	4553.5	3666.75
962.636	2347.4583	4565.55	3675.4
962.7675	2348.8767	4539.15	3649.1
962.8989	2350.2943	4534.8	3643.9
963.0303	2351.7113	4525.05	3632.6
963.1617	2353.1275	4498.8	3606.9
963.293	2354.543	4511.65	3595.4
963.4243	2355.9578	4483.35	3591.45
963.5556	2357.3718	4443.5	3554.6
963.6868	2358.7852	4445.65	3558.2
963.818	2360.1978	4426.7	3538.95
963.9492	2361.6098	4419.35	3532.8
964.0803	2363.021	4401.6	3510.45
964.2114	2364.4315	4398.65	3510
964.3425	2365.8413	4391.25	3496.8
964.4736	2367.2504	4377.05	3491.45
964.6046	2368.6587	4358.1	3473.55
964.7356	2370.0664	4327.25	3440
964.8666	2371.4733	4313.4	3426.05
964.9975	2372.8795	4308.95	3422.2
965.1284	2374.285	4303.05	3415.1
965.2593	2375.6899	4269.65	3382.5
965.3901	2377.0939	4250.05	3364.3
965.5209	2378.4973	4245.45	3360.25
965.6517	2379.9	4238.25	3350.2
965.7825	2381.3019	4238.25	3351.7
965.9132	2382.7032	4217.5	3331.85
966.0439	2384.1037	4193.75	3311.75
966.1745	2385.5035	4197.65	3313.6
966.3051	2386.9027	4175.1	3291.35
966.4357	2388.3011	4169.25	3281.7
966.5663	2389.6987	4151.9	3266.45
966.6968	2391.0957	4124.65	3239.35
966.8273	2392.492	4139.45	3256.05
966.9578	2393.8876	4102.05	3213.85
967.0882	2395.2824	4079.25	3193.65
967.2186	2396.6765	4085.55	3201.25
967.349	2398.07	4056.4	3167.35
967.4793	2399.4627	4052.1	3165.55
967.6097	2400.8547	4042.4	3155.4
967.7399	2402.246	4041.85	3149.8
967.8702	2403.6366	4025.6	3137.95
968.0004	2405.0265	4010.05	3126.75
968.1306	2406.4156	4004.7	3114.15
968.2607	2407.8041	3981.25	3091.1
968.3909	2409.1918	3970.65	3081.75
968.521	2410.5789	3955.95	3069.7
968.651	2411.9652	3949.35	3059.65
968.781	2413.3508	3957.35	3070.85
968.911	2414.7358	3944.45	3055.75
969.041	2416.12	3924.65	3037.85
969.1709	2417.5035	3912.75	3026.75
969.3008	2418.8863	3889.65	3002.35
969.4307	2420.2684	3899.75	3014.05
969.5606	2421.6497	3863.75	2976.6
969.6904	2423.0304	3859.05	2972.95
969.8201	2424.4104	3846.35	2960.9
969.9499	2425.7896	3830.05	2942.45
970.0796	2427.1682	3827.15	2940.2
970.2093	2428.546	3828.75	2943.45
970.3389	2429.9232	3805.45	2915
970.4685	2431.2996	3803.75	2916.75
970.5981	2432.6753	3794.35	2906.45
970.7277	2434.0503	3806.6	2918.7
970.8572	2435.4246	3768.75	2880.55
970.9867	2436.7982	3745.15	2853.9
971.1161	2438.1711	3744	2856
971.2456	2439.5433	3747.7	2859.35
971.375	2440.9148	3727	2833
971.5043	2442.2856	3718.8	2832.5
971.6336	2443.6557	3702.6	2815.8
971.7629	2445.025	3697	2808.55
971.8922	2446.3937	3683.35	2794.8
972.0214	2447.7617	3668.95	2780.45
972.1506	2449.1289	3674.6	2789.85
972.2798	2450.4955	3672.9	2783.25
972.4089	2451.8613	3658	2771.75
972.538	2453.2265	3641.7	2753.5
972.6671	2454.5909	3631.25	2742.1
972.7961	2455.9546	3643.65	2755.9
972.9251	2457.3177	3606.6	2721.15
973.0541	2458.68	3605.75	2717.1
973.1831	2460.0416	3610.65	2722.85
973.312	2461.4025	3607.55	2719.95
973.4408	2462.7627	3606.9	2709.5
973.5697	2464.1222	3580.8	2696.3
973.6985	2465.4811	3576.35	2692.05
973.8273	2466.8392	3571.3	2684.3
973.956	2468.1966	3560.85	2670.75
974.0847	2469.5533	3562.7	2671.5
974.2134	2470.9093	3555.9	2667.6
974.3421	2472.2645	3531.85	2643.6
974.4707	2473.6191	3528.5	2642.75
974.5993	2474.973	3506.5	2618.85
974.7278	2476.3262	3499.25	2611
974.8563	2477.6787	3498.05	2611.05
974.9848	2479.0305	3483.5	2595.8
975.1132	2480.3816	3481	2592.9
975.2417	2481.7319	3472.85	2586.25
975.37	2483.0816	3464.65	2576.95
975.4984	2484.4306	3431.95	2545.5
975.6267	2485.7789	3433.1	2547.7
975.755	2487.1264	3429.35	2542.15
975.8833	2488.4733	3412.35	2524.75
976.0115	2489.8195	3408.5	2514.05
976.1397	2491.165	3393.45	2503.9
976.2678	2492.5097	3373.95	2485.75
976.3959	2493.8538	3376.55	2490.5
976.524	2495.1972	3363.6	2475.65
976.6521	2496.5398	3346.8	2456.1
976.7801	2497.8818	3334.45	2444.45
976.9081	2499.2231	3331.9	2444.2
977.036	2500.5637	3331.1	2439.95
977.164	2501.9035	3321.25	2431.35
977.2918	2503.2427	3311	2420.1
977.4197	2504.5812	3288.5	2399.5
977.5475	2505.919	3286.65	2397.55
977.6753	2507.256	3285.5	2397.85
977.8031	2508.5924	3268.4	2380.25
977.9308	2509.9281	3265.3	2372.15
978.0585	2511.2631	3262.2	2372.75
978.1861	2512.5974	3257.3	2369
978.3137	2513.9309	3243.35	2357.35
978.4413	2515.2638	3257.5	2344.8
978.5689	2516.596	3235.25	2350.05
978.6964	2517.9275	3214.1	2326.6
978.8239	2519.2583	3212.5	2325.25
978.9513	2520.5884	3187.6	2299.25
979.0788	2521.9178	3187.25	2298.75
979.2062	2523.2465	3188.9	2303.15
979.3335	2524.5745	3159.65	2274.45
979.4608	2525.9018	3172.65	2286.65
979.5881	2527.2284	3160.6	2276.15
979.7154	2528.5543	3140	2253.8
979.8426	2529.8796	3140.7	2253.4
979.9698	2531.2041	3150.8	2262.35
980.0969	2532.5279	3139.2	2254.1
980.224	2533.851	3126.55	2238.4
980.3511	2535.1735	3117.9	2234
980.4781	2536.4952	3099.35	2213.85
980.6052	2537.8163	3106.05	2215.05
980.7321	2539.1366	3097.45	2209.55
980.8591	2540.4562	3087.6	2198.15
980.986	2541.7752	3102.1	2214
981.1129	2543.0935	3094.75	2205.25
981.2397	2544.411	3085.3	2195.6
981.3665	2545.7279	3085.35	2195.65
981.4933	2547.0441	3077.95	2189.7
981.62	2548.3596	3059.25	2168.65
981.7467	2549.6744	3050.45	2162.25
981.8734	2550.9885	3055.6	2161.1
982.0001	2552.3019	3042.55	2155.25
982.1267	2553.6146	3032.95	2144.6
982.2532	2554.9266	3025	2139.45
982.3798	2556.2379	3011.15	2121.5
982.5063	2557.5485	3018.75	2134.2
982.6327	2558.8585	3022.3	2128.6
982.7592	2560.1677	2999.25	2108.05
982.8856	2561.4762	2991.8	2103.5
983.0119	2562.7841	2989.2	2098.65
983.1383	2564.0913	2982	2097.55
983.2646	2565.3977	2983.45	2095.5
983.3908	2566.7035	2967.8	2079.45
983.517	2568.0086	2974.2	2084.1
983.6432	2569.313	2961.35	2071.45
983.7694	2570.6167	2961.95	2068.4
983.8955	2571.9197	2952.5	2063.45
984.0216	2573.222	2955.6	2064.6
984.1476	2574.5236	2941.5	2052.15
984.2737	2575.8246	2938.35	2048.25
984.3996	2577.1248	2931.25	2042.5
984.5256	2578.4244	2923.55	2038.1
984.6515	2579.7232	2922.2	2031.9
984.7774	2581.0214	2955.55	2037.6
984.9032	2582.3189	2937.45	2049.2
985.029	2583.6157	2923.4	2029.9
985.1548	2584.9118	2912.2	2024.6
985.2806	2586.2072	2897.5	2008.95
985.4063	2587.5019	2899.55	2011
985.5319	2588.7959	2889.85	2001.75
985.6576	2590.0893	2905.4	2015.1
985.7832	2591.3819	2903.2	2015.4
985.9087	2592.6739	2885.1	1995.55
986.0343	2593.9652	2889.15	1999.3
986.1597	2595.2557	2872	1983.1
986.2852	2596.5456	2888.15	1996.85
986.4106	2597.8348	2877.65	1990
986.536	2599.1234	2857.1	1969
986.6614	2600.4112	2857.45	1970.9
986.7867	2601.6983	2845	1952.25
986.912	2602.9848	2842.95	1955.55
987.0372	2604.2705	2825	1932.1
987.1624	2605.5556	2839.3	1952
987.2876	2606.84	2836.5	1949.9
987.4128	2608.1237	2822.35	1931.7
987.5379	2609.4067	2818.5	1930.55
987.6629	2610.689	2805	1908.55
987.788	2611.9707	2807.1	1914.2
987.913	2613.2516	2788.45	1895
988.0379	2614.5319	2767.25	1878.75
988.1629	2615.8115	2770.05	1881
988.2878	2617.0903	2776.9	1888.8
988.4126	2618.3685	2756.6	1867.75
988.5375	2619.6461	2756	1866.8
988.6622	2620.9229	2748.15	1862.35
988.787	2622.199	2745.3	1856.35
988.9117	2623.4745	2731.25	1841.6
989.0364	2624.7493	2740.9	1852.6
989.161	2626.0234	2723.95	1837.4
989.2857	2627.2968	2711.1	1823.55
989.4102	2628.5695	2709.7	1819.3
989.5348	2629.8415	2699.65	1813.2
989.6593	2631.1128	2689.45	1801.2
989.7837	2632.3835	2689.35	1802.15
989.9082	2633.6535	2691.75	1803.6
990.0326	2634.9228	2680.15	1791.65
990.1569	2636.1914	2675.55	1789.3
990.2812	2637.4593	2679.6	1788.75
990.4055	2638.7265	2662.6	1774.7
990.5298	2639.9931	2654.7	1768.05
990.654	2641.259	2656.7	1765.35
990.7782	2642.5242	2646.15	1759.55
990.9023	2643.7887	2642.25	1753.35
991.0264	2645.0525	2637.85	1748.9
991.1505	2646.3156	2630.6	1728.05
991.2745	2647.5781	2622.2	1732.9
991.3985	2648.8398	2619.1	1734.35
991.5225	2650.1009	2612.4	1698.35
991.6464	2651.3613	2610.1	1722.35
991.7703	2652.6211	2596.15	1708.6
991.8942	2653.8801	2590.05	1704.25
992.018	2655.1385	2587.35	1697
992.1418	2656.3961	2576.2	1687.7
992.2655	2657.6531	2577.7	1691.15
992.3892	2658.9094	2579.3	1691.95
992.5129	2660.1651	2584.1	1695.65
992.6366	2661.42	2566.4	1679.5
992.7602	2662.6743	2579.8	1692.7
992.8837	2663.9279	2566.5	1680
993.0073	2665.1808	2566.05	1679.05
993.1307	2666.433	2557.4	1667.8
993.2542	2667.6846	2554.1	1669.15
993.3776	2668.9354	2560.05	1667.55
993.501	2670.1856	2550.5	1662.85
993.6244	2671.4351	2545.75	1659.1
993.7477	2672.6839	2544.3	1656.2
993.8709	2673.9321	2544	1656
993.9942	2675.1795	2532.25	1646.8
994.1174	2676.4263	2531.3	1645.3
994.2405	2677.6724	2528.15	1642.6
994.3637	2678.9179	2532.15	1644.4
994.4868	2680.1626	2533.65	1647.1
994.6098	2681.4067	2537.9	1652.8
994.7328	2682.6501	2520.9	1631.8
994.8558	2683.8928	2514.5	1625.05
994.9788	2685.1348	2514.4	1626.05
995.1017	2686.3761	2508.15	1621.9
995.2245	2687.6168	2495.05	1608.15
995.3474	2688.8568	2482.7	1595.5
995.4702	2690.0961	2486.55	1600.6
995.5929	2691.3348	2469.75	1581.3
995.7156	2692.5727	2471.65	1585.05
995.8383	2693.81	2454.35	1567.05
995.961	2695.0466	2459.6	1574.3
996.0836	2696.2826	2450.2	1562.25
996.2062	2697.5178	2435.45	1546.8
996.3287	2698.7524	2443.15	1556.75
996.4512	2699.9863	2446	1556.3
996.5737	2701.2195	2444.5	1559.35
996.6961	2702.452	2449.95	1561.15
996.8185	2703.6839	2434.35	1547.5
996.9408	2704.9151	2441.4	1556
997.0631	2706.1456	2443.85	1555.35
997.1854	2707.3755	2447.1	1559.7
997.3077	2708.6046	2448.15	1559.2
997.4299	2709.8331	2451.15	1563.5
997.552	2711.0609	2452.25	1564.35
997.6742	2712.2881	2454.65	1568.05
997.7963	2713.5145	2461.4	1572.35
997.9183	2714.7403	2461.55	1575.4
998.0403	2715.9654	2460.45	1574.3
998.1623	2717.1899	2477.45	1577.25
998.2842	2718.4136	2477.25	1592.05
998.4062	2719.6367	2487.75	1601.65
998.528	2720.8591	2493.5	1599.15
998.6498	2722.0809	2492.95	1606.95
998.7716	2723.3019	2508.15	1620
998.8934	2724.5223	2503.4	1617.5
999.0151	2725.7421	2486.6	1599.85
999.1368	2726.9611	2506.35	1619.85
999.2584	2728.1795	2508.6	1617.85
999.38	2729.3972	2491.7	1607.15
999.5016	2730.6142	2485.4	1588.05
999.6231	2731.8306	2455.2	1567.7
999.7446	2733.0462	2436.75	1547.55
999.8661	2734.2612	2427.95	1536.55
999.9875	2735.4756	2396.65	1510
1000.1089	2736.6892	2390.6	1503.35
1000.2302	2737.9022	2362.9	1478.05
1000.3515	2739.1145	2342.6	1457.85
1000.4728	2740.3262	2337.25	1443.45
1000.594	2741.5372	2317.3	1429.8
1000.7152	2742.7475	2301.5	1416.6
1000.8363	2743.9571	2297.7	1410.3
1000.9575	2745.1661	2274.75	1384.05
1001.0785	2746.3744	2261.4	1373.95
1001.1996	2747.582	2245.1	1359.25
1001.3206	2748.7889	2245.8	1359.75
1001.4415	2749.9952	2236.1	1351.3
1001.5625	2751.2008	2211.75	1326
1001.6833	2752.4057	2224.6	1336.5
1001.8042	2753.61	2204.2	1317.8
1001.925	2754.8136	2201.9	1313.2
1002.0458	2756.0165	2190.1	1303.95
1002.1665	2757.2188	2183.15	1297.8
1002.2872	2758.4204	2186.2	1301.75
1002.4078	2759.6213	2176.65	1288.65
1002.5285	2760.8215	2182.35	1293.55
1002.649	2762.0211	2178	1289.95
1002.7696	2763.22	2167.65	1278.35
1002.8901	2764.4182	2158.1	1271.55
1003.0106	2765.6158	2159.65	1273.2
1003.131	2766.8127	2150.4	1264.85
1003.2514	2768.009	2139.35	1255.8
1003.3717	2769.2045	2144.85	1257.8
1003.492	2770.3994	2139.7	1250.55
1003.6123	2771.5936	2131.4	1242.9
1003.7325	2772.7872	2123.2	1239.65
1003.8527	2773.9801	2117.8	1231.2
1003.9729	2775.1723	2131.05	1230.05
1004.093	2776.3639	2113	1231.15
1004.2131	2777.5548	2111.4	1224
1004.3331	2778.745	2104.6	1218.9
1004.4531	2779.9346	2112	1226.2
1004.5731	2781.1235	2101.6	1214.85
1004.693	2782.3117	2108.5	1224.85
1004.8129	2783.4992	2107.75	1222.75
1004.9328	2784.6861	2105.25	1219.3
1005.0526	2785.8723	2114.5	1226.7
1005.1723	2787.0579	2118.7	1232.95
1005.2921	2788.2428	2121.65	1237.35
1005.4118	2789.427	2119.25	1235.85
1005.5314	2790.6106	2120.95	1235.4
1005.651	2791.7935	2131.55	1243.8
1005.7706	2792.9757	2150.75	1265.7
1005.8902	2794.1573	2160.6	1273.05
1006.0097	2795.3382	2172.15	1288.25
1006.1291	2796.5184	2180	1296.85
1006.2485	2797.698	2190.8	1305.6
1006.3679	2798.8769	2200.65	1316.65
1006.4873	2800.0551	2213.7	1329.95
1006.6066	2801.2327	2225.1	1337.05
1006.7258	2802.4096	2247.05	1362.4
1006.8451	2803.5859	2274	1388.7
1006.9642	2804.7615	2287.7	1404.55
1007.0834	2805.9364	2308.35	1424.6
1007.2025	2807.1106	2340.95	1457.7
1007.3216	2808.2842	2367.45	1483
1007.4406	2809.4572	2390.45	1503.95
1007.5596	2810.6294	2422.45	1538.85
1007.6785	2811.801	2462.45	1579.05
1007.7975	2812.972	2499.05	1615.3
1007.9163	2814.1423	2546.65	1662.15
1008.0352	2815.3119	2589.2	1704.8
1008.154	2816.4808	2629.35	1746.15
1008.2727	2817.6491	2688.75	1802.45
1008.3914	2818.8167	2730.25	1846.65
1008.5101	2819.9837	2778.95	1890.05
1008.6288	2821.15	2830.75	1946.85
1008.7474	2822.3157	2866.7	1983.65
1008.8659	2823.4807	2908.25	2025.15
1008.9844	2824.645	2951.85	2067.15
1009.1029	2825.8086	2990.5	2107.75
1009.2214	2826.9716	3023.75	2144.1
1009.3398	2828.134	3077.3	2195.15
1009.4581	2829.2957	3116.75	2231.8
1009.5764	2830.4567	3125.65	2243.2
1009.6947	2831.617	3152	2267.05
1009.813	2832.7767	3152.55	2270.5
1009.9312	2833.9358	3148.6	2265.7
1010.0493	2835.0941	3148.35	2262.15
1010.1675	2836.2519	3134.05	2249.35
1010.2855	2837.4089	3126.9	2239.65
1010.4036	2838.5653	3126.5	2242.6
1010.5216	2839.7211	3110.25	2227.1
1010.6396	2840.8761	3115.25	2228.5
1010.7575	2842.0306	3129.6	2247.25
1010.8754	2843.1843	3175	2292.15
1010.9932	2844.3374	3231.1	2345.45
1011.111	2845.4899	3286.6	2401.55
1011.2288	2846.6417	3360.95	2478.15
1011.3465	2847.7928	3424.1	2542.45
1011.4642	2848.9433	3510	2626.85
1011.5818	2850.0931	3590.2	2706.35
1011.6995	2851.2422	3661.35	2776
1011.817	2852.3907	3744.55	2859.5
1011.9345	2853.5385	3806.9	2920.75
1012.052	2854.6857	3874.9	2982.8
1012.1695	2855.8323	3911.35	3030.25
1012.2869	2856.9781	3966.7	3084.8
1012.4042	2858.1233	4004.6	3121.6
1012.5216	2859.2679	4049.85	3168
1012.6389	2860.4118	4100.3	3217.4
1012.7561	2861.555	4138.25	3251.15
1012.8733	2862.6976	4171.15	3285.5
1012.9905	2863.8395	4184.15	3302.2
1013.1076	2864.9808	4207.5	3324.3
1013.2247	2866.1214	4223.75	3342.45
1013.3417	2867.2614	4250.55	3365.45
1013.4587	2868.4007	4261.35	3376.5
1013.5757	2869.5393	4261.35	3377.1
1013.6926	2870.6773	4281.4	3395.45
1013.8095	2871.8146	4279.05	3391.55
1013.9263	2872.9513	4281.75	3395.5
1014.0431	2874.0874	4272.7	3388.8
1014.1599	2875.2227	4270.8	3385.75
1014.2766	2876.3574	4258.2	3374.85
1014.3933	2877.4915	4219.45	3335.85
1014.51	2878.6249	4198.5	3318
1014.6266	2879.7577	4166.75	3284.35
1014.7431	2880.8898	4155	3261.5
1014.8596	2882.0212	4120.5	3238.45
1014.9761	2883.152	4122.85	3239.8
1015.0925	2884.2821	4097.5	3214.9
1015.2089	2885.4116	4082.65	3201.65
1015.3253	2886.5405	4080.85	3196.95
1015.4416	2887.6686	4099	3213.65
1015.5579	2888.7962	4098.9	3217.55
1015.6741	2889.923	4107.45	3224.9
1015.7903	2891.0493	4103.5	3222.65
1015.9065	2892.1748	4119.25	3235.15
1016.0226	2893.2997	4141.55	3258.75
1016.1387	2894.424	4139	3257.45
1016.2547	2895.5476	4160.55	3276.55
1016.3707	2896.6706	4156.25	3275.4
1016.4866	2897.7929	4197.95	3315.25
1016.6025	2898.9145	4224.8	3339.85
1016.7184	2900.0355	4257.1	3372.4
1016.8342	2901.1559	4268.4	3384
1016.95	2902.2756	4323.1	3440.9
1017.0658	2903.3946	4345.4	3464
1017.1815	2904.513	4371.45	3486.3
1017.2971	2905.6308	4396.75	3514.05
1017.4127	2906.7479	4420.15	3537.5
1017.5283	2907.8643	4440.5	3557.1
1017.6439	2908.9801	4474.05	3590.3
1017.7594	2910.0953	4466.6	3583.75
1017.8748	2911.2098	4461	3575.65
1017.9902	2912.3236	4451.2	3558.25
1018.1056	2913.4368	4420.65	3534.25
1018.2209	2914.5494	4411.3	3527.15
1018.3362	2915.6613	4386.1	3497.05
1018.4515	2916.7725	4357.8	3471.85
1018.5667	2917.8831	4328.8	3444.7
1018.6819	2918.9931	4291.75	3406.85
1018.797	2920.1024	4272.7	3387.65
1018.9121	2921.211	4245.9	3363.65
1019.0271	2922.319	4250.3	3368.4
1019.1421	2923.4264	4189.1	3306.35
1019.2571	2924.5331	4196.45	3316.2
1019.372	2925.6391	4183.45	3302.15
1019.4869	2926.7445	4177.45	3294.6
1019.6017	2927.8493	4141.65	3258.9
1019.7165	2928.9534	4134.8	3250.8
1019.8313	2930.0569	4138.2	3254
1019.946	2931.1597	4120.2	3236.25
1020.0606	2932.2619	4110.8	3229.4
1020.1753	2933.3634	4086.65	3204.1
1020.2899	2934.4643	4096.05	3207.6
1020.4044	2935.5645	4065.85	3178.2
1020.5189	2936.6641	4028.45	3141
1020.6334	2937.763	3969	3089.9
1020.7478	2938.8613	3939.2	3057.25
1020.8622	2939.959	3874.15	2984.9
1020.9765	2941.056	3804.05	2923.3
1021.0908	2942.1523	3695.95	2812.85
1021.2051	2943.248	3620.6	2737.05
1021.3193	2944.3431	3521	2639.05
1021.4334	2945.4375	3427.45	2546
1021.5476	2946.5313	3320.2	2439.4
1021.6617	2947.6244	3210	2326.25
1021.7757	2948.7169	3106.1	2222.8
1021.8897	2949.8087	3010	2129.25
1022.0037	2950.8999	2896.25	2014.3
1022.1176	2951.9904	2817.8	1937.3
1022.2315	2953.0803	2737.2	1853.9
1022.3453	2954.1696	2675.55	1794.1
1022.4591	2955.2582	2626.2	1745.6
1022.5728	2956.3462	2579.65	1697.4
1022.6865	2957.4335	2542.4	1660.45
1022.8002	2958.5202	2505.8	1620.5
1022.9138	2959.6062	2463.7	1580.8
1023.0274	2960.6916	2447.2	1566.95
1023.141	2961.7764	2420.9	1538.75
1023.2545	2962.8605	2406.7	1524.1
1023.3679	2963.9439	2391.55	1511.15
1023.4813	2965.0267	2375.85	1492.3
1023.5947	2966.1089	2381.7	1476.45
1023.708	2967.1905	2367.05	1487.7
1023.8213	2968.2714	2355.55	1473.95
1023.9346	2969.3516	2352.9	1472.6
1024.0478	2970.4312	2376.6	1487.55
1024.1609	2971.5102	2355.4	1474.3
1024.274	2972.5885	2348.95	1466.55
1024.3871	2973.6662	2350.05	1462.5
1024.5002	2974.7432	2332.2	1451.2
1024.6132	2975.8196	2335.5	1453.1
1024.7261	2976.8954	2328.45	1447.6
1024.839	2977.9705	2309.4	1426.25
1024.9519	2979.045	2300.85	1420.55
1025.0647	2980.1188	2285.55	1404.95
1025.1775	2981.192	2248.8	1368.6
1025.2902	2982.2645	2240.2	1359.85
1025.4029	2983.3364	2212.65	1332
1025.5156	2984.4077	2187.3	1305.2
1025.6282	2985.4783	2155.05	1269.45
1025.7407	2986.5483	2114.05	1233.65
1025.8532	2987.6177	2082.05	1201.15
1025.9657	2988.6864	2037.1	1154.6
1026.0782	2989.7545	2008.65	1127.6
1026.1906	2990.8219	1974	1093.4
1026.3029	2991.8887	1936.9	1054.3
1026.4152	2992.9548	1901	1020.2
1026.5275	2994.0204	1879.3	998.7
1026.6397	2995.0852	1839.6	960
1026.7519	2996.1495	1813.3	929.75
1026.864	2997.2131	1800.25	920.05
1026.9761	2998.276	1767.45	885.95
1027.0882	2999.3383	1754.05	874
1027.2002	3000.4	1730.5	850.7
1027.3122	3001.4611	1717.45	834.85
1027.4241	3002.5215	1693.95	810.5
1027.536	3003.5812	1686.3	805.2
1027.6478	3004.6404	1668.8	786.5
1027.7596	3005.6989	1669.1	784.95
1027.8714	3006.7567	1650.8	768.75
1027.9831	3007.8139	1658.25	762.05
1028.0947	3008.8705	1631.6	750.3
1028.2064	3009.9264	1634.9	734.95
1028.3179	3010.9818	1618.05	735.95
1028.4295	3012.0364	1620.05	739.1
1028.541	3013.0905	1618.3	737.45
1028.6524	3014.1439	1615.85	733.6
1028.7638	3015.1966	1612.2	732.5
1028.8752	3016.2487	1612.2	731.55
1028.9865	3017.3002	1615.35	725.85
1029.0978	3018.3511	1605.4	725.3
1029.209	3019.4013	1609.35	728.75
1029.3202	3020.4509	1602.95	722.45
1029.4314	3021.4998	1603.65	724.55
1029.5425	3022.5481	1602.9	721.4
1029.6535	3023.5958	1598.55	718.35
1029.7645	3024.6428	1600.55	716.65
1029.8755	3025.6892	1594.65	716.35
1029.9864	3026.735	1605	724.05
1030.0973	3027.7802	1606.25	724.45
1030.2082	3028.8247	1609.8	727.5
1030.319	3029.8685	1606.6	725.3
1030.4297	3030.9118	1619.75	738.05
1030.5404	3031.9544	1616.3	735.95
1030.6511	3032.9963	1624.5	744.8
1030.7617	3034.0376	1622.2	742
1030.8723	3035.0783	1629.05	747.45
1030.9829	3036.1184	1623.5	741.25
1031.0934	3037.1578	1630.25	750.4
1031.2038	3038.1966	1636.2	754.3
1031.3142	3039.2348	1636.15	755.45
1031.4246	3040.2723	1644	754.2
1031.5349	3041.3092	1627.9	748.7
1031.6452	3042.3455	1624.35	744.9
1031.7554	3043.3811	1614.15	733.2
1031.8656	3044.4161	1614.85	731.4
1031.9758	3045.4505	1603.25	724.6
1032.0859	3046.4842	1602.45	719.7
1032.1959	3047.5173	1597.65	718.2
1032.3059	3048.5498	1590.4	709.55
1032.4159	3049.5816	1578.4	697.15
1032.5258	3050.6128	1570.35	688.4
1032.6357	3051.6434	1572.3	689.45
1032.7455	3052.6734	1559.4	678.25
1032.8553	3053.7027	1542.05	659.8
1032.9651	3054.7314	1547.15	667
1033.0748	3055.7594	1531.6	651.4
1033.1845	3056.7868	1528.3	647.1
1033.2941	3057.8136	1524.3	644.65
1033.4037	3058.8398	1519	639
1033.5132	3059.8653	1507.25	627.95
1033.6227	3060.8902	1505.35	625.55
1033.7321	3061.9145	1501.35	620.05
1033.8415	3062.9381	1495.35	616.45
1033.9509	3063.9612	1498.6	601.15
1034.0602	3064.9835	1471.9	591.95
1034.1694	3066.0053	1473.7	592.6
1034.2787	3067.0264	1463.35	582.25
1034.3878	3068.0469	1461.8	580.35
1034.497	3069.0668	1447.25	563.5
1034.6061	3070.086	1437.35	557.95
1034.7151	3071.1046	1428.35	543.85
1034.8241	3072.1226	1414.35	533.25
1034.9331	3073.1399	1405.9	527.05
1035.042	3074.1567	1398.25	517.1
1035.1508	3075.1727	1387.75	506.15
1035.2597	3076.1882	1380.95	501.6
1035.3684	3077.203	1368.7	487.9
1035.4772	3078.2173	1359.2	475.6
1035.5859	3079.2308	1348.85	465.85
1035.6945	3080.2438	1340.85	457.5
1035.8031	3081.2561	1338.8	457.05
1035.9117	3082.2678	1322.05	442.05
1036.0202	3083.2789	1313.85	433.95
1036.1286	3084.2893	1306.2	427.9
1036.2371	3085.2991	1298.15	415.65
1036.3454	3086.3083	1304.75	423.4
1036.4538	3087.3169	1296.25	415
1036.562	3088.3248	1284.5	402.7
1036.6703	3089.3321	1277	396.2
1036.7785	3090.3388	1276.5	397.05
1036.8866	3091.3449	1269.6	389
1036.9948	3092.3503	1271.05	388.55
1037.1028	3093.3551	1262	381.85
1037.2108	3094.3593	1256.4	376.65
1037.3188	3095.3629	1247.75	368.4
1037.4267	3096.3658	1251.3	368.65
1037.5346	3097.3681	1243.35	363.35
1037.6425	3098.3698	1243.5	362.15
1037.7503	3099.3708	1243.5	358.2
1037.858	3100.3713	1233.7	355.4
1037.9657	3101.3711	1230.25	349.65
1038.0734	3102.3702	1355.45	344
1038.181	3103.3688	1235.85	353.05
1038.2886	3104.3667	1223.55	345.45
1038.3961	3105.364	1221.35	340.6
1038.5036	3106.3607	1214.35	333.95
1038.611	3107.3568	1216.7	335.2
1038.7184	3108.3522	1207.3	327.7
1038.8257	3109.347	1213.7	331.95
1038.933	3110.3412	1208.65	324.55
1039.0403	3111.3348	1204.45	323.55
1039.1475	3112.3277	1201.4	322.05
1039.2547	3113.32	1200.75	322.2
1039.3618	3114.3117	1198.55	319.35
1039.4689	3115.3028	1193.7	314.3
1039.5759	3116.2932	1191.8	309.8
1039.6829	3117.2831	1196.25	310.8
1039.7898	3118.2723	1176.45	296.9
1039.8967	3119.2608	1184.4	303.5
1040.0035	3120.2488	1189.4	308
1040.1103	3121.2361	1188.8	308.2
1040.2171	3122.2229	1180.7	301.35
1040.3238	3123.209	1180.05	299.7
1040.4305	3124.1944	1176.05	297.9
1040.5371	3125.1793	1179.65	298.6
1040.6437	3126.1635	1169.15	291.65
1040.7502	3127.1471	1171.8	291.65
1040.8567	3128.1301	1166.6	286.45
1040.9631	3129.1125	1165.6	287.15
1041.0695	3130.0942	1169.95	289
1041.1759	3131.0753	1173.45	284.8
1041.2822	3132.0558	1165.1	282.65
1041.3884	3133.0357	1164.4	283.35
1041.4946	3134.015	1158.45	277
1041.6008	3134.9936	1159.5	277.05
1041.7069	3135.9716	1172.05	271.4
1041.813	3136.949	1155.65	278
1041.919	3137.9258	1168.5	269.1
1042.025	3138.902	1152.05	264.9
1042.1309	3139.8775	1144.25	265.8
1042.2368	3140.8524	1142.7	263.05
1042.3427	3141.8267	1147.4	265.1
1042.4485	3142.8004	1141.65	260.95
1042.5542	3143.7735	1147	259.95
1042.6599	3144.7459	1148.15	266.55
1042.7656	3145.7178	1143.1	262.95
1042.8712	3146.689	1136.75	257.2
1042.9768	3147.6596	1136.15	256.5
1043.0823	3148.6295	1139.25	258.95
1043.1878	3149.5989	1129.95	252.45
1043.2932	3150.5676	1125.4	246.85
1043.3986	3151.5357	1127.45	250.15
1043.5039	3152.5032	1127.75	248.3
1043.6092	3153.4701	1122.2	241.25
1043.7145	3154.4364	1127.9	247.75
1043.8197	3155.402	1115.1	237.05
1043.9248	3156.367	1122.95	241.2
1044.03	3157.3315	1144.55	238.55
1044.135	3158.2952	1114.2	234.5
1044.24	3159.2584	1115.95	237.65
1044.345	3160.221	1114.6	234.15
1044.4499	3161.1829	1115.65	233.4
1044.5548	3162.1442	1106.15	224.35
1044.6596	3163.105	1107.35	228.8
1044.7644	3164.065	1106.05	226.5
1044.8692	3165.0245	1108.8	225.2
1044.9739	3165.9834	1102.65	226.35
1045.0785	3166.9416	1103.8	226.3
1045.1831	3167.8993	1098.6	218.95
1045.2877	3168.8563	1099.4	219.4
1045.3922	3169.8127	1097.5	217.7
1045.4966	3170.7684	1097.1	219.05
1045.6011	3171.7236	1096.35	215.4
1045.7054	3172.6782	1093.2	213.75
1045.8098	3173.6321	1092.5	213.75
1045.914	3174.5854	1095.55	210.75
1046.0183	3175.5381	1088.15	209.05
1046.1224	3176.4902	1090.5	210.65
1046.2266	3177.4417	1086.95	207.75
1046.3307	3178.3926	1084.9	205.3
1046.4347	3179.3428	1086.4	207.7
1046.5387	3180.2924	1088.15	209.4
1046.6427	3181.2415	1086.6	207
1046.7466	3182.1899	1087.2	207.9
1046.8504	3183.1377	1078.05	198.8
1046.9542	3184.0848	1087.15	204.4
1047.058	3185.0314	1081.5	201.05
1047.1617	3185.9773	1078.55	199.3
1047.2654	3186.9227	1076	195.7
1047.369	3187.8674	1075.6	194.9
1047.4726	3188.8115	1077.45	195.35
1047.5761	3189.755	1077.45	197.8
1047.6796	3190.6979	1072.1	192.75
1047.783	3191.6402	1070.7	192.75
1047.8864	3192.5818	1071.7	191.45
1047.9898	3193.5229	1077.2	184.5
1048.0931	3194.4633	1070.7	192.85
1048.1963	3195.4031	1071.6	191.75
1048.2995	3196.3423	1067.65	190.6
1048.4027	3197.2809	1068	186.45
1048.5058	3198.2189	1066.55	188
1048.6089	3199.1563	1067.15	179.35
1048.7119	3200.0931	1062.7	182.8
1048.8148	3201.0292	1063.25	185.6
1048.9178	3201.9648	1061.85	184.05
1049.0206	3202.8997	1062.8	181.1
1049.1235	3203.834	1057.5	181.75
1049.2262	3204.7677	1057.65	178.2
1049.329	3205.7008	1056.85	177.35
1049.4317	3206.6333	1055.95	177.25
1049.5343	3207.5652	1053.5	172.6
1049.6369	3208.4964	1054.05	173.85
1049.7394	3209.4271	1054.7	176.75
1049.8419	3210.3571	1051.6	173.4
1049.9444	3211.2865	1053.25	174
1050.0468	3212.2154	1051.75	170.8
1050.1491	3213.1436	1052.7	172.1
1050.2514	3214.0712	1055.85	169.8
1050.3537	3214.9982	1050.7	170.9
1050.4559	3215.9246	1045.05	164.55
1050.5581	3216.8503	1044.2	168.2
1050.6602	3217.7755	1045.1	164.65
1050.7623	3218.7001	1044.45	165.6
1050.8643	3219.624	1046.05	166.5
1050.9663	3220.5473	1041.95	163.05
1051.0682	3221.4701	1044.7	163.45
1051.1701	3222.3922	1041.35	162.1
1051.2719	3223.3137	1040.3	162.45
1051.3737	3224.2346	1039.8	160.9
1051.4754	3225.1549	1039.55	161.45
1051.5771	3226.0746	1037.25	159.7
1051.6788	3226.9937	1038.85	158.85
1051.7804	3227.9121	1031.05	151
1051.8819	3228.83	1038.6	159.75
1051.9834	3229.7473	1036.7	157.65
1052.0849	3230.6639	1035.65	156.25
1052.1863	3231.5799	1031.4	154.3
1052.2876	3232.4954	1031.65	152.8
1052.3889	3233.4102	1037.25	160.4
1052.4902	3234.3244	1034.35	155.45
1052.5914	3235.238	1028.8	149.5
1052.6926	3236.151	1054.75	150.8
1052.7937	3237.0634	1028.1	152.35
1052.8948	3237.9752	1030.2	150.8
1052.9958	3238.8864	1027.7	149.25
1053.0968	3239.797	1026	148.55
1053.1977	3240.7069	1024	145.9
1053.2986	3241.6163	1026.1	146
1053.3994	3242.5251	1024.45	146.15
1053.5002	3243.4332	1026	147.5
1053.6009	3244.3408	1024.7	144.45
1053.7016	3245.2477	1021.3	142.9
1053.8022	3246.154	1020.8	140.85
1053.9028	3247.0598	1016.05	136.55
1054.0034	3247.9649	1016.15	138.35
1054.1039	3248.8694	1012.65	133.8
1054.2043	3249.7733	1011.05	133.8
1054.3047	3250.6766	1013.55	136.95
1054.4051	3251.5793	1011.45	130.9
1054.5054	3252.4814	1012.95	134.75
1054.6056	3253.3829	1008.7	129.05
1054.7058	3254.2838	1011.4	134.05
1054.806	3255.1841	1009.2	131.6
1054.9061	3256.0838	1006.6	126.85
1055.0061	3256.9829	1004.1	125.7
1055.1062	3257.8814	1010.35	128.8
1055.2061	3258.7792	1009.15	127.5
1055.306	3259.6765	1005.5	127.45
1055.4059	3260.5731	998.7	120.4
1055.5057	3261.4692	1002.1	122.4
1055.6055	3262.3647	998.2	119.35
1055.7052	3263.2595	997.45	118.7
1055.8049	3264.1538	996.9	116.9
1055.9045	3265.0474	992.35	112.8
1056.0041	3265.9404	990	113.1
1056.1036	3266.8329	989.15	110.95
1056.2031	3267.7247	1001.5	111.75
1056.3025	3268.616	983.05	105.95
1056.4019	3269.5066	983.2	103.75
1056.5013	3270.3966	983.95	104.6
1056.6005	3271.286	977.5	101.5
