Software Version:	3.9.2.0
Unit SN:	10000200
Spectrometer SN:	6960
Date:	3/26/2024 2:41:13 PM
Data Line Index:	25
Spectral Points:	2048
Integration time (ms):	125
Averages:	20
Delay (ms):	30000
Sequence Number:	1
Processing:	dark subtract
Laser Power (mW):	300
Laser Current (mA):	821
Laser Diode Temp (C):	25
Laser Case Temp (C):	27.9
System Temp (C):	28
Spectrometer Temp (C):	25.9
CCD Temp (C):	0.002
Secondary Temp (C):	20.007
Heatsink Temp (C):	23.329
CCDPCB Temp (C):	37.563
SecondaryPCB Temp (C):	34.917

Wavelength	RamanShift	Raw Counts	Dark Subtracted
787.061	30.1047	637.95	226.35
787.2016	32.3739	653.2	245.2
787.3422	34.6426	667.45	257.4
787.4828	36.9109	685.95	272.3
787.6235	39.1787	708.65	291.75
787.7642	41.4461	737.5	315.95
787.9049	43.7131	755	329.6
788.0456	45.9796	778.35	350.5
788.1863	48.2456	803.75	371.35
788.3271	50.5112	835.7	397.55
788.4679	52.7764	854.35	416.4
788.6087	55.0411	888.35	445.05
788.7496	57.3054	915.6	468.7
788.8904	59.5692	953.8	503.1
789.0313	61.8326	992.65	538.35
789.1722	64.0955	1022.95	565.2
789.3132	66.3579	1076.1	614.1
789.4541	68.6199	1136.75	672.8
789.5951	70.8815	1226.3	758.1
789.7361	73.1426	1430.15	959.05
789.8771	75.4032	1938.65	1461.45
790.0181	77.6634	3220.1	2736.7
790.1592	79.9231	6404.25	5910.05
790.3003	82.1824	13716.6	13206.85
790.4414	84.4412	30581.45	30036.15
790.5825	86.6995	58129.75	57537.85
790.7237	88.9574	65512.05	64877.6
790.8648	91.2148	65535	64869.45
791.006	93.4717	65535	64846.25
791.1472	95.7282	65535	64838.4
791.2885	97.9842	65535	64837.4
791.4297	100.2398	65535	64829.9
791.571	102.4949	65535	64825.7
791.7123	104.7495	65535	64828.6
791.8536	107.0036	65535	64827.15
791.9949	109.2573	65535	64827.15
792.1363	111.5105	65535	64822.45
792.2777	113.7632	65535	64822.85
792.4191	116.0154	65535	64813.1
792.5605	118.2672	65535	64818.6
792.7019	120.5185	65535	64819.4
792.8434	122.7693	65535	64816.65
792.9849	125.0197	65535	64810.7
793.1264	127.2696	65535	64809.1
793.2679	129.519	65535	64804.65
793.4094	131.7679	65535	64803.3
793.551	134.0163	65535	64796.05
793.6926	136.2642	65535	64789.75
793.8342	138.5117	65535	64787.75
793.9758	140.7587	65535	64793.5
794.1175	143.0052	65535	64785
794.2591	145.2512	65535	64791.35
794.4008	147.4967	65535	64791.3
794.5425	149.7417	65535	64786.55
794.6842	151.9863	65535	64782.95
794.826	154.2304	65535	64779.7
794.9677	156.4739	65535	64771.5
795.1095	158.717	65535	64773.45
795.2513	160.9596	65535	64768
795.3931	163.2017	65535	64765.7
795.535	165.4433	65535	64765.55
795.6768	167.6844	65535	64763.75
795.8187	169.925	65535	64762.55
795.9606	172.1651	65535	64759.9
796.1025	174.4047	65535	64754.4
796.2445	176.6439	65535	64756.6
796.3864	178.8825	65535	64754
796.5284	181.1206	65535	64748.1
796.6704	183.3582	65535	64742.7
796.8124	185.5954	65535	64743
796.9544	187.832	65535	64739.5
797.0965	190.0681	65535	64731.65
797.2386	192.3037	65535	64730.55
797.3806	194.5388	65535	64732.7
797.5228	196.7734	65535	64721.45
797.6649	199.0075	65535	64722.75
797.807	201.2411	65535	64717.1
797.9492	203.4742	65535	64724.65
798.0914	205.7068	65535	64715.75
798.2336	207.9389	65535	64720.25
798.3758	210.1704	65535	64712.45
798.518	212.4015	65535	64709.6
798.6603	214.632	65535	64715.35
798.8025	216.862	65535	64720.75
798.9448	219.0915	65535	64727.55
799.0871	221.3205	65535	64728
799.2294	223.549	65535	64734.1
799.3718	225.777	65535	64737.25
799.5141	228.0044	65535	64733.15
799.6565	230.2314	65535	64733.2
799.7989	232.4578	65535	64738.1
799.9413	234.6837	65535	64725.65
800.0837	236.909	65535	64725
800.2262	239.1339	65535	64700.5
800.3687	241.3582	65535	64714.45
800.5111	243.582	65535	64686.95
800.6536	245.8053	65535	64696.75
800.7961	248.0281	65535	64701.65
800.9387	250.2503	65535	64695.1
801.0812	252.472	65535	64691.8
801.2238	254.6932	65535	64693.85
801.3664	256.9139	65535	64691.2
801.509	259.134	65535	64686.4
801.6516	261.3536	65535	64681.3
801.7942	263.5727	65535	64685.4
801.9369	265.7912	65535	64685.95
802.0795	268.0092	65535	64686.8
802.2222	270.2267	65535	64685.7
802.3649	272.4436	65535	64686.9
802.5076	274.6601	65535	64678.3
802.6504	276.8759	65535	64683.05
802.7931	279.0913	65535	64679.85
802.9359	281.3061	65535	64677.65
803.0787	283.5204	65535	64678.5
803.2215	285.7341	65535	64673.25
803.3643	287.9473	65535	64660.35
803.5071	290.16	65535	64664.4
803.6499	292.3721	65535	64675.45
803.7928	294.5837	65535	64671.5
803.9357	296.7947	65535	64670
804.0786	299.0052	65535	64668.9
804.2215	301.2152	65535	64670.5
804.3644	303.4246	65535	64677.3
804.5074	305.6334	65535	64677.8
804.6503	307.8418	65535	64673.6
804.7933	310.0495	65535	64669.1
804.9363	312.2568	65535	64667.55
805.0793	314.4635	65535	64665.75
805.2223	316.6696	65535	64666.85
805.3653	318.8752	65535	64658.45
805.5084	321.0802	65535	64666.85
805.6514	323.2847	65535	64657.8
805.7945	325.4887	65535	64664.2
805.9376	327.692	65535	64663.15
806.0807	329.8949	65535	64660.45
806.2238	332.0972	65535	64660.15
806.367	334.2989	65535	64650.35
806.5101	336.5001	65535	64655.6
806.6533	338.7007	65535	64650.95
806.7965	340.9008	65535	64646.75
806.9397	343.1003	65535	64649.7
807.0829	345.2992	65535	64647.95
807.2261	347.4976	65535	64653.7
807.3693	349.6955	65535	64646.1
807.5126	351.8927	65535	64645.6
807.6559	354.0895	65535	64635.3
807.7991	356.2856	65535	64649.1
807.9424	358.4812	65535	64645.95
808.0857	360.6763	65535	64642.85
808.2291	362.8707	65535	64641.1
808.3724	365.0646	65535	64640
808.5158	367.258	65535	64637.2
808.6591	369.4508	65535	64633.6
808.8025	371.643	65535	64633.45
808.9459	373.8346	65535	64633.9
809.0893	376.0257	65535	64630
809.2327	378.2162	65535	64635.4
809.3762	380.4062	65535	64628.25
809.5196	382.5956	65535	64629.5
809.6631	384.7844	65535	64631.7
809.8066	386.9726	65535	64630.7
809.9501	389.1603	65535	64634.05
810.0936	391.3474	65535	64593.65
810.2371	393.5339	65535	64634.85
810.3806	395.7199	65535	64641.2
810.5241	397.9052	65535	64638.95
810.6677	400.09	65535	64647.85
810.8113	402.2743	65535	64645.85
810.9548	404.4579	65535	64642.4
811.0984	406.641	65535	64643.25
811.2421	408.8235	65535	64639.65
811.3857	411.0054	65535	64639.1
811.5293	413.1868	65535	64635.4
811.673	415.3675	65535	64633.1
811.8166	417.5477	65535	64632.75
811.9603	419.7273	65535	64632.7
812.104	421.9064	65535	64626.1
812.2477	424.0848	65535	64630.7
812.3914	426.2627	65535	64627.45
812.5351	428.4399	65535	64625.15
812.6788	430.6166	65535	64625.65
812.8226	432.7928	65535	64621.35
812.9663	434.9683	65535	64627.5
813.1101	437.1432	65535	64627.5
813.2539	439.3176	65535	64628.75
813.3977	441.4914	65535	64627.45
813.5415	443.6645	65535	64629.7
813.6853	445.8371	65535	64625.2
813.8291	448.0091	65535	64625.75
813.973	450.1806	65535	64628.7
814.1168	452.3514	65535	64628.65
814.2607	454.5216	65535	64621.7
814.4046	456.6913	65535	64620.75
814.5485	458.8603	65535	64626.5
814.6924	461.0288	65535	64629.2
814.8363	463.1967	65535	64634.65
814.9802	465.3639	65535	64626.4
815.1241	467.5306	65535	64625.55
815.2681	469.6967	65535	64628.5
815.412	471.8622	65535	64634.25
815.556	474.0271	65535	64627.55
815.7	476.1914	65535	64617.35
815.844	478.3551	65535	64626.65
815.988	480.5182	65535	64624
816.132	482.6807	65535	64631.9
816.276	484.8426	65535	64642.5
816.4201	487.0039	65535	64634.55
816.5641	489.1647	65535	64626
816.7082	491.3248	65535	64620.25
816.8522	493.4843	65535	64624.2
816.9963	495.6432	65535	64630.1
817.1404	497.8015	65535	64618.6
817.2845	499.9592	65535	64614.7
817.4286	502.1163	65535	64615.05
817.5727	504.2728	65535	64627.15
817.7168	506.4287	65535	64632.3
817.861	508.5839	65535	64630.2
818.0051	510.7386	65535	64625.05
818.1493	512.8927	65535	64612.55
818.2935	515.0461	65535	64619
818.4377	517.199	65535	64616.2
818.5818	519.3512	65535	64613.55
818.726	521.5029	65535	64611.15
818.8703	523.6539	65535	64617.4
819.0145	525.8043	65535	64613.65
819.1587	527.9541	65535	64615.35
819.303	530.1033	65535	64614.85
819.4472	532.2519	65535	64612.9
819.5915	534.3999	65535	64611.9
819.7357	536.5472	65535	64616.65
819.88	538.694	65535	64617.4
820.0243	540.8401	65535	64612.1
820.1686	542.9856	65535	64609.55
820.3129	545.1305	65535	64604.6
820.4572	547.2748	65535	64600.4
820.6016	549.4185	65535	64597.1
820.7459	551.5615	65535	64604.9
820.8902	553.704	65535	64602.9
821.0346	555.8458	65535	64605
821.1789	557.987	65535	64606.1
821.3233	560.1276	65535	64604.75
821.4677	562.2675	65535	64605.1
821.6121	564.4069	65535	64605.95
821.7565	566.5456	65535	64608.8
821.9009	568.6837	65535	64614
822.0453	570.8212	65535	64608.5
822.1897	572.958	65535	64607.4
822.3342	575.0942	65535	64614.05
822.4786	577.2299	65535	64618.85
822.6231	579.3648	65535	64622.65
822.7675	581.4992	65535	64630
822.912	583.6329	65535	64631.95
823.0565	585.766	65535	64627.65
823.201	587.8985	65535	64622
823.3454	590.0304	65535	64590.1
823.4899	592.1616	65535	64607.35
823.6345	594.2922	65535	64604.8
823.779	596.4222	65535	64606.15
823.9235	598.5515	65535	64602.25
824.068	600.6802	65535	64605.5
824.2126	602.8083	65535	64606.85
824.3571	604.9358	65535	64600.45
824.5017	607.0626	65535	64602.7
824.6462	609.1888	65535	64600.15
824.7908	611.3144	65535	64592.7
824.9354	613.4393	65535	64595.65
825.08	615.5636	65535	64601.6
825.2246	617.6873	65535	64598.5
825.3692	619.8103	65535	64598.35
825.5138	621.9327	65535	64598.55
825.6584	624.0544	65535	64605.2
825.803	626.1756	65535	64610.8
825.9477	628.2961	65535	64601.3
826.0923	630.4159	65535	64601.2
826.237	632.5351	65535	64601.6
826.3816	634.6537	65535	64600.95
826.5263	636.7716	65535	64598
826.6709	638.8889	65535	64591.35
826.8156	641.0056	65535	64587.8
826.9603	643.1216	65535	64593.15
827.105	645.237	65535	64596.3
827.2497	647.3518	65535	64603.95
827.3944	649.4659	65535	64605.9
827.5391	651.5793	65535	64608.85
827.6838	653.6922	65535	64603.1
827.8285	655.8043	65535	64603.4
827.9733	657.9159	65535	64602.5
828.118	660.0268	65535	64599.35
828.2627	662.137	65535	64599.4
828.4075	664.2466	65535	64594.7
828.5522	666.3556	65535	64593.6
828.697	668.4639	65535	64600.1
828.8418	670.5716	65535	64604.5
828.9865	672.6786	65535	64597.7
829.1313	674.785	65535	64593.8
829.2761	676.8907	65535	64593.6
829.4209	678.9958	65535	64596.45
829.5657	681.1002	65535	64600.3
829.7105	683.204	65535	64590.05
829.8553	685.3072	65533.7	64589.45
830.0001	687.4097	65535	64593
830.1449	689.5115	65531.3	64588.6
830.2898	691.6127	65535	64595.85
830.4346	693.7132	65531.3	64592.7
830.5794	695.8131	65530.75	64581.55
830.7243	697.9123	65535	64587.25
830.8691	700.0109	65534.3	64592
831.014	702.1089	65520.5	64580.9
831.1588	704.2061	65525.65	64584
831.3037	706.3028	65527.95	64585.7
831.4486	708.3987	65531.35	64584.5
831.5935	710.4941	65524.4	64585.7
831.7383	712.5887	65535	64594.35
831.8832	714.6827	65529.25	64585.7
832.0281	716.7761	65535	64597.85
832.173	718.8688	65535	64594.6
832.3179	720.9608	65535	64585.1
832.4628	723.0522	65534.95	64580.35
832.6077	725.1429	65525.95	64581.2
832.7527	727.233	65535	64589.55
832.8976	729.3224	65449.85	64505.75
833.0425	731.4112	65512.3	64564.85
833.1874	733.4993	65512	64571.4
833.3324	735.5867	65516.2	64574.6
833.4773	737.6735	65454	64508.35
833.6222	739.7596	65408.1	64461.7
833.7672	741.845	65410.7	64466.25
833.9122	743.9298	65508.65	64561.2
834.0571	746.014	65413.45	64466.7
834.2021	748.0974	65333.65	64380.95
834.347	750.1802	65471.65	64522.15
834.492	752.2624	65319.5	64371.65
834.637	754.3439	65342.8	64390.05
834.782	756.4247	65384.95	64426.4
834.9269	758.5048	65288.9	64339.85
835.0719	760.5843	65352.05	64404.8
835.2169	762.6631	65407.1	64455.45
835.3619	764.7413	65375.85	64426.2
835.5069	766.8188	65402.45	64453.5
835.6519	768.8956	65472.95	64523.05
835.7969	770.9718	65467.3	64523.2
835.9419	773.0473	65444.85	64494.95
836.0869	775.1221	65319.75	64368.8
836.232	777.1962	65273.35	64322.25
836.377	779.2697	65102.05	64150.1
836.522	781.3426	65253.1	64287.75
836.667	783.4147	65319.65	64364.9
836.8121	785.4862	65300.4	64351.3
836.9571	787.557	65138.8	64184.15
837.1021	789.6271	65282.15	64328.5
837.2472	791.6966	65089.3	64138.85
837.3922	793.7654	64850.55	63898.45
837.5373	795.8335	64857.05	63908.2
837.6823	797.901	64920.25	63968.95
837.8274	799.9678	64774.05	63820.7
837.9724	802.0339	64700.35	63749.85
838.1175	804.0993	64771.45	63810.4
838.2626	806.1641	64650.7	63699.5
838.4076	808.2282	64572.35	63621.85
838.5527	810.2916	64418.9	63467.75
838.6978	812.3544	64650	63703.8
838.8428	814.4164	64223.85	63275.5
838.9879	816.4778	64255.85	63302.45
839.133	818.5385	64319	63366.6
839.2781	820.5986	64256	63305.3
839.4232	822.658	64277.65	63325.3
839.5682	824.7166	64281.75	63330.9
839.7133	826.7747	63898.75	62950.2
839.8584	828.832	64043.25	63092.4
840.0035	830.8886	64315.45	63360.3
840.1486	832.9446	64341.75	63384.15
840.2937	834.9999	63556.5	62602.95
840.4388	837.0545	64032.25	63075.65
840.5839	839.1085	64299.75	63344.55
840.729	841.1618	64109.7	63156.35
840.8741	843.2143	63539.7	62585.7
841.0192	845.2662	63541.5	62593.2
841.1643	847.3175	63765.15	62812.9
841.3095	849.368	62907.9	61953.7
841.4546	851.4179	63561.05	62611.1
841.5997	853.467	63013.2	62059.6
841.7448	855.5155	63231.85	62277.85
841.8899	857.5633	62697.9	61744.3
842.0351	859.6105	62386.05	61431.15
842.1802	861.6569	62685.05	61730.75
842.3253	863.7027	62015.8	61060.35
842.4704	865.7478	62314.25	61360.8
842.6156	867.7922	62096.65	61144.15
842.7607	869.8359	62457.3	61500.85
842.9058	871.8789	61730	60769.6
843.0509	873.9212	62238.9	61250
843.1961	875.9629	62338	61381
843.3412	878.0039	62217.95	61261.8
843.4863	880.0441	61988.35	61036.65
843.6315	882.0837	61925.4	60972.2
843.7766	884.1226	61847.85	60892.05
843.9218	886.1609	61677.5	60725.3
844.0669	888.1984	61313.15	60356.75
844.212	890.2352	61737.35	60785.3
844.3572	892.2714	60969.65	60007.55
844.5023	894.3069	61249.25	60294.45
844.6475	896.3416	60922.7	59965.9
844.7926	898.3757	60798.65	59844.2
844.9377	900.4091	60037.8	59082.4
845.0829	902.4418	61029.9	60066.8
845.228	904.4739	60407	59449.5
845.3732	906.5052	60491.7	59530.1
845.5183	908.5358	60043.4	59087.6
845.6635	910.5658	59756.45	58799.25
845.8086	912.595	59678.45	58720.65
845.9538	914.6236	58905	57947.3
846.0989	916.6515	59987.45	59028.85
846.2441	918.6786	58765.45	57803.9
846.3892	920.7051	59024.25	58067.25
846.5344	922.7309	58920	57962.75
846.6795	924.756	59112.35	58153.9
846.8246	926.7804	58775.5	57817.4
846.9698	928.8041	58069.95	57109.1
847.1149	930.8272	58514.4	57557.5
847.2601	932.8495	58417.35	57458
847.4052	934.8711	57793.4	56836.25
847.5504	936.892	57403.3	56445.7
847.6955	938.9123	57455.15	56496.7
847.8407	940.9318	56986.7	56031.35
847.9858	942.9506	56760.25	55800.25
848.131	944.9688	56732.65	55776.05
848.2761	946.9862	55874.85	54921.75
848.4213	949.003	56140.4	55182.15
848.5664	951.019	55462.6	54507.3
848.7115	953.0344	55561.65	54603.8
848.8567	955.0491	55498.2	54540.95
849.0018	957.063	55678.55	54723.2
849.147	959.0763	55739.65	54777.5
849.2921	961.0888	55326.05	54369.3
849.4373	963.1007	55601.15	54648.25
849.5824	965.1119	55484.55	54537.6
849.7275	967.1223	55165.1	54223.45
849.8727	969.1321	55483.05	54540.2
850.0178	971.1412	54932	53986.95
850.1629	973.1495	54654.9	53703.1
850.3081	975.1572	54901.7	53914.6
850.4532	977.1641	54685.2	53729.65
850.5983	979.1704	54495.4	53540.6
850.7435	981.1759	54411	53452
850.8886	983.1808	54206.65	53253.3
851.0337	985.1849	54226.95	53261.9
851.1788	987.1884	54315.35	53361.75
851.324	989.1911	54675.95	53721.4
851.4691	991.1932	54038.45	53084.9
851.6142	993.1945	54137	53180.3
851.7593	995.1951	54160.35	53207.65
851.9045	997.1951	53706.1	52748.5
852.0496	999.1943	53418.55	52466.2
852.1947	1001.1928	53140.85	52186.85
852.3398	1003.1906	53124.65	52170.35
852.4849	1005.1877	52733.95	51774.55
852.63	1007.1841	52401	51448.85
852.7751	1009.1798	52261.65	51306.9
852.9202	1011.1748	51877	50927.45
853.0653	1013.1691	51554.65	50598.05
853.2104	1015.1627	50912.05	49960.85
853.3555	1017.1556	50499.9	49549.55
853.5006	1019.1477	50478	49527
853.6457	1021.1392	50054.45	49110.4
853.7908	1023.1299	49693.3	48755.65
853.9359	1025.12	49669.85	48731
854.081	1027.1093	49409.7	48480.55
854.2261	1029.0979	49338.55	48409.15
854.3712	1031.0859	49182.8	48250.1
854.5163	1033.0731	48906	47961.55
854.6613	1035.0596	48746.5	47801.55
854.8064	1037.0454	48419.75	47474.65
854.9515	1039.0304	48119.4	47172.7
855.0965	1041.0148	47766	46815.8
855.2416	1042.9985	47511.25	46561.9
855.3867	1044.9814	47505.05	46554.7
855.5317	1046.9636	47232.55	46284.45
855.6768	1048.9452	47056.8	46109.95
855.8219	1050.926	46915.95	45967.45
855.9669	1052.9061	46745.7	45792.9
856.112	1054.8855	46619	45667
856.257	1056.8642	46447	45496.85
856.4021	1058.8421	46462.55	45509.35
856.5471	1060.8194	46298.6	45347.85
856.6921	1062.7959	46116.55	45167.85
856.8372	1064.7717	46037.15	45085.7
856.9822	1066.7469	45982.4	45032
857.1272	1068.7213	45747.15	44795.05
857.2723	1070.695	45593.4	44644.25
857.4173	1072.6679	45297.2	44346.8
857.5623	1074.6402	45146.5	44192.3
857.7073	1076.6117	45093.15	44137.45
857.8523	1078.5826	45039.35	44087.75
857.9973	1080.5527	44928.95	43974.75
858.1423	1082.5221	44908.75	43957.6
858.2873	1084.4908	45119.25	44169.05
858.4323	1086.4587	45187.95	44238.05
858.5773	1088.426	45315	44361.65
858.7223	1090.3925	45011.45	44056.55
858.8673	1092.3584	44859.95	43909.8
859.0123	1094.3235	44428.55	43478.9
859.1573	1096.2879	44232	43281.5
859.3022	1098.2515	44053.15	43103.95
859.4472	1100.2145	44011.2	43061.75
859.5922	1102.1767	43922.35	42971.9
859.7371	1104.1382	43898.7	42949.05
859.8821	1106.099	43963.25	43009.3
860.027	1108.0591	43997.3	43048.05
860.172	1110.0185	44011.8	43061.4
860.3169	1111.9771	43983.95	43037
860.4619	1113.9351	43523.7	42576.3
860.6068	1115.8923	43003.7	42058.2
860.7517	1117.8488	42515.2	41563.7
860.8967	1119.8045	42047.45	41101.9
861.0416	1121.7596	41866.15	40917.85
861.1865	1123.7139	41607.5	40662.9
861.3314	1125.6675	41527.15	40580.95
861.4763	1127.6204	41601.9	40653.75
861.6212	1129.5726	41437.5	40486.05
861.7661	1131.524	41324.9	40375.65
861.911	1133.4748	41376.35	40426
862.0559	1135.4248	41193.8	40244.05
862.2008	1137.3741	41192.65	40244.1
862.3457	1139.3226	41029.4	40077.75
862.4905	1141.2705	40933.1	39986.75
862.6354	1143.2176	40661.65	39702.9
862.7803	1145.164	40608.1	39656.25
862.9251	1147.1097	40506.55	39558.55
863.07	1149.0546	40452.8	39500.9
863.2148	1150.9989	40284.1	39335.9
863.3597	1152.9424	40086.5	39135.8
863.5045	1154.8852	39782.2	38832.25
863.6493	1156.8272	39537.05	38591.9
863.7942	1158.7686	39428.15	38470.85
863.939	1160.7092	39235.25	38285.55
864.0838	1162.6491	39036.45	38086.4
864.2286	1164.5883	39062.7	38115.65
864.3734	1166.5267	38987.75	38037.2
864.5182	1168.4644	39062	38111.55
864.663	1170.4014	39105.7	38156.85
864.8078	1172.3377	39345.75	38400.95
864.9526	1174.2732	39469	38522.6
865.0974	1176.2081	39584.6	38637.15
865.2421	1178.1421	39595.2	38641.8
865.3869	1180.0755	39688.75	38745.05
865.5317	1182.0082	39461.15	38518.55
865.6764	1183.9401	39384.05	38440
865.8212	1185.8713	38997.5	38059.9
865.9659	1187.8017	38669.55	37733
866.1106	1189.7315	38387.05	37460.1
866.2554	1191.6605	37864.45	36934.75
866.4001	1193.5888	37593.95	36659.4
866.5448	1195.5163	37390	36451.3
866.6895	1197.4432	37194.45	36253.05
866.8342	1199.3693	36986.75	36044.15
866.9789	1201.2947	36803.05	35855.8
867.1236	1203.2193	36620.2	35674.9
867.2683	1205.1432	36584.1	35637.4
867.413	1207.0664	36497.75	35552.9
867.5576	1208.9889	36483	35537.45
867.7023	1210.9106	36388.7	35448.3
867.847	1212.8316	36309.55	35367.85
867.9916	1214.7519	36373.2	35420.1
868.1363	1216.6715	36204.35	35259.7
868.2809	1218.5903	36133.15	35188.9
868.4255	1220.5084	35888.4	34945.65
868.5701	1222.4257	35878	34934.1
868.7148	1224.3424	35576.4	34637.45
868.8594	1226.2583	35594.8	34647.75
869.004	1228.1735	35551.25	34607.7
869.1486	1230.0879	35537.15	34595.6
869.2932	1232.0016	35584.3	34639.95
869.4377	1233.9146	35520.75	34576.3
869.5823	1235.8269	35267.3	34324.05
869.7269	1237.7384	35119.2	34176.5
869.8715	1239.6492	34738.35	33795.1
870.016	1241.5592	34582.6	33639.8
870.1606	1243.4686	34376.7	33435.85
870.3051	1245.3772	34260.45	33317.1
870.4496	1247.285	34030	33087.65
870.5941	1249.1922	33878.75	32934.75
870.7387	1251.0986	33847.55	32907.05
870.8832	1253.0042	33666.95	32724.75
871.0277	1254.9092	33648.1	32709.5
871.1722	1256.8134	33658.95	32721.25
871.3167	1258.7169	33777.7	32839.5
871.4611	1260.6196	33816.2	32876.55
871.6056	1262.5216	33911.55	32965.65
871.7501	1264.4229	33992.7	33050.05
871.8945	1266.3234	34048	33106.85
872.039	1268.2232	34040.9	33098
872.1834	1270.1223	33871.3	32929.75
872.3278	1272.0207	33847.1	32905.65
872.4723	1273.9183	33707.15	32758.7
872.6167	1275.8151	33509.6	32567.95
872.7611	1277.7113	33341.65	32398.9
872.9055	1279.6067	33077.65	32139
873.0499	1281.5014	32770.35	31826.1
873.1943	1283.3953	32592.8	31649.55
873.3386	1285.2885	32424.9	31482.95
873.483	1287.181	32278.7	31340.4
873.6274	1289.0727	32320.65	31382.3
873.7717	1290.9637	32173.6	31236.55
873.9161	1292.854	32300.2	31361.35
874.0604	1294.7435	32340.85	31399.45
874.2047	1296.6323	32476.15	31537.05
874.349	1298.5204	32721.65	31774.7
874.4933	1300.4077	32869.05	31927.7
874.6376	1302.2943	33001.55	32062.55
874.7819	1304.1802	33061.4	32120.2
874.9262	1306.0653	32897.1	31956.6
875.0705	1307.9497	32723.15	31785.4
875.2147	1309.8333	32545.55	31606.8
875.359	1311.7162	32493.95	31550.9
875.5032	1313.5984	32539.35	31602
875.6475	1315.4798	32606.75	31650.25
875.7917	1317.3605	32734.6	31778.65
875.9359	1319.2405	32848.7	31905.8
876.0801	1321.1197	32825.35	31882.45
876.2243	1322.9982	32700.95	31758
876.3685	1324.876	32660.6	31716.75
876.5127	1326.753	32529.95	31593.2
876.6569	1328.6293	32547.35	31610.55
876.801	1330.5048	32583.1	31641.2
876.9452	1332.3796	32460.65	31519.9
877.0893	1334.2537	32394.15	31428.8
877.2335	1336.127	32222.4	31284.7
877.3776	1337.9996	32129.1	31189.15
877.5217	1339.8714	31981.25	31041.5
877.6658	1341.7426	31877.85	30895
877.8099	1343.6129	31736.3	30795.2
877.954	1345.4826	31590.55	30652.2
878.0981	1347.3515	31473.4	30531.2
878.2422	1349.2196	31331.35	30393.45
878.3862	1351.087	31345.6	30404.5
878.5303	1352.9537	31300.05	30357.75
878.6743	1354.8197	31393.7	30455.75
878.8184	1356.6849	31563.15	30620.3
878.9624	1358.5493	31549.1	30611.45
879.1064	1360.4131	31452.85	30516.25
879.2504	1362.276	31279.15	30341.6
879.3944	1364.1383	31017.95	30080.45
879.5384	1365.9998	30734	29787.6
879.6823	1367.8606	30355	29413.05
879.8263	1369.7206	30040.5	29099.05
879.9702	1371.5799	29802.25	28861
880.1142	1373.4384	29544.8	28607.2
880.2581	1375.2962	29421.9	28479.85
880.402	1377.1533	29055.85	28121.3
880.5459	1379.0096	28679.1	27745.7
880.6898	1380.8652	28364.3	27428.7
880.8337	1382.7201	28024.6	27091.95
880.9776	1384.5742	27693.45	26756.35
881.1215	1386.4275	27500.9	26562.15
881.2653	1388.2802	27324.05	26387.65
881.4092	1390.132	27159.85	26224.45
881.553	1391.9832	27066.4	26128.75
881.6968	1393.8336	26861.4	25923.7
881.8406	1395.6832	26747.05	25805.75
881.9844	1397.5322	26607.05	25668.6
882.1282	1399.3803	26514.45	25571.8
882.272	1401.2278	26350.65	25411.3
882.4158	1403.0745	26317.1	25381.95
882.5595	1404.9204	26131.7	25195.5
882.7033	1406.7656	26142.7	25205.95
882.847	1408.6101	26038.1	25101.3
882.9908	1410.4538	25953.85	25020.75
883.1345	1412.2968	25921	24985.65
883.2782	1414.139	25849.15	24911.35
883.4219	1415.9805	25896.65	24963.1
883.5656	1417.8213	25920.1	24962.7
883.7092	1419.6613	25884	24949.4
883.8529	1421.5006	26056.8	25123
883.9965	1423.3391	26288.35	25352.45
884.1402	1425.1769	26553	25619.2
884.2838	1427.0139	27046.55	26110.4
884.4274	1428.8502	27615.1	26679.6
884.571	1430.6858	28135.95	27199.45
884.7146	1432.5206	28482.5	27547.85
884.8582	1434.3547	28688.55	27753.5
885.0018	1436.188	28641.1	27706.3
885.1453	1438.0206	28571.4	27634
885.2889	1439.8524	28328.9	27395.4
885.4324	1441.6835	28181.4	27243.55
885.5759	1443.5139	28088.9	27153.2
885.7194	1445.3435	27945.55	27012.85
885.8629	1447.1724	27812.3	26879.85
886.0064	1449.0005	27648.85	26715.5
886.1499	1450.8279	27503.25	26570.4
886.2933	1452.6545	27433.25	26497.6
886.4368	1454.4804	27458.4	26526.55
886.5802	1456.3056	27407.25	26468.1
886.7237	1458.13	27230.5	26298.4
886.8671	1459.9536	26969.75	26036.5
887.0105	1461.7766	26600.25	25667.3
887.1539	1463.5987	26033.7	25101.15
887.2972	1465.4202	25607.4	24672.05
887.4406	1467.2409	25216.1	24280.85
887.584	1469.0608	24910.2	23976.9
887.7273	1470.88	24592.8	23659.15
887.8706	1472.6984	24360.2	23426.05
888.0139	1474.5161	24027.6	23091.3
888.1572	1476.3331	23834.85	22900.7
888.3005	1478.1493	23709.85	22778
888.4438	1479.9648	23590.05	22656.8
888.5871	1481.7795	23432.95	22499.95
888.7303	1483.5935	23355.6	22421.5
888.8736	1485.4067	23243.5	22310.6
889.0168	1487.2192	23150.9	22215.4
889.16	1489.031	23069.45	22134.6
889.3032	1490.842	22973.85	22041.45
889.4464	1492.6522	22925.55	21993.3
889.5896	1494.4618	22861.4	21928.75
889.7327	1496.2705	22779	21846.15
889.8759	1498.0785	22736.2	21803.65
890.019	1499.8858	22618.35	21684.35
890.1622	1501.6924	22552.7	21623.4
890.3053	1503.4981	22475.7	21542.7
890.4484	1505.3032	22460.85	21531.4
890.5914	1507.1075	22419	21490.8
890.7345	1508.911	22332.7	21398.4
890.8776	1510.7138	22282.05	21347.15
891.0206	1512.5159	22160.55	21227.5
891.1637	1514.3172	22050.25	21116.9
891.3067	1516.1178	21962.5	21035.1
891.4497	1517.9176	21906.85	20972.6
891.5927	1519.7166	21786.8	20858.5
891.7357	1521.515	21723.35	20788.95
891.8786	1523.3126	21628.5	20696.9
892.0216	1525.1094	21557.45	20626.65
892.1645	1526.9055	21472.6	20543.6
892.3074	1528.7008	21396.3	20467.15
892.4503	1530.4954	21240.75	20306.6
892.5932	1532.2893	21250.65	20324.7
892.7361	1534.0824	21138.2	20208.05
892.879	1535.8747	21114.45	20188.45
893.0218	1537.6663	21025.75	20100.55
893.1647	1539.4572	20973.15	20045.3
893.3075	1541.2473	20910.3	19984.9
893.4503	1543.0367	20822.4	19896.7
893.5931	1544.8253	20750.85	19818.95
893.7359	1546.6132	20729.55	19798.5
893.8787	1548.4003	20647.6	19712.85
894.0214	1550.1867	20618.55	19686.4
894.1642	1551.9723	20573.05	19646
894.3069	1553.7572	20535.7	19614.05
894.4496	1555.5414	20523.65	19600.15
894.5923	1557.3247	20431.25	19509.25
894.735	1559.1074	20442.4	19521.85
894.8777	1560.8893	20468.8	19550.85
895.0204	1562.6705	20469.9	19547.65
895.163	1564.4509	20470.85	19553.3
895.3056	1566.2305	20477.7	19564.2
895.4482	1568.0094	20581.05	19664.25
895.5908	1569.7876	20630.3	19712.05
895.7334	1571.565	20622.1	19701.35
895.876	1573.3417	20649.9	19728.4
896.0186	1575.1176	20613.85	19696.1
896.1611	1576.8928	20561.35	19645.55
896.3036	1578.6672	20416.25	19506.15
896.4461	1580.4409	20261.65	19351.85
896.5886	1582.2138	20039.8	19126.85
896.7311	1583.986	19879.7	18963.85
896.8736	1585.7575	19748.15	18830.5
897.0161	1587.5282	19567.1	18656.8
897.1585	1589.2981	19519.9	18607.95
897.3009	1591.0673	19372.1	18460.8
897.4433	1592.8358	19346.6	18433.45
897.5857	1594.6035	19317.6	18398.95
897.7281	1596.3704	19221.4	18304.7
897.8705	1598.1366	19179.55	18262.85
898.0128	1599.9021	19138	18225.05
898.1551	1601.6668	19096.4	18183
898.2975	1603.4308	19094.85	18175.9
898.4398	1605.194	19151.9	18231.9
898.5821	1606.9564	19168.1	18259.55
898.7243	1608.7182	19240.2	18330.9
898.8666	1610.4791	19264.6	18360.75
899.0088	1612.2394	19378.25	18477.05
899.1511	1613.9988	19505.9	18603.05
899.2933	1615.7576	19676.75	18769.6
899.4355	1617.5156	19922.1	19003.35
899.5776	1619.2728	20153.7	19237.8
899.7198	1621.0293	20310.9	19397
899.862	1622.785	20340.35	19428.4
900.0041	1624.54	20183.7	19277.65
900.1462	1626.2942	19974.25	19065.65
900.2883	1628.0477	19643.15	18731.85
900.4304	1629.8005	19384.3	18470.4
900.5725	1631.5525	19097.25	18188.15
900.7145	1633.3037	18805.1	17899.55
900.8566	1635.0542	18585.35	17678.6
900.9986	1636.804	18421.35	17513.9
901.1406	1638.553	18370.95	17391.85
901.2826	1640.3013	18175.9	17267.45
901.4245	1642.0488	18090.95	17182.25
901.5665	1643.7955	18055.2	17150.65
901.7085	1645.5416	18021.95	17115.8
901.8504	1647.2868	18059.7	17153.6
901.9923	1649.0313	18045.9	17134.4
902.1342	1650.7751	18158.05	17247.25
902.2761	1652.5181	18305.95	17400.25
902.4179	1654.2604	18452.2	17547.45
902.5598	1656.0019	18708.6	17804.8
902.7016	1657.7427	19077.8	18170.75
902.8434	1659.4828	19413.9	18507.7
902.9852	1661.222	19621.4	18711.6
903.127	1662.9606	19637.4	18729.8
903.2687	1664.6984	19449.6	18540.55
903.4105	1666.4354	19107.65	18195.65
903.5522	1668.1717	18661.95	17751
903.6939	1669.9072	18141.55	17229.6
903.8356	1671.642	17713.85	16800
903.9773	1673.3761	17424.6	16516
904.119	1675.1094	17123.6	16215.05
904.2606	1676.8419	16923.95	16014.2
904.4022	1678.5737	16746.15	15837.8
904.5439	1680.3048	16596.15	15685.35
904.6855	1682.0351	16454.6	15545.9
904.827	1683.7646	16332.3	15418.9
904.9686	1685.4934	16264.4	15355.55
905.1101	1687.2215	16183.9	15277.9
905.2517	1688.9488	16069.1	15164.85
905.3932	1690.6754	15988.8	15084.95
905.5347	1692.4012	15930.9	15024.6
905.6761	1694.1263	15887.5	14980.2
905.8176	1695.8506	15831.55	14923.7
905.9591	1697.5742	15755.45	14850.75
906.1005	1699.297	15665.95	14764.65
906.2419	1701.0191	15585.8	14683.75
906.3833	1702.7404	15519.45	14618.3
906.5246	1704.461	15417	14513.1
906.666	1706.1808	15360.3	14455.3
906.8073	1707.8999	15303.75	14401.05
906.9487	1709.6182	15255.5	14355.55
907.09	1711.3358	15239.6	14338.9
907.2313	1713.0527	15188.75	14291.85
907.3725	1714.7688	15119.45	14213.9
907.5138	1716.4841	15040.45	14135.25
907.655	1718.1987	15035.9	14127.4
907.7962	1719.9126	14931.5	14028.85
907.9374	1721.6257	14879.2	13979.4
908.0786	1723.338	14844.8	13944.45
908.2198	1725.0496	14734.5	13835.3
908.3609	1726.7605	14714.25	13811.65
908.502	1728.4706	14674.75	13772.4
908.6431	1730.18	14580.2	13676.25
908.7842	1731.8886	14519.55	13619.3
908.9253	1733.5964	14537.05	13618.8
909.0664	1735.3036	14465.2	13563.7
909.2074	1737.0099	14472.75	13571.9
909.3484	1738.7156	14421.6	13523.25
909.4894	1740.4204	14333.75	13432.55
909.6304	1742.1246	14328.35	13425.85
909.7714	1743.8279	14263.95	13365.3
909.9123	1745.5306	14254.7	13354.5
910.0532	1747.2325	14192.3	13296.1
910.1941	1748.9336	14130	13231.6
910.335	1750.634	14098.1	13195.05
910.4759	1752.3336	14076.25	13178.45
910.6168	1754.0325	14003.35	13106.1
910.7576	1755.7307	14010.4	13115.8
910.8984	1757.4281	13999.05	13099.5
911.0392	1759.1247	13975.9	13068
911.18	1760.8206	13905.5	12999.8
911.3208	1762.5158	13894.75	12992
911.4615	1764.2102	13815.3	12915.15
911.6022	1765.9039	13774.05	12877.5
911.7429	1767.5968	13738.55	12842.65
911.8836	1769.289	13710.65	12815.9
912.0243	1770.9804	13660.65	12761.45
912.1649	1772.6711	13663.35	12761.8
912.3056	1774.361	13620.9	12718.75
912.4462	1776.0502	13596.1	12693.6
912.5868	1777.7386	13561.95	12658.7
912.7274	1779.4263	13490.6	12593.65
912.8679	1781.1132	13479.05	12585.15
913.0084	1782.7994	13422	12526.8
913.149	1784.4849	13388.85	12495.1
913.2895	1786.1696	13360.05	12459.7
913.4299	1787.8535	13304.4	12408.9
913.5704	1789.5367	13305.75	12412.6
913.7108	1791.2192	13263.55	12368.65
913.8513	1792.9009	13222.8	12297.45
913.9917	1794.5818	13190.85	12289.55
914.132	1796.2621	13157.9	12260.45
914.2724	1797.9415	13122.2	12223.05
914.4128	1799.6202	13052	12153.8
914.5531	1801.2982	13060.2	12163.25
914.6934	1802.9755	13030.5	12131.65
914.8337	1804.6519	13003.1	12103.8
914.9739	1806.3277	12924.45	12028.6
915.1142	1808.0027	12885.75	11993.95
915.2544	1809.6769	12869.6	11975.95
915.3946	1811.3504	12846.3	11951.2
915.5348	1813.0231	12796.85	11901.1
915.675	1814.6951	12766.7	11870.2
915.8151	1816.3664	12786.25	11888.1
915.9553	1818.0369	12755.85	11858
916.0954	1819.7067	12683.7	11786.65
916.2355	1821.3757	12676.4	11774.1
916.3755	1823.044	12645.8	11749.3
916.5156	1824.7115	12612.8	11713.05
916.6556	1826.3783	12590.75	11693
916.7956	1828.0443	12517.05	11621.8
916.9356	1829.7096	12520.05	11622.35
917.0756	1831.3741	12498.85	11600.8
917.2155	1833.0379	12452.95	11558.95
917.3555	1834.701	12397.5	11503.25
917.4954	1836.3633	12374.35	11482.35
917.6353	1838.0248	12361.55	11466.4
917.7751	1839.6856	12297.25	11400.05
917.915	1841.3457	12317.65	11422.4
918.0548	1843.005	12282.2	11384.85
918.1946	1844.6636	12278	11382.8
918.3344	1846.3214	12226.05	11329.4
918.4742	1847.9785	12204.35	11309.2
918.6139	1849.6349	12152.35	11254.85
918.7537	1851.2904	12149.85	11241.45
918.8934	1852.9453	12103.95	11201.7
919.0331	1854.5994	12057.05	11157.35
919.1727	1856.2528	12057.8	11155.8
919.3124	1857.9054	12041.8	11143.4
919.452	1859.5572	12035	11141.25
919.5916	1861.2083	11996.25	11098.05
919.7312	1862.8587	11964.2	11067.15
919.8708	1864.5084	11952.2	11053.3
920.0103	1866.1572	11916.45	11019.8
920.1498	1867.8054	11842.35	10943.45
920.2893	1869.4528	11865.2	10966.1
920.4288	1871.0994	11812.95	10916.1
920.5683	1872.7453	11785.6	10887.65
920.7077	1874.3905	11771.4	10857.05
920.8471	1876.0349	11724.85	10826.95
920.9865	1877.6786	11728.75	10829.35
921.1259	1879.3215	11704.2	10808.05
921.2653	1880.9637	11629.4	10730.95
921.4046	1882.6051	11636.3	10739.3
921.5439	1884.2458	11596.15	10697.85
921.6832	1885.8858	11537.3	10641.5
921.8225	1887.525	11523.2	10624.8
921.9617	1889.1634	11501.05	10602.65
922.101	1890.8011	11436.3	10539.05
922.2402	1892.4381	11443.3	10545.6
922.3794	1894.0743	11421.5	10526.7
922.5185	1895.7098	11374.8	10480.15
922.6577	1897.3446	11326.4	10429.2
922.7968	1898.9786	11290	10388.8
922.9359	1900.6118	11290.55	10393.4
923.075	1902.2443	11246.95	10349.4
923.214	1903.8761	11218.4	10322.1
923.3531	1905.5071	11151.45	10251.3
923.4921	1907.1374	11133.05	10235
923.6311	1908.7669	11102.8	10208.7
923.77	1910.3957	11092.9	10198.55
923.909	1912.0237	11020.75	10128.65
924.0479	1913.651	11018.25	10120.35
924.1868	1915.2776	10977.05	10081.15
924.3257	1916.9034	10927.8	10034.4
924.4646	1918.5285	10861.3	9965.45
924.6034	1920.1528	10844.75	9950.1
924.7422	1921.7764	10834.85	9939.15
924.881	1923.3992	10781.05	9886.55
925.0198	1925.0213	10718.6	9823.2
925.1586	1926.6427	10660.1	9764.65
925.2973	1928.2633	10699.95	9734.45
925.436	1929.8832	10639.6	9741.45
925.5747	1931.5023	10559.05	9664.25
925.7134	1933.1207	10553.95	9658.1
925.852	1934.7383	10516.05	9621.65
925.9906	1936.3552	10510.3	9616.8
926.1292	1937.9714	10480.3	9583.4
926.2678	1939.5868	10434.2	9535.8
926.4064	1941.2015	10354.7	9456.7
926.5449	1942.8154	10339.75	9441.8
926.6834	1944.4286	10294.4	9398.05
926.8219	1946.041	10287.3	9369.25
926.9604	1947.6528	10228.2	9327.3
927.0988	1949.2637	10208.45	9315.75
927.2372	1950.8739	10173.6	9278.3
927.3756	1952.4834	10120.8	9227.9
927.514	1954.0921	10110.05	9215.2
927.6523	1955.7001	10068.8	9169.4
927.7907	1957.3074	10053.35	9163.35
927.929	1958.9139	10012.25	9120.95
928.0673	1960.5197	9995.85	9101.95
928.2055	1962.1247	9938	9044.6
928.3438	1963.729	9901.1	9011.9
928.482	1965.3325	9874.65	8958.8
928.6202	1966.9353	9818.5	8927.45
928.7584	1968.5374	9807.6	8914.5
928.8965	1970.1387	9766.9	8874.75
929.0346	1971.7393	9729.7	8836.9
929.1727	1973.3392	9690.25	8797.45
929.3108	1974.9383	9657.95	8768.35
929.4489	1976.5366	9621.8	8732.85
929.5869	1978.1342	9614.5	8723.55
929.7249	1979.7311	9573.9	8682.15
929.8629	1981.3273	9550.5	8661.15
930.0009	1982.9227	9516.45	8624.6
930.1388	1984.5173	9497.25	8608.35
930.2767	1986.1112	9439.55	8550.8
930.4146	1987.7044	9443.75	8555.65
930.5525	1989.2968	9392.55	8501.25
930.6904	1990.8885	9379.45	8486.95
930.8282	1992.4795	9339.9	8447.25
930.966	1994.0697	9309	8422.05
931.1038	1995.6592	9310.35	8421.15
931.2415	1997.2479	9265.35	8377.15
931.3793	1998.8359	9253.4	8364.75
931.517	2000.4232	9184.35	8299.75
931.6547	2002.0097	9179.9	8295.2
931.7923	2003.5955	9142.15	8254.55
931.93	2005.1805	9132.55	8244.8
932.0676	2006.7648	9090.35	8203.05
932.2052	2008.3484	9074.55	8185.8
932.3427	2009.9312	9082.6	8193
932.4803	2011.5133	9037.9	8153.75
932.6178	2013.0946	9001.7	8116.35
932.7553	2014.6752	8987.7	8102.65
932.8928	2016.2551	8965.5	8077.9
933.0302	2017.8342	8906.35	8019.95
933.1676	2019.4126	8907.15	8020.5
933.305	2020.9902	8874.3	7988.6
933.4424	2022.5672	8844.45	7958.5
933.5798	2024.1433	8811.5	7919.6
933.7171	2025.7188	8781.3	7896.45
933.8544	2027.2935	8758.6	7874
933.9917	2028.8674	8725.4	7840.45
934.129	2030.4406	8713.9	7831.35
934.2662	2032.0131	8658.8	7774.35
934.4034	2033.5849	8633.6	7743.65
934.5406	2035.1559	8612.95	7729.3
934.6778	2036.7261	8604.3	7717.6
934.8149	2038.2957	8593.55	7707.35
934.952	2039.8645	8566.2	7678.65
935.0891	2041.4325	8567.15	7677.9
935.2262	2042.9998	8521.1	7633.2
935.3632	2044.5664	8518.05	7632.1
935.5002	2046.1323	8484.4	7599.4
935.6372	2047.6974	8452.45	7567.15
935.7742	2049.2617	8422.9	7537.85
935.9111	2050.8254	8434	7543.75
936.048	2052.3883	8393	7504.1
936.1849	2053.9504	8385.8	7497.15
936.3218	2055.5118	8361.75	7471.25
936.4586	2057.0725	8318.65	7429.45
936.5955	2058.6325	8305.35	7418.6
936.7323	2060.1917	8253.7	7368.05
936.869	2061.7502	8249.3	7361.8
937.0058	2063.3079	8231.3	7347.15
937.1425	2064.8649	8202.3	7315.4
937.2792	2066.4212	8170.85	7281.65
937.4159	2067.9767	8142.05	7255.6
937.5525	2069.5315	8126.3	7242.25
937.6891	2071.0856	8095.2	7208.55
937.8257	2072.6389	8060.4	7174.6
937.9623	2074.1915	8017.3	7132.4
938.0989	2075.7433	7987.5	7099.6
938.2354	2077.2945	7984.9	7100.3
938.3719	2078.8448	7955.1	7067.7
938.5084	2080.3945	7896.9	7009.25
938.6448	2081.9434	7930.1	7042
938.7812	2083.4916	7871.05	6980.15
938.9176	2085.039	7853.95	6959.7
939.054	2086.5857	7859.45	6963.05
939.1903	2088.1317	7826.6	6935.4
939.3267	2089.677	7825.65	6933.45
939.463	2091.2215	7789.5	6897
939.5992	2092.7652	7771.8	6878.9
939.7355	2094.3083	7757.45	6864
939.8717	2095.8506	7725.6	6833.95
940.0079	2097.3921	7724.45	6836.6
940.1441	2098.933	7678.95	6789.25
940.2802	2100.4731	7666.2	6776.9
940.4163	2102.0124	7683.15	6785.85
940.5524	2103.5511	7639.25	6748.9
940.6885	2105.089	7642.1	6749.65
940.8245	2106.6261	7617.9	6728.3
940.9606	2108.1626	7571.7	6681.75
941.0965	2109.6983	7619.95	6703.55
941.2325	2111.2332	7551.55	6661.75
941.3684	2112.7675	7538.4	6646.7
941.5044	2114.301	7493.55	6601.7
941.6403	2115.8337	7511.05	6618.75
941.7761	2117.3657	7503.4	6614.05
941.912	2118.897	7468.45	6577.25
942.0478	2120.4276	7427.4	6529.95
942.1835	2121.9575	7377.25	6484.05
942.3193	2123.4866	7405.15	6499.2
942.455	2125.0149	7389.3	6494.5
942.5907	2126.5426	7344.4	6455.65
942.7264	2128.0695	7327.4	6438.2
942.8621	2129.5956	7305.35	6418.95
942.9977	2131.1211	7303.7	6413.45
943.1333	2132.6458	7262.85	6376.15
943.2689	2134.1698	7263.2	6370.8
943.4044	2135.693	7244.65	6350.75
943.54	2137.2155	7231.95	6338.85
943.6755	2138.7373	7201.45	6309.7
943.8109	2140.2584	7177.2	6289.35
943.9464	2141.7787	7186.4	6293.2
944.0818	2143.2983	7125.85	6242.55
944.2172	2144.8171	7093.15	6209.7
944.3526	2146.3353	7063.95	6175.95
944.4879	2147.8527	7068.85	6181.7
944.6232	2149.3693	7062.05	6171.25
944.7585	2150.8853	7020.4	6128.7
944.8938	2152.4005	6999.05	6104.7
945.029	2153.9149	7007.95	6115.45
945.1642	2155.4287	7065.05	6066.35
945.2994	2156.9417	6972.25	6079.6
945.4346	2158.454	6950.6	6059.55
945.5697	2159.9655	6921.75	6035.55
945.7048	2161.4764	6917.45	6030.1
945.8399	2162.9865	6870.9	5982.3
945.9749	2164.4958	6877.9	5988.75
946.1099	2166.0045	6852.8	5963.55
946.2449	2167.5124	6842.45	5952.75
946.3799	2169.0195	6812.35	5920.4
946.5148	2170.526	6813.25	5922.35
946.6498	2172.0317	6778.45	5887.8
946.7846	2173.5367	6766.3	5876.65
946.9195	2175.0409	6743.95	5854.65
947.0543	2176.5445	6744.2	5853
947.1891	2178.0473	6721.15	5829.75
947.3239	2179.5494	6677.45	5781.8
947.4587	2181.0507	6639.3	5749.95
947.5934	2182.5513	6640.1	5749.2
947.7281	2184.0512	6618.4	5728.85
947.8628	2185.5504	6607.35	5718.6
947.9974	2187.0488	6563.9	5675.25
948.132	2188.5465	6553.35	5666.45
948.2666	2190.0435	6536.95	5648.25
948.4012	2191.5397	6515.4	5623.25
948.5357	2193.0353	6518.45	5626.45
948.6702	2194.5301	6487.35	5590.4
948.8047	2196.0241	6471.9	5578.6
948.9392	2197.5175	6447.95	5553.7
949.0736	2199.0101	6421.8	5523.95
949.208	2200.502	6397.05	5507.95
949.3424	2201.9931	6360.7	5471.45
949.4767	2203.4835	6354.9	5468.85
949.611	2204.9733	6339.8	5444.3
949.7453	2206.4622	6333.75	5446.45
949.8796	2207.9505	6289.1	5399.15
950.0138	2209.438	6264.55	5378.65
950.148	2210.9248	6259.2	5369.65
950.2822	2212.4109	6238.5	5348.35
950.4164	2213.8962	6216.7	5322.9
950.5505	2215.3809	6215.25	5321.1
950.6846	2216.8648	6184.5	5288.3
950.8186	2218.3479	6175.85	5276.35
950.9527	2219.8304	6134.85	5237.7
951.0867	2221.3121	6129.8	5234.85
951.2207	2222.7931	6111.5	5218.05
951.3546	2224.2733	6085.9	5192.1
951.4886	2225.7529	6065.35	5172.95
951.6225	2227.2317	6038.65	5147.9
951.7563	2228.7098	6021.9	5134.35
951.8902	2230.1872	5997.8	5110.45
952.024	2231.6638	5997.9	5109.8
952.1578	2233.1397	5981.25	5088.1
952.2916	2234.6149	5977.3	5088.85
952.4253	2236.0894	5962.2	5070.3
952.559	2237.5632	5927.85	5038.65
952.6927	2239.0362	5922.3	5032.5
952.8263	2240.5085	5899.9	5009.1
952.9599	2241.9801	5875.6	4984.05
953.0935	2243.4509	5872.3	4982.95
953.2271	2244.921	5827.2	4935.1
953.3606	2246.3904	5830.55	4935.2
953.4941	2247.8591	5792.8	4899.35
953.6276	2249.3271	5775.3	4883.5
953.7611	2250.7943	5781.25	4888.35
953.8945	2252.2608	5745.7	4851.9
954.0279	2253.7266	5742.05	4851.6
954.1612	2255.1917	5724.55	4834.7
954.2946	2256.656	5701.45	4810.55
954.4279	2258.1197	5684.2	4795.05
954.5612	2259.5826	5668.7	4774.15
954.6944	2261.0447	5663.6	4770.5
954.8276	2262.5062	5630.55	4735.8
954.9608	2263.9669	5632.75	4738.9
955.094	2265.4269	5621.95	4730.7
955.2271	2266.8862	5588.1	4697.35
955.3602	2268.3448	5576.45	4686.95
955.4933	2269.8026	5576.5	4685.55
955.6264	2271.2598	5561.35	4671.9
955.7594	2272.7162	5537.5	4647.8
955.8924	2274.1719	5522.1	4629.15
956.0253	2275.6268	5516.8	4624.35
956.1583	2277.0811	5509.15	4615.1
956.2912	2278.5346	5495.9	4604.3
956.4241	2279.9874	5476	4586.35
956.5569	2281.4395	5466.15	4579.3
956.6897	2282.8908	5466.9	4573.4
956.8225	2284.3414	5440.65	4548
956.9553	2285.7914	5430.1	4539.6
957.088	2287.2406	5406.3	4512.25
957.2207	2288.689	5378.4	4487.25
957.3534	2290.1368	5388.6	4492.15
957.486	2291.5838	5384.7	4487.4
957.6186	2293.0302	5362.45	4467.1
957.7512	2294.4758	5330.5	4435.05
957.8838	2295.9206	5314.1	4417.25
958.0163	2297.3648	5295.15	4405.3
958.1488	2298.8082	5286.9	4395.1
958.2813	2300.251	5263	4372.5
958.4137	2301.693	5258.9	4362.9
958.5461	2303.1343	5257.5	4361.3
958.6785	2304.5748	5245.7	4354.75
958.8108	2306.0147	5213.55	4322.7
958.9432	2307.4538	5207.4	4316.7
959.0754	2308.8922	5189.45	4302.9
959.2077	2310.3299	5178.05	4289.6
959.3399	2311.7669	5156.6	4269.55
959.4721	2313.2031	5152	4261.05
959.6043	2314.6387	5140.5	4248.05
959.7365	2316.0735	5094.6	4204.25
959.8686	2317.5076	5078.75	4186.85
960.0006	2318.941	5071.1	4177.55
960.1327	2320.3737	5058.95	4166.7
960.2647	2321.8056	5035.9	4141.75
960.3967	2323.2369	5037.15	4145.5
960.5287	2324.6674	5043.85	4151.95
960.6606	2326.0972	5021	4124.55
960.7925	2327.5263	5005.25	4113.75
960.9244	2328.9547	4975.8	4082.05
961.0562	2330.3823	4977.15	4083.05
961.1881	2331.8092	4966.3	4072.1
961.3198	2333.2355	4957.6	4063.35
961.4516	2334.661	4951.3	4057
961.5833	2336.0858	4938.55	4046.2
961.715	2337.5098	4915.3	4022.3
961.8467	2338.9332	4910.65	4016.05
961.9783	2340.3558	4894.65	4000.25
962.1099	2341.7778	4879.8	3988.3
962.2415	2343.199	4863.95	3970.6
962.373	2344.6195	4849.35	3959.4
962.5045	2346.0393	4839.7	3948.15
962.636	2347.4583	4828.5	3936.75
962.7675	2348.8767	4806.95	3913.8
962.8989	2350.2943	4809.2	3913.45
963.0303	2351.7113	4781.65	3888.05
963.1617	2353.1275	4768.7	3873.6
963.293	2354.543	4779.05	3862.4
963.4243	2355.9578	4769	3876.35
963.5556	2357.3718	4746.55	3854.85
963.6868	2358.7852	4722	3829.75
963.818	2360.1978	4691.05	3800.8
963.9492	2361.6098	4688.6	3799.6
964.0803	2363.021	4684.8	3790.7
964.2114	2364.4315	4673.6	3782.15
964.3425	2365.8413	4639.05	3746.25
964.4736	2367.2504	4635.55	3745.5
964.6046	2368.6587	4615.8	3726.65
964.7356	2370.0664	4601.4	3711.15
964.8666	2371.4733	4570.25	3678.2
964.9975	2372.8795	4559.4	3670.45
965.1284	2374.285	4538.4	3647.3
965.2593	2375.6899	4536.8	3647.5
965.3901	2377.0939	4513.5	3622.6
965.5209	2378.4973	4504.85	3614.25
965.6517	2379.9	4498.35	3608.6
965.7825	2381.3019	4480.7	3589.45
965.9132	2382.7032	4462.05	3571.7
966.0439	2384.1037	4449.15	3560.15
966.1745	2385.5035	4431.7	3543.25
966.3051	2386.9027	4416.9	3531.3
966.4357	2388.3011	4410.05	3516.55
966.5663	2389.6987	4395.1	3505.65
966.6968	2391.0957	4376.55	3487.9
966.8273	2392.492	4378.6	3490.25
966.9578	2393.8876	4348.15	3456.95
967.0882	2395.2824	4333.7	3444.65
967.2186	2396.6765	4314.7	3425.55
967.349	2398.07	4302.2	3411.8
967.4793	2399.4627	4313.05	3421.8
967.6097	2400.8547	4285.2	3394.6
967.7399	2402.246	4290.5	3391.75
967.8702	2403.6366	4271.4	3378.5
968.0004	2405.0265	4242.25	3353.05
968.1306	2406.4156	4243.55	3350.65
968.2607	2407.8041	4214.9	3323.25
968.3909	2409.1918	4206.3	3314.4
968.521	2410.5789	4195.85	3304.9
968.651	2411.9652	4167.4	3275.3
968.781	2413.3508	4159.7	3268.4
968.911	2414.7358	4150.35	3260.9
969.041	2416.12	4139	3249.3
969.1709	2417.5035	4146.45	3256.75
969.3008	2418.8863	4115.9	3225.45
969.4307	2420.2684	4104.3	3214.1
969.5606	2421.6497	4084.75	3193.45
969.6904	2423.0304	4065.3	3177.4
969.8201	2424.4104	4079.2	3188.8
969.9499	2425.7896	4057.6	3167.1
970.0796	2427.1682	4041.9	3153.75
970.2093	2428.546	4031.85	3141.4
970.3389	2429.9232	4032.4	3139.85
970.4685	2431.2996	4014.8	3124.8
970.5981	2432.6753	4019.05	3127.65
970.7277	2434.0503	4007.25	3116.65
970.8572	2435.4246	3995.5	3104.55
970.9867	2436.7982	3970.75	3079.05
971.1161	2438.1711	3950.2	3061
971.2456	2439.5433	3951.9	3061.05
971.375	2440.9148	3949.7	3053.1
971.5043	2442.2856	3917.3	3026.3
971.6336	2443.6557	3895.1	3005.35
971.7629	2445.025	3900.65	3010.2
971.8922	2446.3937	3891.05	2999.85
972.0214	2447.7617	3892.5	3000.9
972.1506	2449.1289	3886.25	2997.45
972.2798	2450.4955	3863.65	2969
972.4089	2451.8613	3861.35	2971.25
972.538	2453.2265	3838.1	2947.25
972.6671	2454.5909	3838.2	2946.3
972.7961	2455.9546	3836.8	2946.6
972.9251	2457.3177	3813.25	2922.8
973.0541	2458.68	3803.85	2910.45
973.1831	2460.0416	3795.2	2903.85
973.312	2461.4025	3799.5	2907.65
973.4408	2462.7627	3805.3	2902.7
973.5697	2464.1222	3804.65	2918.1
973.6985	2465.4811	3775	2885.1
973.8273	2466.8392	3757.95	2867.5
973.956	2468.1966	3760.55	2867.45
974.0847	2469.5533	3749.1	2859.05
974.2134	2470.9093	3740.35	2851.15
974.3421	2472.2645	3724.85	2833.4
974.4707	2473.6191	3727.65	2835.45
974.5993	2474.973	3708.75	2818.7
974.7278	2476.3262	3685.15	2795.9
974.8563	2477.6787	3679.7	2791.6
974.9848	2479.0305	3675.3	2786.05
975.1132	2480.3816	3659.8	2768.15
975.2417	2481.7319	3655.85	2764.15
975.37	2483.0816	3633.6	2742.15
975.4984	2484.4306	3616.45	2725
975.6267	2485.7789	3622.8	2733.7
975.755	2487.1264	3606.65	2714.1
975.8833	2488.4733	3602.95	2712.4
976.0115	2489.8195	3606.2	2699.05
976.1397	2491.165	3579.05	2685.3
976.2678	2492.5097	3560.95	2669.5
976.3959	2493.8538	3544.15	2655.15
976.524	2495.1972	3533.7	2645.1
976.6521	2496.5398	3538	2645
976.7801	2497.8818	3536.3	2645
976.9081	2499.2231	3506.15	2614.2
977.036	2500.5637	3488.4	2596.2
977.164	2501.9035	3491.85	2601
977.2918	2503.2427	3503.55	2608.8
977.4197	2504.5812	3476.5	2587.3
977.5475	2505.919	3478.45	2587.45
977.6753	2507.256	3449.95	2559.75
977.8031	2508.5924	3439.4	2548.95
977.9308	2509.9281	3437.3	2540.5
978.0585	2511.2631	3441.3	2549.95
978.1861	2512.5974	3412.25	2524.45
978.3137	2513.9309	3416.9	2524.9
978.4413	2515.2638	3422.6	2509.4
978.5689	2516.596	3402.65	2511.9
978.6964	2517.9275	3384.55	2492.4
978.8239	2519.2583	3373.65	2482.95
978.9513	2520.5884	3369.65	2478.55
979.0788	2521.9178	3355.2	2462.95
979.2062	2523.2465	3345.4	2455.45
979.3335	2524.5745	3328.25	2438.15
979.4608	2525.9018	3317.95	2426.7
979.5881	2527.2284	3311.8	2422.4
979.7154	2528.5543	3303.85	2415.45
979.8426	2529.8796	3308.6	2417.55
979.9698	2531.2041	3292.75	2402.35
980.0969	2532.5279	3289.4	2400.15
980.224	2533.851	3283.65	2391.1
980.3511	2535.1735	3268.75	2379.1
980.4781	2536.4952	3274.15	2383.5
980.6052	2537.8163	3263.45	2370.9
980.7321	2539.1366	3249.75	2357.85
980.8591	2540.4562	3259.4	2366.2
980.986	2541.7752	3248.55	2359.85
981.1129	2543.0935	3247.9	2355.05
981.2397	2544.411	3234	2339.9
981.3665	2545.7279	3227.9	2337.7
981.4933	2547.0441	3233.4	2342.3
981.62	2548.3596	3229.6	2335.95
981.7467	2549.6744	3217.35	2324.45
981.8734	2550.9885	3208.25	2316.15
982.0001	2552.3019	3193.25	2302.8
982.1267	2553.6146	3182.75	2293.35
982.2532	2554.9266	3190.05	2299.75
982.3798	2556.2379	3167.75	2275.25
982.5063	2557.5485	3164.3	2273
982.6327	2558.8585	3150.55	2252.65
982.7592	2560.1677	3162.55	2266.15
982.8856	2561.4762	3161.05	2269.05
983.0119	2562.7841	3158.1	2262.1
983.1383	2564.0913	3137.7	2246.75
983.2646	2565.3977	3119.7	2230.2
983.3908	2566.7035	3135.3	2244.3
983.517	2568.0086	3129.6	2236.05
983.6432	2569.313	3117.8	2223.6
983.7694	2570.6167	3115.2	2220.35
983.8955	2571.9197	3100.8	2209.95
984.0216	2573.222	3100.4	2205.95
984.1476	2574.5236	3087.9	2197.6
984.2737	2575.8246	3088.15	2193.15
984.3996	2577.1248	3091.2	2197.45
984.5256	2578.4244	3069.7	2178.25
984.6515	2579.7232	3080.1	2188.65
984.7774	2581.0214	3091.55	2167.75
984.9032	2582.3189	3067.65	2177.2
985.029	2583.6157	3057.8	2162.3
985.1548	2584.9118	3056.8	2165.95
985.2806	2586.2072	3045.55	2154.7
985.4063	2587.5019	3061.5	2168.8
985.5319	2588.7959	3030.25	2137.8
985.6576	2590.0893	3044.45	2150.6
985.7832	2591.3819	3032.95	2142.25
985.9087	2592.6739	3028.3	2135.95
986.0343	2593.9652	3026.1	2132.9
986.1597	2595.2557	3020.55	2130.5
986.2852	2596.5456	3029.25	2134.75
986.4106	2597.8348	3015.95	2123.7
986.536	2599.1234	2999	2106.55
986.6614	2600.4112	3001	2109.55
986.7867	2601.6983	2992.7	2099.35
986.912	2602.9848	2978.3	2084.95
987.0372	2604.2705	2972.45	2074.3
987.1624	2605.5556	2969.1	2076.5
987.2876	2606.84	2956.55	2065.5
987.4128	2608.1237	2950.6	2056.85
987.5379	2609.4067	2942.5	2052
987.6629	2610.689	2935.05	2035.5
987.788	2611.9707	2936.45	2040.8
987.913	2613.2516	2920.85	2024.3
988.0379	2614.5319	2918.95	2027
988.1629	2615.8115	2905.6	2014.5
988.2878	2617.0903	2894	2002.65
988.4126	2618.3685	2894.85	2004
988.5375	2619.6461	2882.6	1990.1
988.6622	2620.9229	2873.8	1981.05
988.787	2622.199	2879.35	1986.3
988.9117	2623.4745	2878.5	1985.2
989.0364	2624.7493	2853.55	1961.25
989.161	2626.0234	2837.95	1948.2
989.2857	2627.2968	2847.6	1957.9
989.4102	2628.5695	2838.75	1947.2
989.5348	2629.8415	2836.4	1943.3
989.6593	2631.1128	2836.85	1943.45
989.7837	2632.3835	2819.85	1929.75
989.9082	2633.6535	2808.25	1917.05
990.0326	2634.9228	2794.75	1902.9
990.1569	2636.1914	2797.35	1905.75
990.2812	2637.4593	2800.3	1907.7
990.4055	2638.7265	2801.25	1909.4
990.5298	2639.9931	2778.4	1888.3
990.654	2641.259	2778	1885.3
990.7782	2642.5242	2761.7	1867.2
990.9023	2643.7887	2765.7	1875
991.0264	2645.0525	2766.05	1874.15
991.1505	2646.3156	2745	1850.8
991.2745	2647.5781	2733.95	1843.25
991.3985	2648.8398	2733.05	1842.7
991.5225	2650.1009	2745.4	1830.25
991.6464	2651.3613	2710.85	1817.4
991.7703	2652.6211	2706.45	1814.2
991.8942	2653.8801	2695.4	1804.25
992.018	2655.1385	2697.45	1803
992.1418	2656.3961	2698.2	1807.6
992.2655	2657.6531	2696.1	1804.8
992.3892	2658.9094	2684.3	1793.9
992.5129	2660.1651	2689.25	1799.9
992.6366	2661.42	2678.25	1786.45
992.7602	2662.6743	2675.05	1782.05
992.8837	2663.9279	2668.65	1777.6
993.0073	2665.1808	2668.45	1777.15
993.1307	2666.433	2668	1775.8
993.2542	2667.6846	2672.15	1780
993.3776	2668.9354	2664.5	1771.4
993.501	2670.1856	2668.8	1776.3
993.6244	2671.4351	2655.3	1765.95
993.7477	2672.6839	2658.4	1766.65
993.8709	2673.9321	2646	1754.25
993.9942	2675.1795	2664.15	1773.15
994.1174	2676.4263	2636.55	1746.15
994.2405	2677.6724	2645.85	1755.3
994.3637	2678.9179	2643.5	1749.95
994.4868	2680.1626	2641.35	1749.45
994.6098	2681.4067	2630.7	1737.15
994.7328	2682.6501	2633.5	1742.6
994.8558	2683.8928	2627.65	1737.75
994.9788	2685.1348	2610.3	1721.85
995.1017	2686.3761	2607.9	1719.55
995.2245	2687.6168	2591.35	1703.35
995.3474	2688.8568	2598.05	1707.4
995.4702	2690.0961	2582.05	1691.6
995.5929	2691.3348	2591.35	1700.3
995.7156	2692.5727	2577.05	1685.65
995.8383	2693.81	2573.45	1683.3
995.961	2695.0466	2568.7	1679.7
996.0836	2696.2826	2546.35	1656.8
996.2062	2697.5178	2547.5	1654.05
996.3287	2698.7524	2545.8	1656.8
996.4512	2699.9863	2546.55	1653.3
996.5737	2701.2195	2544.95	1654.55
996.6961	2702.452	2545.85	1653.95
996.8185	2703.6839	2537.65	1646.6
996.9408	2704.9151	2522.1	1632.75
997.0631	2706.1456	2540	1649.5
997.1854	2707.3755	2539.45	1648.4
997.3077	2708.6046	2546.3	1654
997.4299	2709.8331	2544.65	1653.75
997.552	2711.0609	2542.25	1651.75
997.6742	2712.2881	2545.5	1654.65
997.7963	2713.5145	2549.2	1659.4
997.9183	2714.7403	2553.65	1666.9
998.0403	2715.9654	2564.9	1675
998.1623	2717.1899	2578.25	1674.15
998.2842	2718.4136	2580.3	1692.05
998.4062	2719.6367	2587.55	1698.2
998.528	2720.8591	2587.9	1691.1
998.6498	2722.0809	2598.9	1708.7
998.7716	2723.3019	2606.1	1712.6
998.8934	2724.5223	2604.4	1714.25
999.0151	2725.7421	2603.35	1712.25
999.1368	2726.9611	2591.3	1700.9
999.2584	2728.1795	2576.7	1681
999.38	2729.3972	2579.15	1688.4
999.5016	2730.6142	2578	1676.05
999.6231	2731.8306	2549.7	1659.3
999.7446	2733.0462	2533.75	1643.65
999.8661	2734.2612	2508.35	1612.85
999.9875	2735.4756	2478.85	1587.15
1000.1089	2736.6892	2469.7	1580.35
1000.2302	2737.9022	2439.7	1550.65
1000.3515	2739.1145	2422.3	1533.3
1000.4728	2740.3262	2417.85	1521.65
1000.594	2741.5372	2402.6	1512.75
1000.7152	2742.7475	2382.35	1492.65
1000.8363	2743.9571	2365.55	1473.4
1000.9575	2745.1661	2353.1	1456.85
1001.0785	2746.3744	2340.4	1450.25
1001.1996	2747.582	2334.8	1446.3
1001.3206	2748.7889	2327.85	1437.95
1001.4415	2749.9952	2304.8	1414.9
1001.5625	2751.2008	2302.6	1411.7
1001.6833	2752.4057	2297.25	1405.65
1001.8042	2753.61	2273	1382.95
1001.925	2754.8136	2282.75	1392.8
1002.0458	2756.0165	2268.8	1378.25
1002.1665	2757.2188	2261.5	1374.7
1002.2872	2758.4204	2266.55	1378.4
1002.4078	2759.6213	2269	1377.85
1002.5285	2760.8215	2260.9	1368.1
1002.649	2762.0211	2251.5	1360.1
1002.7696	2763.22	2251.4	1359.15
1002.8901	2764.4182	2252.7	1360.4
1003.0106	2765.6158	2243.2	1353.6
1003.131	2766.8127	2228.15	1338.95
1003.2514	2768.009	2222.75	1333.4
1003.3717	2769.2045	2229.05	1339.15
1003.492	2770.3994	2219.35	1328.5
1003.6123	2771.5936	2210.65	1320.9
1003.7325	2772.7872	2206.6	1317.75
1003.8527	2773.9801	2195.45	1306.05
1003.9729	2775.1723	2216.3	1311.65
1004.093	2776.3639	2195.45	1308.9
1004.2131	2777.5548	2187.7	1297.7
1004.3331	2778.745	2183.25	1294.25
1004.4531	2779.9346	2195.7	1305.65
1004.5731	2781.1235	2193.9	1303.9
1004.693	2782.3117	2179.55	1289.75
1004.8129	2783.4992	2185.15	1297.85
1004.9328	2784.6861	2176.55	1290.65
1005.0526	2785.8723	2188.6	1300.15
1005.1723	2787.0579	2180.05	1291.65
1005.2921	2788.2428	2190	1300.35
1005.4118	2789.427	2198.25	1312.45
1005.5314	2790.6106	2202.65	1313.9
1005.651	2791.7935	2214.2	1325.9
1005.7706	2792.9757	2221.05	1333.3
1005.8902	2794.1573	2228.65	1338.8
1006.0097	2795.3382	2237.65	1348.35
1006.1291	2796.5184	2258.3	1370.25
1006.2485	2797.698	2268.9	1380.55
1006.3679	2798.8769	2271.6	1382.1
1006.4873	2800.0551	2289.55	1402.05
1006.6066	2801.2327	2311.2	1421.2
1006.7258	2802.4096	2322.35	1434.7
1006.8451	2803.5859	2340.2	1450.65
1006.9642	2804.7615	2357.4	1469.5
1007.0834	2805.9364	2374.3	1485
1007.2025	2807.1106	2403.45	1517.55
1007.3216	2808.2842	2435.85	1546.9
1007.4406	2809.4572	2466.4	1578
1007.5596	2810.6294	2501.9	1614.85
1007.6785	2811.801	2540.2	1653.5
1007.7975	2812.972	2575.55	1687.8
1007.9163	2814.1423	2621.3	1733.55
1008.0352	2815.3119	2671.8	1782.2
1008.154	2816.4808	2721.15	1834.6
1008.2727	2817.6491	2764.15	1875.3
1008.3914	2818.8167	2791.9	1906.2
1008.5101	2819.9837	2860.45	1967.9
1008.6288	2821.15	2892.85	2004.8
1008.7474	2822.3157	2935.8	2051.25
1008.8659	2823.4807	2989.8	2101.95
1008.9844	2824.645	3045.65	2157.8
1009.1029	2825.8086	3070.35	2183.7
1009.2214	2826.9716	3094.75	2208.75
1009.3398	2828.134	3149.35	2262.55
1009.4581	2829.2957	3160.85	2273.05
1009.5764	2830.4567	3193.4	2307.15
1009.6947	2831.617	3212.8	2324.05
1009.813	2832.7767	3208.95	2321.05
1009.9312	2833.9358	3213.5	2326.75
1010.0493	2835.0941	3217.55	2328.4
1010.1675	2836.2519	3196.1	2310.25
1010.2855	2837.4089	3191.55	2303.6
1010.4036	2838.5653	3167.7	2279.15
1010.5216	2839.7211	3170.5	2282.5
1010.6396	2840.8761	3183.6	2297.25
1010.7575	2842.0306	3201.8	2315
1010.8754	2843.1843	3246.7	2359.8
1010.9932	2844.3374	3309.5	2421
1011.111	2845.4899	3361.85	2475.6
1011.2288	2846.6417	3430.25	2544.5
1011.3465	2847.7928	3508.15	2622.45
1011.4642	2848.9433	3580.5	2693.8
1011.5818	2850.0931	3667.75	2781.85
1011.6995	2851.2422	3727.4	2840.5
1011.817	2852.3907	3818.9	2932.4
1011.9345	2853.5385	3882.3	2990.5
1012.052	2854.6857	3945.45	3049.3
1012.1695	2855.8323	3973.5	3087.35
1012.2869	2856.9781	4017.25	3129.85
1012.4042	2858.1233	4057.45	3170
1012.5216	2859.2679	4127.75	3239.35
1012.6389	2860.4118	4154.55	3267.3
1012.7561	2861.555	4202.5	3309.15
1012.8733	2862.6976	4231.55	3343.35
1012.9905	2863.8395	4253.8	3368.15
1013.1076	2864.9808	4271.05	3385.1
1013.2247	2866.1214	4285.1	3397.85
1013.3417	2867.2614	4311.9	3424.65
1013.4587	2868.4007	4308.65	3420.4
1013.5757	2869.5393	4313.15	3425.35
1013.6926	2870.6773	4320.25	3431.2
1013.8095	2871.8146	4350.4	3460.85
1013.9263	2872.9513	4337.05	3449.85
1014.0431	2874.0874	4321.85	3434.6
1014.1599	2875.2227	4328.75	3442.45
1014.2766	2876.3574	4305.6	3418.4
1014.3933	2877.4915	4267.05	3381.4
1014.51	2878.6249	4245.65	3359.2
1014.6266	2879.7577	4217.35	3330.85
1014.7431	2880.8898	4216.9	3318.8
1014.8596	2882.0212	4178.45	3293.1
1014.9761	2883.152	4161.6	3276.15
1015.0925	2884.2821	4149.4	3265.35
1015.2089	2885.4116	4125.95	3241.05
1015.3253	2886.5405	4136.35	3249.6
1015.4416	2887.6686	4144.6	3254.8
1015.5579	2888.7962	4146.2	3261.5
1015.6741	2889.923	4157.65	3272.65
1015.7903	2891.0493	4165.1	3280.2
1015.9065	2892.1748	4172.3	3285.9
1016.0226	2893.2997	4174.6	3288.2
1016.1387	2894.424	4189.35	3304.85
1016.2547	2895.5476	4208.4	3324.1
1016.3707	2896.6706	4234.9	3347.45
1016.4866	2897.7929	4258.65	3373
1016.6025	2898.9145	4286.9	3398.4
1016.7184	2900.0355	4323.95	3436.35
1016.8342	2901.1559	4331.45	3442.45
1016.95	2902.2756	4374.95	3489.15
1017.0658	2903.3946	4396.65	3511.3
1017.1815	2904.513	4436.05	3547.3
1017.2971	2905.6308	4461.6	3577.7
1017.4127	2906.7479	4473.7	3584.65
1017.5283	2907.8643	4506.6	3619.55
1017.6439	2908.9801	4515.9	3630.1
1017.7594	2910.0953	4517.9	3633
1017.8748	2911.2098	4514.2	3625.65
1017.9902	2912.3236	4493.65	3600.25
1018.1056	2913.4368	4495.45	3606.85
1018.2209	2914.5494	4458.85	3573.6
1018.3362	2915.6613	4442.5	3550.7
1018.4515	2916.7725	4416.9	3527.9
1018.5667	2917.8831	4371.2	3483.9
1018.6819	2918.9931	4332.2	3444.15
1018.797	2920.1024	4307.85	3421.15
1018.9121	2921.211	4293.45	3408.15
1019.0271	2922.319	4256.95	3370.6
1019.1421	2923.4264	4235.35	3351.05
1019.2571	2924.5331	4222.65	3337.8
1019.372	2925.6391	4210.25	3323.45
1019.4869	2926.7445	4197.2	3313.3
1019.6017	2927.8493	4199.1	3311.9
1019.7165	2928.9534	4167.05	3280.8
1019.8313	2930.0569	4171.3	3283.55
1019.946	2931.1597	4167.15	3279.6
1020.0606	2932.2619	4140	3253.8
1020.1753	2933.3634	4124.15	3238.65
1020.2899	2934.4643	4133.4	3241.85
1020.4044	2935.5645	4095.8	3203.35
1020.5189	2936.6641	4062.95	3173.4
1020.6334	2937.763	4014	3129.15
1020.7478	2938.8613	3978.5	3092.65
1020.8622	2939.959	3913.45	3023.1
1020.9765	2941.056	3822.2	2937.2
1021.0908	2942.1523	3735.3	2848.55
1021.2051	2943.248	3644.3	2759.65
1021.3193	2944.3431	3545.35	2659.2
1021.4334	2945.4375	3444.9	2559.35
1021.5476	2946.5313	3343.05	2459.35
1021.6617	2947.6244	3238.8	2354.95
1021.7757	2948.7169	3138.35	2251.7
1021.8897	2949.8087	3028.8	2143.85
1022.0037	2950.8999	2938.5	2052.6
1022.1176	2951.9904	2846.55	1962.35
1022.2315	2953.0803	2774.65	1887.6
1022.3453	2954.1696	2708.35	1823.9
1022.4591	2955.2582	2661.3	1776.35
1022.5728	2956.3462	2610.9	1726.45
1022.6865	2957.4335	2572	1686.1
1022.8002	2958.5202	2528.85	1641.85
1022.9138	2959.6062	2507.55	1620.9
1023.0274	2960.6916	2476.9	1590.15
1023.141	2961.7764	2461.05	1574.85
1023.2545	2962.8605	2445.5	1560.65
1023.3679	2963.9439	2420	1534.95
1023.4813	2965.0267	2406.2	1520.6
1023.5947	2966.1089	2428.65	1521.45
1023.708	2967.1905	2404.95	1520.8
1023.8213	2968.2714	2393.6	1508.85
1023.9346	2969.3516	2387.05	1503.2
1024.0478	2970.4312	2398.3	1504.7
1024.1609	2971.5102	2396.25	1510.25
1024.274	2972.5885	2385.15	1500.9
1024.3871	2973.6662	2392.8	1503.05
1024.5002	2974.7432	2380.35	1496.1
1024.6132	2975.8196	2371.35	1486.85
1024.7261	2976.8954	2365.3	1482.75
1024.839	2977.9705	2345.3	1461.7
1024.9519	2979.045	2337.8	1454.7
1025.0647	2980.1188	2313.55	1427.5
1025.1775	2981.192	2289.1	1402.85
1025.2902	2982.2645	2281.05	1393.45
1025.4029	2983.3364	2248.3	1365.5
1025.5156	2984.4077	2213.55	1329.35
1025.6282	2985.4783	2191.65	1301.95
1025.7407	2986.5483	2156.8	1273
1025.8532	2987.6177	2112.55	1228.35
1025.9657	2988.6864	2076.1	1192.45
1026.0782	2989.7545	2047.2	1161.95
1026.1906	2990.8219	1998.15	1116.4
1026.3029	2991.8887	1959.8	1072.9
1026.4152	2992.9548	1935.5	1051.2
1026.5275	2994.0204	1909.05	1024.4
1026.6397	2995.0852	1877.6	995.15
1026.7519	2996.1495	1857.35	970.55
1026.864	2997.2131	1827.1	941.2
1026.9761	2998.276	1804.05	918.65
1027.0882	2999.3383	1775.3	889.45
1027.2002	3000.4	1758	873.65
1027.3122	3001.4611	1742.4	858.4
1027.4241	3002.5215	1737.65	854.3
1027.536	3003.5812	1719.25	836.75
1027.6478	3004.6404	1705.95	820.2
1027.7596	3005.6989	1693	806.7
1027.8714	3006.7567	1685.2	800.3
1027.9831	3007.8139	1685.5	783.6
1028.0947	3008.8705	1673.35	791.35
1028.2064	3009.9264	1672.95	771.15
1028.3179	3010.9818	1653.7	767.75
1028.4295	3012.0364	1656	771.25
1028.541	3013.0905	1642.55	757.95
1028.6524	3014.1439	1647.85	763.6
1028.7638	3015.1966	1642.3	757.6
1028.8752	3016.2487	1641.5	755.75
1028.9865	3017.3002	1648.35	756.35
1029.0978	3018.3511	1637.1	754.45
1029.209	3019.4013	1635.15	752.8
1029.3202	3020.4509	1641.1	758.55
1029.4314	3021.4998	1640.6	755.65
1029.5425	3022.5481	1631.8	748.05
1029.6535	3023.5958	1635.75	750.9
1029.7645	3024.6428	1636.3	750.9
1029.8755	3025.6892	1623.55	741.55
1029.9864	3026.735	1634.9	751.4
1030.0973	3027.7802	1640.2	756.4
1030.2082	3028.8247	1630.35	745.9
1030.319	3029.8685	1642.8	758.35
1030.4297	3030.9118	1647.5	762.25
1030.5404	3031.9544	1631.35	750.15
1030.6511	3032.9963	1655.65	772.6
1030.7617	3034.0376	1647.05	762.35
1030.8723	3035.0783	1658.55	772.1
1030.9829	3036.1184	1657.3	771.9
1031.0934	3037.1578	1658.05	774.7
1031.2038	3038.1966	1664.75	779.2
1031.3142	3039.2348	1651.45	766.95
1031.4246	3040.2723	1659	768.45
1031.5349	3041.3092	1655.55	773
1031.6452	3042.3455	1653.75	770.4
1031.7554	3043.3811	1640.75	755.6
1031.8656	3044.4161	1640.1	758.35
1031.9758	3045.4505	1635.45	751.9
1032.0859	3046.4842	1631.25	747.3
1032.1959	3047.5173	1619.15	735.25
1032.3059	3048.5498	1615.55	733.25
1032.4159	3049.5816	1607.8	724.1
1032.5258	3050.6128	1599.8	713.3
1032.6357	3051.6434	1585.55	698.95
1032.7455	3052.6734	1582.2	696.4
1032.8553	3053.7027	1580.3	697.25
1032.9651	3054.7314	1566.55	682.9
1033.0748	3055.7594	1561.7	679.6
1033.1845	3056.7868	1553.8	667.15
1033.2941	3057.8136	1548.9	667.6
1033.4037	3058.8398	1545.3	663.05
1033.5132	3059.8653	1534.9	650.15
1033.6227	3060.8902	1520.4	636.3
1033.7321	3061.9145	1517.8	634.7
1033.8415	3062.9381	1517.65	633.7
1033.9509	3063.9612	1524	625.55
1034.0602	3064.9835	1503.15	619.25
1034.1694	3066.0053	1495.2	611.25
1034.2787	3067.0264	1488.8	605.9
1034.3878	3068.0469	1484.75	600.05
1034.497	3069.0668	1470.95	583.3
1034.6061	3070.086	1456.25	572.7
1034.7151	3071.1046	1454.1	570.7
1034.8241	3072.1226	1436.55	550.8
1034.9331	3073.1399	1434.95	552.3
1035.042	3074.1567	1422	538.9
1035.1508	3075.1727	1414.25	530.45
1035.2597	3076.1882	1407.2	524.35
1035.3684	3077.203	1387.7	502.25
1035.4772	3078.2173	1376.65	491.4
1035.5859	3079.2308	1375.4	488.9
1035.6945	3080.2438	1367.4	481.65
1035.8031	3081.2561	1356.8	471.75
1035.9117	3082.2678	1339.45	455.75
1036.0202	3083.2789	1339.5	456.95
1036.1286	3084.2893	1333.65	450.15
1036.2371	3085.2991	1319.75	437.05
1036.3454	3086.3083	1321.3	432.9
1036.4538	3087.3169	1313.15	428.1
1036.562	3088.3248	1309.5	425.35
1036.6703	3089.3321	1306.1	421.35
1036.7785	3090.3388	1294.05	412.6
1036.8866	3091.3449	1291.65	408.9
1036.9948	3092.3503	1286.1	400.85
1037.1028	3093.3551	1285.95	403.85
1037.2108	3094.3593	1274.85	392.95
1037.3188	3095.3629	1270.8	385.7
1037.4267	3096.3658	1268.75	383.85
1037.5346	3097.3681	1270.35	386.6
1037.6425	3098.3698	1263.4	380.3
1037.7503	3099.3708	1260.7	370.65
1037.858	3100.3713	1253.35	371.25
1037.9657	3101.3711	1253.9	369.65
1038.0734	3102.3702	1377.6	360.9
1038.181	3103.3688	1250.1	362.25
1038.2886	3104.3667	1247	365.4
1038.3961	3105.364	1241.45	356.95
1038.5036	3106.3607	1239.05	354.45
1038.611	3107.3568	1234.7	349
1038.7184	3108.3522	1226.4	344.9
1038.8257	3109.347	1227.75	343.5
1038.933	3110.3412	1233	346.6
1039.0403	3111.3348	1227.1	343.4
1039.1475	3112.3277	1218.25	336.15
1039.2547	3113.32	1221.5	338.85
1039.3618	3114.3117	1218.2	334.45
1039.4689	3115.3028	1213.85	331.95
1039.5759	3116.2932	1211.6	327.35
1039.6829	3117.2831	1218.55	328.3
1039.7898	3118.2723	1204.55	319.6
1039.8967	3119.2608	1200.9	317.3
1040.0035	3120.2488	1207.65	323.6
1040.1103	3121.2361	1199.95	316.9
1040.2171	3122.2229	1201.45	317.6
1040.3238	3123.209	1200	316
1040.4305	3124.1944	1194.3	311.85
1040.5371	3125.1793	1198	314.3
1040.6437	3126.1635	1190.35	309.55
1040.7502	3127.1471	1190.95	306.35
1040.8567	3128.1301	1192.5	310.15
1040.9631	3129.1125	1185.2	302.25
1041.0695	3130.0942	1185.1	300.9
1041.1759	3131.0753	1188.55	296.8
1041.2822	3132.0558	1187.5	300.9
1041.3884	3133.0357	1178.4	295.2
1041.4946	3134.015	1177	292.2
1041.6008	3134.9936	1171.75	289.5
1041.7069	3135.9716	1192.05	285.4
1041.813	3136.949	1170.95	289.25
1041.919	3137.9258	1190.4	289.6
1042.025	3138.902	1173.65	284.5
1042.1309	3139.8775	1163.85	282.95
1042.2368	3140.8524	1162.15	280.25
1042.3427	3141.8267	1161.05	277.1
1042.4485	3142.8004	1160.85	278.85
1042.5542	3143.7735	1162.05	274.35
1042.6599	3144.7459	1160.6	275.75
1042.7656	3145.7178	1158.4	276.15
1042.8712	3146.689	1154.5	271.5
1042.9768	3147.6596	1159.85	273.5
1043.0823	3148.6295	1148.7	266
1043.1878	3149.5989	1154.6	271.85
1043.2932	3150.5676	1143.8	261.65
1043.3986	3151.5357	1137.9	256.55
1043.5039	3152.5032	1144.15	261.7
1043.6092	3153.4701	1142.4	259.9
1043.7145	3154.4364	1144.15	258.8
1043.8197	3155.402	1136.2	254.25
1043.9248	3156.367	1142.35	259.4
1044.03	3157.3315	1161.65	253.8
1044.135	3158.2952	1133.1	250.2
1044.24	3159.2584	1134.3	252.15
1044.345	3160.221	1131.85	248.5
1044.4499	3161.1829	1123.85	241.9
1044.5548	3162.1442	1128.7	245.3
1044.6596	3163.105	1126.55	244.6
1044.7644	3164.065	1123.45	240.9
1044.8692	3165.0245	1126	241.35
1044.9739	3165.9834	1118.05	235.1
1045.0785	3166.9416	1117.6	235.85
1045.1831	3167.8993	1120.15	238.95
1045.2877	3168.8563	1116.25	233.45
1045.3922	3169.8127	1114.65	233.8
1045.4966	3170.7684	1112	230.05
1045.6011	3171.7236	1115.65	231.6
1045.7054	3172.6782	1111.85	228.35
1045.8098	3173.6321	1110.45	227.55
1045.914	3174.5854	1111	223.15
1046.0183	3175.5381	1105.9	222.85
1046.1224	3176.4902	1107.75	227
1046.2266	3177.4417	1103.15	222.2
1046.3307	3178.3926	1103.7	222.6
1046.4347	3179.3428	1097.8	214.85
1046.5387	3180.2924	1101.6	220.35
1046.6427	3181.2415	1101.35	219.2
1046.7466	3182.1899	1098.85	215.35
1046.8504	3183.1377	1096.2	214.8
1046.9542	3184.0848	1097.6	209.8
1047.058	3185.0314	1093.25	208.8
1047.1617	3185.9773	1099	216.2
1047.2654	3186.9227	1095.75	212.3
1047.369	3187.8674	1091.15	208
1047.4726	3188.8115	1097	212
1047.5761	3189.755	1089.2	209.1
1047.6796	3190.6979	1087.95	205.2
1047.783	3191.6402	1088.05	204.5
1047.8864	3192.5818	1083.5	201.3
1047.9898	3193.5229	1089.85	201.3
1048.0931	3194.4633	1082.15	200.55
1048.1963	3195.4031	1081.55	201
1048.2995	3196.3423	1082.1	201.45
1048.4027	3197.2809	1081.95	199.15
1048.5058	3198.2189	1084.35	200.9
1048.6089	3199.1563	1085.15	194.45
1048.7119	3200.0931	1078	196.45
1048.8148	3201.0292	1079.2	197.75
1048.9178	3201.9648	1077.75	196.3
1049.0206	3202.8997	1077.5	194.15
1049.1235	3203.834	1076.25	195.55
1049.2262	3204.7677	1072.35	190.8
1049.329	3205.7008	1069.25	184.6
1049.4317	3206.6333	1067.35	185
1049.5343	3207.5652	1071.1	188.35
1049.6369	3208.4964	1069.05	186.75
1049.7394	3209.4271	1068.1	187.9
1049.8419	3210.3571	1070.6	188.15
1049.9444	3211.2865	1062.35	179.6
1050.0468	3212.2154	1064.15	181.55
1050.1491	3213.1436	1063.35	178.15
1050.2514	3214.0712	1070.1	181.35
1050.3537	3214.9982	1060.4	177.55
1050.4559	3215.9246	1060.7	177.55
1050.5581	3216.8503	1058.75	178.3
1050.6602	3217.7755	1058.85	177.7
1050.7623	3218.7001	1057.3	177.05
1050.8643	3219.624	1055.1	173.8
1050.9663	3220.5473	1057.1	177.55
1051.0682	3221.4701	1055.8	172.45
1051.1701	3222.3922	1059.8	177.6
1051.2719	3223.3137	1048.45	168
1051.3737	3224.2346	1049.25	167.3
1051.4754	3225.1549	1054.65	174.1
1051.5771	3226.0746	1053.95	173.3
1051.6788	3226.9937	1047.5	163.5
1051.7804	3227.9121	1045.15	165.1
1051.8819	3228.83	1045.4	163.2
1051.9834	3229.7473	1043.5	161.4
1052.0849	3230.6639	1045.15	164.25
1052.1863	3231.5799	1041.25	159.85
1052.2876	3232.4954	1043.05	160.65
1052.3889	3233.4102	1042.1	160.1
1052.4902	3234.3244	1040.95	158.6
1052.5914	3235.238	1039.25	158.15
1052.6926	3236.151	1064.6	155.5
1052.7937	3237.0634	1036.9	156.3
1052.8948	3237.9752	1040.25	160.15
1052.9958	3238.8864	1037.55	156.75
1053.0968	3239.797	1036.45	156.8
1053.1977	3240.7069	1041.2	160.55
1053.2986	3241.6163	1035.7	154.3
1053.3994	3242.5251	1036.15	156
1053.5002	3243.4332	1031	150.1
1053.6009	3244.3408	1029.4	145.15
1053.7016	3245.2477	1027.55	145
1053.8022	3246.154	1029	145.65
1053.9028	3247.0598	1030.55	147.2
1054.0034	3247.9649	1030.9	147.95
1054.1039	3248.8694	1031.9	150.35
1054.2043	3249.7733	1028.95	149.3
1054.3047	3250.6766	1021.7	139.1
1054.4051	3251.5793	1025.45	144.4
1054.5054	3252.4814	1024.6	142
1054.6056	3253.3829	1018.85	137.2
1054.7058	3254.2838	1018.85	137.15
1054.806	3255.1841	1020	138.25
1054.9061	3256.0838	1015.95	136.05
1055.0061	3256.9829	1013.15	132
1055.1062	3257.8814	1017.75	136.05
1055.2061	3258.7792	1014.4	130.85
1055.306	3259.6765	1015.7	134.05
1055.4059	3260.5731	1011.75	128.7
1055.5057	3261.4692	1010.15	129.55
1055.6055	3262.3647	1009.1	127.75
1055.7052	3263.2595	1004.5	121.9
1055.8049	3264.1538	1004.85	122.65
1055.9045	3265.0474	1003.75	123.85
1056.0041	3265.9404	1000.7	119.8
1056.1036	3266.8329	997.6	117.4
1056.2031	3267.7247	1007.05	115.7
1056.3025	3268.616	995.95	116.05
1056.4019	3269.5066	996.6	114.95
1056.5013	3270.3966	987.95	105.8
1056.6005	3271.286	983.95	104.8
