Software Version:	3.9.2.0
Unit SN:	10000200
Spectrometer SN:	6960
Date:	3/26/2024 1:55:26 PM
Data Line Index:	25
Spectral Points:	2048
Integration time (ms):	125
Averages:	20
Delay (ms):	30000
Sequence Number:	1
Processing:	dark subtract
Laser Power (mW):	305
Laser Current (mA):	820
Laser Diode Temp (C):	25
Laser Case Temp (C):	27.3
System Temp (C):	27.3
Spectrometer Temp (C):	25.2
CCD Temp (C):	0.002
Secondary Temp (C):	20.01
Heatsink Temp (C):	22.477
CCDPCB Temp (C):	36.451
SecondaryPCB Temp (C):	34.373

Wavelength	RamanShift	Raw Counts	Dark Subtracted
787.061	30.1047	578.25	169.95
787.2016	32.3739	585.7	178.35
787.3422	34.6426	593.45	183.3
787.4828	36.9109	612.65	201.65
787.6235	39.1787	628.05	211.65
787.7642	41.4461	648.35	227.85
787.9049	43.7131	664.15	240.1
788.0456	45.9796	689.3	262.65
788.1863	48.2456	707.1	275.4
788.3271	50.5112	725.3	288.55
788.4679	52.7764	740.45	303.3
788.6087	55.0411	763.9	321.25
788.7496	57.3054	790.95	344.6
788.8904	59.5692	808.35	360.05
789.0313	61.8326	840.8	388.1
789.1722	64.0955	874.5	417.3
789.3132	66.3579	906.65	446.25
789.4541	68.6199	952	488.35
789.5951	70.8815	1028.55	561.45
789.7361	73.1426	1176.3	704.45
789.8771	75.4032	1564.75	1086.3
790.0181	77.6634	2526.45	2042.95
790.1592	79.9231	4907.9	4414.75
790.3003	82.1824	10316.4	9803.15
790.4414	84.4412	21356.55	20809.5
790.5825	86.6995	39489.45	38890.8
790.7237	88.9574	51647.6	51001.25
790.8648	91.2148	58108.8	57429.95
791.006	93.4717	59748.05	59052.45
791.1472	95.7282	60501	59791.8
791.2885	97.9842	60777	60064.5
791.4297	100.2398	60635.2	59915.75
791.571	102.4949	60558	59837.3
791.7123	104.7495	60432.55	59709.5
791.8536	107.0036	60050.3	59329.1
791.9949	109.2573	60342.8	59622.6
792.1363	111.5105	59920.2	59197
792.2777	113.7632	59838.05	59112.65
792.4191	116.0154	59913.2	59175.4
792.5605	118.2672	60121.15	59390.75
792.7019	120.5185	60049.05	59317.15
792.8434	122.7693	59961	59230
792.9849	125.0197	59420.1	58685.95
793.1264	127.2696	60282.85	59543.65
793.2679	129.519	60045.15	59297.3
793.4094	131.7679	60346.75	59601.05
793.551	134.0163	59440.35	58686.6
793.6926	136.2642	59738.85	58984.4
793.8342	138.5117	60234.6	59477.6
793.9758	140.7587	59959.35	59201.05
794.1175	143.0052	59924.85	59159.5
794.2591	145.2512	59394.75	58633.75
794.4008	147.4967	59946.15	59185.65
794.5425	149.7417	59741.15	58974.9
794.6842	151.9863	59688.95	58922.8
794.826	154.2304	59311.4	58539.9
794.9677	156.4739	59537	58757.25
795.1095	158.717	59875.45	59096.95
795.2513	160.9596	59582.4	58798.95
795.3931	163.2017	59072.2	58289.8
795.535	165.4433	59512.15	58725.45
795.6768	167.6844	59143.5	58355.4
795.8187	169.925	59320.05	58534.4
795.9606	172.1651	58967.1	58178.85
796.1025	174.4047	59063.25	58274.95
796.2445	176.6439	58971.85	58180.9
796.3864	178.8825	58784.3	57989.35
796.5284	181.1206	59127	58323
796.6704	183.3582	59009.45	58201.65
796.8124	185.5954	58732.4	57925.6
796.9544	187.832	58789.1	57977.15
797.0965	190.0681	58440.6	57625.9
797.2386	192.3037	59036.7	58218.3
797.3806	194.5388	59606	58787.55
797.5228	196.7734	58215.25	57396.65
797.6649	199.0075	59490.1	58665.45
797.807	201.2411	59018.95	58189.2
797.9492	203.4742	59698.25	58869.1
798.0914	205.7068	59529.55	58696.95
798.2336	207.9389	59478.75	58650.9
798.3758	210.1704	59427.05	58595.4
798.518	212.4015	59959.45	59122.9
798.6603	214.632	59318.75	58481.55
798.8025	216.862	59972	59142.45
798.9448	219.0915	59689.6	58870.6
799.0871	221.3205	59626.85	58809.2
799.2294	223.549	60158.15	59346.7
799.3718	225.777	60125	59311.15
799.5141	228.0044	60435.5	59620.25
799.6565	230.2314	60261.3	59449.1
799.7989	232.4578	60292.15	59481
799.9413	234.6837	60396.85	59575.5
800.0837	236.909	61307.7	60485.7
800.2262	239.1339	60019.7	59170.25
800.3687	241.3582	60506.9	59672.05
800.5111	243.582	60463.9	59594.65
800.6536	245.8053	60390.65	59538.65
800.7961	248.0281	60432	59588.7
800.9387	250.2503	60551.7	59699.2
801.0812	252.472	60125.5	59270.3
801.2238	254.6932	60388.8	59535.05
801.3664	256.9139	60232.35	59373.45
801.509	259.134	61025.05	60161.05
801.6516	261.3536	60112.05	59253.05
801.7942	263.5727	60679.2	59809.55
801.9369	265.7912	60355.55	59493.9
802.0795	268.0092	60506.3	59642.8
802.2222	270.2267	60587.45	59727.35
802.3649	272.4436	60181.3	59319.65
802.5076	274.6601	60543.7	59670.7
802.6504	276.8759	60711.6	59846.25
802.7931	279.0913	60476.7	59609.5
802.9359	281.3061	60511.55	59641.05
803.0787	283.5204	60545.55	59673.1
803.2215	285.7341	60488.8	59607.7
803.3643	287.9473	60936.05	60048.75
803.5071	290.16	60645.3	59765.65
803.6499	292.3721	60873.75	59996.05
803.7928	294.5837	60582.05	59702.4
803.9357	296.7947	60390.35	59509.4
804.0786	299.0052	61032.85	60155.3
804.2215	301.2152	60680.55	59807
804.3644	303.4246	60940.25	60066.5
804.5074	305.6334	60797.95	59924.4
804.6503	307.8418	60197.75	59322.05
804.7933	310.0495	60244.45	59365.25
804.9363	312.2568	60123.75	59239.4
805.0793	314.4635	60073.95	59190.95
805.2223	316.6696	60255.95	59371.1
805.3653	318.8752	60437.25	59546.75
805.5084	321.0802	59581	58697.2
805.6514	323.2847	59932.65	59044.95
805.7945	325.4887	59944.85	59055.75
805.9376	327.692	59733.4	58843
806.0807	329.8949	59922.4	59030.4
806.2238	332.0972	59679.85	58782.1
806.367	334.2989	59758.8	58860.85
806.5101	336.5001	60019.2	59126.45
806.6533	338.7007	59286.1	58391.45
806.7965	340.9008	59613.55	58715.85
806.9397	343.1003	59663.85	58767.25
807.0829	345.2992	59872.5	58975.85
807.2261	347.4976	59525.25	58628
807.3693	349.6955	59654.35	58753.45
807.5126	351.8927	59405.1	58499.55
807.6559	354.0895	59683.65	58766.6
807.7991	356.2856	59631.7	58722.8
807.9424	358.4812	59885.95	58980.55
808.0857	360.6763	59425.45	58523.45
808.2291	362.8707	59741.2	58833.75
808.3724	365.0646	59523.1	58615.8
808.5158	367.258	59533.25	58625.9
808.6591	369.4508	59292.9	58376.55
808.8025	371.643	59713.25	58797.3
808.9459	373.8346	59525.6	58610.65
809.0893	376.0257	59474.7	58557.85
809.2327	378.2162	59341.65	58424.95
809.3762	380.4062	58984.75	58072.2
809.5196	382.5956	59225.9	58310.35
809.6631	384.7844	59212.75	58296.35
809.8066	386.9726	59329.9	58414.6
809.9501	389.1603	59365.8	58450.15
810.0936	391.3474	58945.95	57986.1
810.2371	393.5339	59302.9	58387.3
810.3806	395.7199	58733.15	57818.75
810.5241	397.9052	58819.85	57909.2
810.6677	400.09	58963	58053.85
810.8113	402.2743	59207.15	58300.8
810.9548	404.4579	58913.55	58011.65
811.0984	406.641	58900.75	57992.6
811.2421	408.8235	59153	58245.9
811.3857	411.0054	59200.1	58292.45
811.5293	413.1868	59284.2	58375.4
811.673	415.3675	59266.95	58352.6
811.8166	417.5477	59300.85	58386.35
811.9603	419.7273	59307.2	58391.35
812.104	421.9064	59211.85	58290.3
812.2477	424.0848	59289.65	58370.55
812.3914	426.2627	59364	58444.2
812.5351	428.4399	58850.35	57927.35
812.6788	430.6166	58467.05	57541.6
812.8226	432.7928	58788.25	57861.75
812.9663	434.9683	58356.45	57436.05
813.1101	437.1432	58342.2	57420.45
813.2539	439.3176	58574.55	57656.7
813.3977	441.4914	58037.85	57122.9
813.5415	443.6645	58094.35	57171.45
813.6853	445.8371	58095.7	57173.9
813.8291	448.0091	57826.05	56902.95
813.973	450.1806	57705.75	56783.8
814.1168	452.3514	57760.3	56844.3
814.2607	454.5216	57501.95	56578.05
814.4046	456.6913	57716.3	56792.45
814.5485	458.8603	57776.2	56855
814.6924	461.0288	57439.8	56523.8
814.8363	463.1967	57738.6	56824.15
814.9802	465.3639	57746.75	56829.65
815.1241	467.5306	57164.05	56241.45
815.2681	469.6967	57510.05	56593.15
815.412	471.8622	57680.85	56768.95
815.556	474.0271	57515.55	56596.45
815.7	476.1914	57610.55	56679.85
815.844	478.3551	57555.2	56629.9
815.988	480.5182	57900.35	56981.05
816.132	482.6807	57422.05	56509.45
816.276	484.8426	57525.4	56618.65
816.4201	487.0039	58026.8	57117.55
816.5641	489.1647	58088.2	57170.55
816.7082	491.3248	57713.6	56789.95
816.8522	493.4843	58234.5	57315.85
816.9963	495.6432	58225.75	57305.4
817.1404	497.8015	57656.15	56727.2
817.2845	499.9592	57946.2	57014.2
817.4286	502.1163	57912.6	56980.45
817.5727	504.2728	57774.5	56853.3
817.7168	506.4287	57698.6	56788.25
817.861	508.5839	57305.7	56390.85
818.0051	510.7386	57383.55	56463.4
818.1493	512.8927	57449.85	56521.55
818.2935	515.0461	57290.35	56364.3
818.4377	517.199	57559.4	56633.8
818.5818	519.3512	57383.2	56455.5
818.726	521.5029	57289.75	56358.85
818.8703	523.6539	57407.75	56478.6
819.0145	525.8043	57020.3	56089.45
819.1587	527.9541	57376.55	56445.25
819.303	530.1033	57289.8	56359.25
819.4472	532.2519	57081.95	56151.45
819.5915	534.3999	57338.2	56409.7
819.7357	536.5472	57559.1	56630.55
819.88	538.694	57190.05	56265.6
820.0243	540.8401	57626.35	56696.9
820.1686	542.9856	57703.9	56765.9
820.3129	545.1305	57879.05	56932.8
820.4572	547.2748	57532.05	56583.1
820.6016	549.4185	57476.65	56527.25
820.7459	551.5615	57539.5	56595.05
820.8902	553.704	57444.05	56498.3
821.0346	555.8458	57252.8	56311.3
821.1789	557.987	57300.65	56365.35
821.3233	560.1276	57444.1	56501.65
821.4677	562.2675	57341.9	56401.35
821.6121	564.4069	57425.6	56482.75
821.7565	566.5456	57598.5	56656.65
821.9009	568.6837	57211.6	56272.2
822.0453	570.8212	57276.4	56335.85
822.1897	572.958	56677.45	55741.7
822.3342	575.0942	56908.55	55974.7
822.4786	577.2299	56577.6	55645.1
822.6231	579.3648	56511.7	55594.95
822.7675	581.4992	56370.7	55459.35
822.912	583.6329	56361	55454.25
823.0565	585.766	56422.7	55508.2
823.201	587.8985	56579.8	55659.1
823.3454	590.0304	56117.65	55161.1
823.4899	592.1616	56367.65	55428.65
823.6345	594.2922	56169.95	55232.35
823.779	596.4222	55925.75	54980.75
823.9235	598.5515	55861.25	54914.2
824.068	600.6802	55850.9	54905.6
824.2126	602.8083	55493.2	54554.05
824.3571	604.9358	55491.1	54548.75
824.5017	607.0626	55674.1	54730.85
824.6462	609.1888	55342.95	54386.2
824.7908	611.3144	55576.45	54624.9
824.9354	613.4393	55379.55	54428.4
825.08	615.5636	55200.5	54250.9
825.2246	617.6873	55321.9	54376.15
825.3692	619.8103	55129.75	54182.75
825.5138	621.9327	55211.95	54263.1
825.6584	624.0544	55197.1	54256.9
825.803	626.1756	55069.3	54128.55
825.9477	628.2961	54988.75	54045.25
826.0923	630.4159	54824.85	53877.75
826.237	632.5351	54816	53868.4
826.3816	634.6537	55118.05	54168.1
826.5263	636.7716	54701.25	53746.7
826.6709	638.8889	54762.3	53810.35
826.8156	641.0056	54782.45	53827.55
826.9603	643.1216	54823.5	53871.1
827.105	645.237	54932.35	53978.9
827.2497	647.3518	54645.95	53705.5
827.3944	649.4659	54711.5	53775.2
827.5391	651.5793	54667.25	53727.35
827.6838	653.6922	54674.95	53730.4
827.8285	655.8043	54420.35	53479.5
827.9733	657.9159	54738.5	53794.55
828.118	660.0268	54104	53161.25
828.2627	662.137	54356.35	53404.75
828.4075	664.2466	54389.35	53433.9
828.5522	666.3556	54320.3	53367.65
828.697	668.4639	54293.95	53347.45
828.8418	670.5716	54177.2	53237.95
828.9865	672.6786	54302.55	53354.6
829.1313	674.785	54104.45	53149.5
829.2761	676.8907	54079.55	53130.55
829.4209	678.9958	54171	53228.2
829.5657	681.1002	54151.9	53204.25
829.7105	683.204	53973.8	53015.6
829.8553	685.3072	53831.1	52873.35
830.0001	687.4097	53811.4	52858.05
830.1449	689.5115	53764.15	52810.75
830.2898	691.6127	53892.75	52940.45
830.4346	693.7132	53714.9	52768.45
830.5794	695.8131	53693.7	52725.1
830.7243	697.9123	53704.1	52745.3
830.8691	700.0109	53739.65	52780
831.014	702.1089	53495.1	52541.35
831.1588	704.2061	53558.75	52606.15
831.3037	706.3028	53541.35	52586.7
831.4486	708.3987	53546.9	52591.85
831.5935	710.4941	53487.2	52537.3
831.7383	712.5887	53584.65	52630.6
831.8832	714.6827	53573.8	52617.1
832.0281	716.7761	53748.45	52800.85
832.173	718.8688	53824.3	52872.75
832.3179	720.9608	53699.5	52742.15
832.4628	723.0522	53774.7	52808.35
832.6077	725.1429	53550	52592.65
832.7527	727.233	53721.35	52762.6
832.8976	729.3224	53298.15	52340.95
833.0425	731.4112	53294.7	52339.65
833.1874	733.4993	53182.55	52225.9
833.3324	735.5867	53090.2	52135.7
833.4773	737.6735	52968.95	52014.65
833.6222	739.7596	52780.15	51823.8
833.7672	741.845	52699.45	51745.85
833.9122	743.9298	52735.25	51779.2
834.0571	746.014	52618.2	51665.2
834.2021	748.0974	52521.55	51556.65
834.347	750.1802	52531.6	51568.95
834.492	752.2624	52283.2	51322.55
834.637	754.3439	52281.5	51322.8
834.782	756.4247	52294.95	51326.55
834.9269	758.5048	52108.85	51148.4
835.0719	760.5843	52274.4	51310.3
835.2169	762.6631	52325.65	51362.45
835.3619	764.7413	52424.65	51467.85
835.5069	766.8188	52672.5	51713
835.6519	768.8956	52699.7	51735.3
835.7969	770.9718	52854	51895.4
835.9419	773.0473	52654.55	51695.9
836.0869	775.1221	52444.8	51483.6
836.232	777.1962	52251.6	51291.85
836.377	779.2697	52085.4	51124.2
836.522	781.3426	52064.75	51096.15
836.667	783.4147	52029.8	51069.6
836.8121	785.4862	52105.05	51146.6
836.9571	787.557	52019.7	51054.95
837.1021	789.6271	51917.85	50955.5
837.2472	791.6966	51586.8	50625.65
837.3922	793.7654	51245.6	50286.9
837.5373	795.8335	51118.95	50158.9
837.6823	797.901	50942.95	49983.5
837.8274	799.9678	50859.2	49897.6
837.9724	802.0339	50767.65	49807.85
838.1175	804.0993	50758.45	49788.3
838.2626	806.1641	50652.95	49687.5
838.4076	808.2282	50566.05	49607.95
838.5527	810.2916	50445.1	49482.1
838.6978	812.3544	50465.75	49509.1
838.8428	814.4164	50164.15	49204.8
838.9879	816.4778	50267.55	49304.3
839.133	818.5385	50191.55	49224.8
839.2781	820.5986	50183.65	49216.9
839.4232	822.658	50242.35	49279.3
839.5682	824.7166	50211.05	49250.7
839.7133	826.7747	50284.75	49320.8
839.8584	828.832	50393.3	49430
840.0035	830.8886	50451.55	49484.85
840.1486	832.9446	50473.5	49508.75
840.2937	834.9999	50141.7	49180
840.4388	837.0545	50179.8	49212.95
840.5839	839.1085	50173.85	49210.65
840.729	841.1618	50009.1	49036.8
840.8741	843.2143	49766.4	48799.85
841.0192	845.2662	49634.55	48671.15
841.1643	847.3175	49683.3	48720.3
841.3095	849.368	49282.3	48317.5
841.4546	851.4179	49394.15	48427.55
841.5997	853.467	49030.75	48067.8
841.7448	855.5155	49090.2	48127.15
841.8899	857.5633	48843.05	47880.35
842.0351	859.6105	48700.8	47737.35
842.1802	861.6569	48740.25	47773.3
842.3253	863.7027	48445.7	47475.25
842.4704	865.7478	48496.05	47531.2
842.6156	867.7922	48434.7	47467.2
842.7607	869.8359	48464.25	47503.45
842.9058	871.8789	48210.5	47249.3
843.0509	873.9212	48393.35	47396.4
843.1961	875.9629	48341.15	47376.1
843.3412	878.0039	48368.75	47403.55
843.4863	880.0441	48293.75	47330.2
843.6315	882.0837	48284.3	47324.9
843.7766	884.1226	48228.35	47264.4
843.9218	886.1609	48173.2	47209.7
844.0669	888.1984	47993.6	47030.4
844.212	890.2352	48173.4	47208.25
844.3572	892.2714	47866.25	46894.35
844.5023	894.3069	47967.35	47000.25
844.6475	896.3416	47706.4	46739.8
844.7926	898.3757	47620.45	46650.55
844.9377	900.4091	47278	46308
845.0829	902.4418	47572.8	46600.75
845.228	904.4739	47289.2	46320.6
845.3732	906.5052	47328.55	46356.7
845.5183	908.5358	47075.05	46104.35
845.6635	910.5658	46892.85	45922.5
845.8086	912.595	46778.5	45811.35
845.9538	914.6236	46362.95	45395.95
846.0989	916.6515	46739.85	45773.35
846.2441	918.6786	46150.9	45184.05
846.3892	920.7051	46284.05	45317.25
846.5344	922.7309	46258.7	45291.15
846.6795	924.756	46210.55	45242.7
846.8246	926.7804	46105.9	45136
846.9698	928.8041	45682.05	44713.25
847.1149	930.8272	45853.15	44887.65
847.2601	932.8495	45727	44757.2
847.4052	934.8711	45484.85	44517.8
847.5504	936.892	45231.8	44264.75
847.6955	938.9123	45186.6	44218.4
847.8407	940.9318	45014.3	44049.25
847.9858	942.9506	44868.7	43902
848.131	944.9688	44795.35	43827.15
848.2761	946.9862	44443.95	43479.75
848.4213	949.003	44370.4	43402.35
848.5664	951.019	44052	43085.5
848.7115	953.0344	44035.9	43070.75
848.8567	955.0491	44000	43035.3
849.0018	957.063	44119.2	43152.85
849.147	959.0763	44171.7	43198.3
849.2921	961.0888	43927.45	42961.2
849.4373	963.1007	44090.2	43124.35
849.5824	965.1119	44022.55	43064.75
849.7275	967.1223	43827.55	42881.3
849.8727	969.1321	43918.8	42968.2
850.0178	971.1412	43680.9	42725.1
850.1629	973.1495	43541.75	42579.2
850.3081	975.1572	43586.4	42584
850.4532	977.1641	43462.85	42496.25
850.5983	979.1704	43336.15	42370.2
850.7435	981.1759	43294	42323.7
850.8886	983.1808	43155.1	42188.3
851.0337	985.1849	43133.35	42157.6
851.1788	987.1884	43091.6	42125.3
851.324	989.1911	43225.6	42256.7
851.4691	991.1932	42997	42032.8
851.6142	993.1945	42962	41999.8
851.7593	995.1951	42836.6	41868.2
851.9045	997.1951	42697.45	41727.75
852.0496	999.1943	42534.8	41568.8
852.1947	1001.1928	42390.05	41426.3
852.3398	1003.1906	42306.65	41340.4
852.4849	1005.1877	42163.65	41197.8
852.63	1007.1841	42061.15	41101.6
852.7751	1009.1798	41898.8	40939
852.9202	1011.1748	41695.95	40733.9
853.0653	1013.1691	41544.55	40579.55
853.2104	1015.1627	41120.55	40155.05
853.3555	1017.1556	40843.6	39881.9
853.5006	1019.1477	40808.1	39847.2
853.6457	1021.1392	40478.75	39523.25
853.7908	1023.1299	40252.15	39302
853.9359	1025.12	40207.25	39258.65
854.081	1027.1093	40050.75	39114.8
854.2261	1029.0979	40048.7	39116.25
854.3712	1031.0859	39964.3	39029.1
854.5163	1033.0731	39788.95	38839.5
854.6613	1035.0596	39706.35	38752.5
854.8064	1037.0454	39443.75	38488.45
854.9515	1039.0304	39275.9	38315.85
855.0965	1041.0148	39022.05	38062.6
855.2416	1042.9985	38894.25	37936.5
855.3867	1044.9814	38928.2	37970.55
855.5317	1046.9636	38605.65	37646
855.6768	1048.9452	38507.9	37552.1
855.8219	1050.926	38456.8	37500.15
855.9669	1052.9061	38341.5	37383.75
856.112	1054.8855	38290.1	37331.9
856.257	1056.8642	38199.8	37239.95
856.4021	1058.8421	38158.5	37193.9
856.5471	1060.8194	38056.2	37095.95
856.6921	1062.7959	37959.25	36998.8
856.8372	1064.7717	37980.85	37017.4
856.9822	1066.7469	37890.7	36928.6
857.1272	1068.7213	37832.6	36870.3
857.2723	1070.695	37737.9	36777.55
857.4173	1072.6679	37579.1	36618.1
857.5623	1074.6402	37536.65	36575.95
857.7073	1076.6117	37418.35	36453.85
857.8523	1078.5826	37319.6	36361.8
857.9973	1080.5527	37258.95	36292.95
858.1423	1082.5221	37082.1	36122.05
858.2873	1084.4908	37125.15	36163
858.4323	1086.4587	37088.9	36131
858.5773	1088.426	37114.4	36152.4
858.7223	1090.3925	36954.2	35984.8
858.8673	1092.3584	36910.3	35952.65
859.0123	1094.3235	36688.75	35730.55
859.1573	1096.2879	36568	35609.8
859.3022	1098.2515	36536.05	35577.9
859.4472	1100.2145	36564.25	35605.75
859.5922	1102.1767	36475.85	35516.05
859.7371	1104.1382	36583.1	35626
859.8821	1106.099	36617.35	35655.5
860.027	1108.0591	36646.05	35688.15
860.172	1110.0185	36594.25	35630.75
860.3169	1111.9771	36673.5	35714.4
860.4619	1113.9351	36384.65	35427
860.6068	1115.8923	36118.7	35161.8
860.7517	1117.8488	35869.05	34910.45
860.8967	1119.8045	35524.5	34569.8
861.0416	1121.7596	35405.1	34445.4
861.1865	1123.7139	35276.4	34320.75
861.3314	1125.6675	35207.3	34253.95
861.4763	1127.6204	35222.65	34267.6
861.6212	1129.5726	35074.5	34114.6
861.7661	1131.524	34995.15	34038.3
861.911	1133.4748	34922.25	33965.45
862.0559	1135.4248	34728.1	33767.8
862.2008	1137.3741	34641.25	33682.6
862.3457	1139.3226	34495.9	33536.3
862.4905	1141.2705	34479.8	33525.5
862.6354	1143.2176	34160.75	33198.1
862.7803	1145.164	34109.4	33150.4
862.9251	1147.1097	34028.05	33069.6
863.07	1149.0546	33936.4	32977.55
863.2148	1150.9989	33872.6	32914.3
863.3597	1152.9424	33736.8	32779.35
863.5045	1154.8852	33598.45	32641.5
863.6493	1156.8272	33441	32483.05
863.7942	1158.7686	33482.65	32520.8
863.939	1160.7092	33321.05	32359.85
864.0838	1162.6491	33179.75	32219.5
864.2286	1164.5883	33220.8	32263.05
864.3734	1166.5267	33157	32200.45
864.5182	1168.4644	33263	32307.15
864.663	1170.4014	33242.3	32280.2
864.8078	1172.3377	33417.45	32464.4
864.9526	1174.2732	33551	32594.05
865.0974	1176.2081	33719.2	32764.1
865.2421	1178.1421	33799.6	32840.3
865.3869	1180.0755	34067.55	33111.8
865.5317	1182.0082	34057.7	33103.8
865.6764	1183.9401	34126.9	33170.4
865.8212	1185.8713	33901.85	32952.5
865.9659	1187.8017	33679.15	32737.95
866.1106	1189.7315	33440.9	32508.9
866.2554	1191.6605	33049.25	32119.15
866.4001	1193.5888	32746.1	31806.55
866.5448	1195.5163	32593.05	31643.55
866.6895	1197.4432	32412.55	31460.5
866.8342	1199.3693	32368.95	31418.25
866.9789	1201.2947	32169.9	31218.65
867.1236	1203.2193	32102.45	31148.15
867.2683	1205.1432	32014.7	31059.8
867.413	1207.0664	31923.4	30973.6
867.5576	1208.9889	31838.6	30883.8
867.7023	1210.9106	31766.55	30815.65
867.847	1212.8316	31647.75	30698
867.9916	1214.7519	31681.8	30721.25
868.1363	1216.6715	31575	30623.6
868.2809	1218.5903	31526	30575.25
868.4255	1220.5084	31435.5	30483.95
868.5701	1222.4257	31389.7	30440.4
868.7148	1224.3424	31254	30306.4
868.8594	1226.2583	31277.05	30326.95
869.004	1228.1735	31292.1	30344.25
869.1486	1230.0879	31252.9	30300.85
869.2932	1232.0016	31234.9	30283.05
869.4377	1233.9146	31195.25	30241.55
869.5823	1235.8269	31100.2	30147.55
869.7269	1237.7384	30992	30040.7
869.8715	1239.6492	30773.75	29826.35
870.016	1241.5592	30647.65	29697.7
870.1606	1243.4686	30527.45	29574.9
870.3051	1245.3772	30508.35	29559.1
870.4496	1247.285	30487.95	29538.55
870.5941	1249.1922	30404.15	29456.9
870.7387	1251.0986	30402.55	29455.2
870.8832	1253.0042	30252.35	29300.8
871.0277	1254.9092	30241.25	29292.75
871.1722	1256.8134	30258	29311.35
871.3167	1258.7169	30350.9	29404.1
871.4611	1260.6196	30291.85	29345.55
871.6056	1262.5216	30466.1	29517.65
871.7501	1264.4229	30531.25	29583.9
871.8945	1266.3234	30618.55	29670.5
872.039	1268.2232	30619	29670
872.1834	1270.1223	30553.3	29604.25
872.3278	1272.0207	30540.1	29590
872.4723	1273.9183	30430.35	29476.35
872.6167	1275.8151	30332.15	29384.65
872.7611	1277.7113	30247.5	29299.5
872.9055	1279.6067	30112.85	29163.35
873.0499	1281.5014	30061.75	29111.75
873.1943	1283.3953	30072.65	29125.85
873.3386	1285.2885	30182.7	29236.75
873.483	1287.181	30267.5	29320.15
873.6274	1289.0727	30444.1	29498.8
873.7717	1290.9637	30407.2	29459.2
873.9161	1292.854	30568.95	29622.8
874.0604	1294.7435	30502.9	29553
874.2047	1296.6323	30508.65	29561.1
874.349	1298.5204	30494.15	29546.7
874.4933	1300.4077	30499.65	29552.4
874.6376	1302.2943	30459.4	29513.25
874.7819	1304.1802	30350.25	29403.9
874.9262	1306.0653	30088.5	29140.65
875.0705	1307.9497	29805.55	28857.6
875.2147	1309.8333	29633.55	28685.05
875.359	1311.7162	29408.75	28462.2
875.5032	1313.5984	29434.55	28482.05
875.6475	1315.4798	29263.95	28305.8
875.7917	1317.3605	29234.9	28269.6
875.9359	1319.2405	29284.15	28331.05
876.0801	1321.1197	29112.15	28162.3
876.2243	1322.9982	28924.5	27970.9
876.3685	1324.876	28808.55	27862.45
876.5127	1326.753	28630.55	27686.65
876.6569	1328.6293	28580.4	27631.95
876.801	1330.5048	28550	27597.35
876.9452	1332.3796	28358.05	27411.1
877.0893	1334.2537	28322.5	27351.1
877.2335	1336.127	28219.7	27275.85
877.3776	1337.9996	28149.05	27205.7
877.5217	1339.8714	28103.7	27158.45
877.6658	1341.7426	28030.4	27038.65
877.8099	1343.6129	28015.4	27066.75
877.954	1345.4826	27930.85	26982.15
878.0981	1347.3515	27939.05	26989.2
878.2422	1349.2196	27826.3	26876.65
878.3862	1351.087	27816.65	26870
878.5303	1352.9537	27804.85	26855.55
878.6743	1354.8197	27874.2	26929.3
878.8184	1356.6849	27990.05	27044.1
878.9624	1358.5493	27950.2	27002.7
879.1064	1360.4131	27975.7	27030.55
879.2504	1362.276	27969.05	27027.1
879.3944	1364.1383	27808.25	26862.75
879.5384	1365.9998	27598.8	26645.5
879.6823	1367.8606	27305.55	26356.5
879.8263	1369.7206	27033.75	26087.9
879.9702	1371.5799	26777.4	25825.9
880.1142	1373.4384	26582.75	25635
880.2581	1375.2962	26417.25	25472.4
880.402	1377.1533	26107.6	25166.3
880.5459	1379.0096	25795.65	24853.05
880.6898	1380.8652	25519.6	24580.75
880.8337	1382.7201	25272.3	24331.05
880.9776	1384.5742	24993.75	24048.25
881.1215	1386.4275	24793.1	23848
881.2653	1388.2802	24642.9	23698.35
881.4092	1390.132	24468.25	23524.2
881.553	1391.9832	24375.5	23429
881.6968	1393.8336	24233.05	23287.8
881.8406	1395.6832	24158.25	23210.5
881.9844	1397.5322	24018.45	23076.3
882.1282	1399.3803	23963.05	23014.85
882.272	1401.2278	23813.85	22872.65
882.4158	1403.0745	23777.6	22834
882.5595	1404.9204	23648.45	22707.75
882.7033	1406.7656	23637.85	22692.5
882.847	1408.6101	23546.65	22603.85
882.9908	1410.4538	23525.55	22579.6
883.1345	1412.2968	23514.3	22570.45
883.2782	1414.139	23413.95	22469.95
883.4219	1415.9805	23460.3	22514.95
883.5656	1417.8213	23439.45	22476.1
883.7092	1419.6613	23449.3	22506.95
883.8529	1421.5006	23489.45	22548.35
883.9965	1423.3391	23622	22676.75
884.1402	1425.1769	23720.3	22777.75
884.2838	1427.0139	23989.55	23045.75
884.4274	1428.8502	24384.3	23440.75
884.571	1430.6858	24680.2	23741.25
884.7146	1432.5206	24865.45	23921.8
884.8582	1434.3547	25033.85	24090.45
885.0018	1436.188	25037.15	24093.2
885.1453	1438.0206	24994.65	24050.6
885.2889	1439.8524	24735.45	23794.7
885.4324	1441.6835	24669	23724.9
885.5759	1443.5139	24543.3	23599.1
885.7194	1445.3435	24424.65	23485.5
885.8629	1447.1724	24394.75	23454.1
886.0064	1449.0005	24307.65	23369
886.1499	1450.8279	24143.8	23201.95
886.2933	1452.6545	24138.05	23197.95
886.4368	1454.4804	24123.9	23186.9
886.5802	1456.3056	24076.6	23128.05
886.7237	1458.13	24007.35	23069.15
886.8671	1459.9536	23877.85	22936.8
887.0105	1461.7766	23606.95	22665.8
887.1539	1463.5987	23304.9	22365.15
887.2972	1465.4202	23026.8	22089.2
887.4406	1467.2409	22687.55	21745.4
887.584	1469.0608	22519.55	21582.1
887.7273	1470.88	22299.3	21360.05
887.8706	1472.6984	22074.1	21135.4
888.0139	1474.5161	21884.1	20942.05
888.1572	1476.3331	21708.55	20771.7
888.3005	1478.1493	21606.1	20667.05
888.4438	1479.9648	21521.9	20582.65
888.5871	1481.7795	21447.5	20507.8
888.7303	1483.5935	21407.65	20465.1
888.8736	1485.4067	21290.45	20349
889.0168	1487.2192	21225.7	20286.7
889.16	1489.031	21185.4	20245.45
889.3032	1490.842	21111.1	20173.45
889.4464	1492.6522	21051.4	20114.05
889.5896	1494.4618	20944	20004.45
889.7327	1496.2705	20961.85	20024.95
889.8759	1498.0785	20888.25	19950.35
890.019	1499.8858	20835.3	19896.9
890.1622	1501.6924	20721.4	19782.75
890.3053	1503.4981	20690.8	19752.2
890.4484	1505.3032	20677.55	19742.3
890.5914	1507.1075	20618.6	19680.7
890.7345	1508.911	20530.45	19593.85
890.8776	1510.7138	20471.1	19534.45
891.0206	1512.5159	20384.9	19448.05
891.1637	1514.3172	20305.3	19369.85
891.3067	1516.1178	20213.8	19279.05
891.4497	1517.9176	20189.15	19249.5
891.5927	1519.7166	20087.55	19151.4
891.7357	1521.515	20059.7	19117.45
891.8786	1523.3126	19985.1	19050.95
892.0216	1525.1094	19909.35	18972.1
892.1645	1526.9055	19846.5	18912.1
892.3074	1528.7008	19750.75	18816.9
892.4503	1530.4954	19611.25	18668.2
892.5932	1532.2893	19602.6	18671.35
892.7361	1534.0824	19509.05	18574.1
892.879	1535.8747	19518.05	18589.2
893.0218	1537.6663	19445.9	18515.4
893.1647	1539.4572	19386.7	18455.8
893.3075	1541.2473	19351.9	18420.7
893.4503	1543.0367	19296.75	18366.15
893.5931	1544.8253	19188.75	18252.85
893.7359	1546.6132	19197.5	18262.5
893.8787	1548.4003	19128.95	18187.95
894.0214	1550.1867	19107.2	18165.5
894.1642	1551.9723	19067.85	18136
894.3069	1553.7572	19095.9	18165.15
894.4496	1555.5414	19107.65	18180.25
894.5923	1557.3247	19121.95	18194.35
894.735	1559.1074	19128.15	18206.8
894.8777	1560.8893	19164.45	18240.05
895.0204	1562.6705	19188.6	18264.5
895.163	1564.4509	19242.45	18319.85
895.3056	1566.2305	19184.15	18265.65
895.4482	1568.0094	19250.85	18333.4
895.5908	1569.7876	19254.6	18332.55
895.7334	1571.565	19220.1	18295.55
895.876	1573.3417	19257.55	18332.5
896.0186	1575.1176	19144.45	18221.75
896.1611	1576.8928	19080.25	18160.5
896.3036	1578.6672	19022.8	18110.85
896.4461	1580.4409	18955.15	18040.85
896.5886	1582.2138	18843.5	17925.9
896.7311	1583.986	18777.45	17858.35
896.8736	1585.7575	18730.7	17811.25
897.0161	1587.5282	18669.45	17752.55
897.1585	1589.2981	18683.05	17769.2
897.3009	1591.0673	18618.8	17705.5
897.4433	1592.8358	18624.25	17709.1
897.5857	1594.6035	18610.25	17688.65
897.7281	1596.3704	18576.5	17654.6
897.8705	1598.1366	18584.6	17664.5
898.0128	1599.9021	18587.5	17671.2
898.1551	1601.6668	18551.65	17630
898.2975	1603.4308	18592.5	17673.2
898.4398	1605.194	18662.7	17739.4
898.5821	1606.9564	18732.25	17821.15
898.7243	1608.7182	18823.1	17913.6
898.8666	1610.4791	18925.35	18021.75
899.0088	1612.2394	19008.95	18107.2
899.1511	1613.9988	19122.95	18215
899.2933	1615.7576	19297.7	18387.8
899.4355	1617.5156	19444.85	18522.95
899.5776	1619.2728	19538.9	18617.2
899.7198	1621.0293	19533.75	18616.05
899.862	1622.785	19460.85	18544.65
900.0041	1624.54	19238.35	18325.05
900.1462	1626.2942	19059.25	18149.55
900.2883	1628.0477	18804.9	17890.3
900.4304	1629.8005	18629.95	17717.05
900.5725	1631.5525	18387.95	17475.6
900.7145	1633.3037	18182.7	17272.45
900.8566	1635.0542	18046.05	17137.1
900.9986	1636.804	17926.75	17015.05
901.1406	1638.553	17914.1	16949.5
901.2826	1640.3013	17762.9	16849.45
901.4245	1642.0488	17697.95	16783.05
901.5665	1643.7955	17714.65	16808.1
901.7085	1645.5416	17667.75	16758.8
901.8504	1647.2868	17747.25	16840.55
901.9923	1649.0313	17770.15	16856.7
902.1342	1650.7751	17839.25	16926.1
902.2761	1652.5181	17916.45	17007.35
902.4179	1654.2604	17968.2	17060.5
902.5598	1656.0019	18117.75	17208.4
902.7016	1657.7427	18309.45	17398.55
902.8434	1659.4828	18453.3	17539.5
902.9852	1661.222	18572.05	17656.5
903.127	1662.9606	18551.45	17637.65
903.2687	1664.6984	18357.75	17443.95
903.4105	1666.4354	18051.85	17135.3
903.5522	1668.1717	17658	16741.9
903.6939	1669.9072	17252.05	16334.05
903.8356	1671.642	16888.8	15970.55
903.9773	1673.3761	16626.25	15710.3
904.119	1675.1094	16352.7	15441.15
904.2606	1676.8419	16151.75	15238.1
904.4022	1678.5737	15971.4	15058.2
904.5439	1680.3048	15835.2	14920.3
904.6855	1682.0351	15719.6	14804.75
904.827	1683.7646	15596.6	14681.4
904.9686	1685.4934	15514.1	14598.4
905.1101	1687.2215	15426.85	14513.3
905.2517	1688.9488	15332.05	14420.5
905.3932	1690.6754	15218.3	14306.3
905.5347	1692.4012	15181.5	14269.1
905.6761	1694.1263	15138.15	14223.65
905.8176	1695.8506	15091.1	14178.45
905.9591	1697.5742	15012.75	14102.6
906.1005	1699.297	14954.85	14048.35
906.2419	1701.0191	14852.45	13948.25
906.3833	1702.7404	14815.75	13909.75
906.5246	1704.461	14712.95	13802.5
906.666	1706.1808	14687.95	13777.75
906.8073	1707.8999	14628.05	13719
906.9487	1709.6182	14597.05	13695.05
907.09	1711.3358	14537.7	13638.05
907.2313	1713.0527	14488.05	13587.55
907.3725	1714.7688	14415.5	13507.85
907.5138	1716.4841	14382.4	13474.7
907.655	1718.1987	14346.75	13435.5
907.7962	1719.9126	14258.7	13357.2
907.9374	1721.6257	14213.45	13309.6
908.0786	1723.338	14214.2	13314.05
908.2198	1725.0496	14168.45	13264.5
908.3609	1726.7605	14115.8	13210.95
908.502	1728.4706	14072.75	13169.05
908.6431	1730.18	13952.75	13047.85
908.7842	1731.8886	13938.65	13039.3
908.9253	1733.5964	13936.25	13013.5
909.0664	1735.3036	13847.95	12940.7
909.2074	1737.0099	13824.45	12920.85
909.3484	1738.7156	13802.45	12902.15
909.4894	1740.4204	13765.2	12858.8
909.6304	1742.1246	13726.05	12819.4
909.7714	1743.8279	13684.2	12781.75
909.9123	1745.5306	13646.4	12743.9
910.0532	1747.2325	13573.2	12672.65
910.1941	1748.9336	13522.7	12619.1
910.335	1750.634	13488.9	12580.5
910.4759	1752.3336	13458.7	12556.1
910.6168	1754.0325	13441.35	12541.55
910.7576	1755.7307	13397.9	12498.1
910.8984	1757.4281	13386.1	12481.9
911.0392	1759.1247	13365.65	12452.2
911.18	1760.8206	13313.75	12400.45
911.3208	1762.5158	13316.75	12408.15
911.4615	1764.2102	13251.95	12346.35
911.6022	1765.9039	13204.95	12305
911.7429	1767.5968	13165.8	12267.75
911.8836	1769.289	13146.8	12247.4
912.0243	1770.9804	13119.3	12215.55
912.1649	1772.6711	13090.4	12182.85
912.3056	1774.361	13077.5	12173.45
912.4462	1776.0502	13050.85	12144.45
912.5868	1777.7386	13030.05	12125.35
912.7274	1779.4263	13014.25	12112.5
912.8679	1781.1132	12963.3	12064.3
913.0084	1782.7994	12903	12002.95
913.149	1784.4849	12865.9	11970
913.2895	1786.1696	12830.6	11926.7
913.4299	1787.8535	12836.15	11942.35
913.5704	1789.5367	12780.2	11884.4
913.7108	1791.2192	12788.05	11889.55
913.8513	1792.9009	12731.2	11804.15
913.9917	1794.5818	12678.7	11772.9
914.132	1796.2621	12671.55	11767.95
914.2724	1797.9415	12644.3	11741.5
914.4128	1799.6202	12598.75	11695.7
914.5531	1801.2982	12579.65	11676.45
914.6934	1802.9755	12552.95	11647.55
914.8337	1804.6519	12556.65	11654.05
914.9739	1806.3277	12482.3	11582.3
915.1142	1808.0027	12426.7	11529.55
915.2544	1809.6769	12411.9	11517.1
915.3946	1811.3504	12371.05	11473.55
915.5348	1813.0231	12362.2	11464.5
915.675	1814.6951	12343.2	11443.4
915.8151	1816.3664	12360.85	11459.55
915.9553	1818.0369	12340.2	11437.5
916.0954	1819.7067	12271.45	11371.3
916.2355	1821.3757	12254.8	11349.6
916.3755	1823.044	12226.95	11323.3
916.5156	1824.7115	12184.5	11281.8
916.6556	1826.3783	12127.9	11226.25
916.7956	1828.0443	12099.75	11201.05
916.9356	1829.7096	12105.75	11204.85
917.0756	1831.3741	12109.3	11205.35
917.2155	1833.0379	12061.15	11163.35
917.3555	1834.701	12047.25	11149.35
917.4954	1836.3633	12010.05	11112.5
917.6353	1838.0248	11964.15	11064.3
917.7751	1839.6856	11936.5	11035.85
917.915	1841.3457	11914.5	11014.05
918.0548	1843.005	11906.75	11002.45
918.1946	1844.6636	11894.55	10994.35
918.3344	1846.3214	11846.25	10946.5
918.4742	1847.9785	11840.3	10942.1
918.6139	1849.6349	11828.2	10924.85
918.7537	1851.2904	11803.9	10889.85
918.8934	1852.9453	11782.1	10880.05
919.0331	1854.5994	11728.45	10824.95
919.1727	1856.2528	11725.25	10816.75
919.3124	1857.9054	11710.35	10808.1
919.452	1859.5572	11697.9	10798.1
919.5916	1861.2083	11666.8	10764.85
919.7312	1862.8587	11657.45	10755.9
919.8708	1864.5084	11621.15	10717.1
920.0103	1866.1572	11591.65	10686.65
920.1498	1867.8054	11527.3	10621.1
920.2893	1869.4528	11518.85	10615.1
920.4288	1871.0994	11463.4	10560.75
920.5683	1872.7453	11449.85	10545
920.7077	1874.3905	11435.05	10525.8
920.8471	1876.0349	11397.85	10494
920.9865	1877.6786	11407.15	10503.8
921.1259	1879.3215	11384.2	10484.85
921.2653	1880.9637	11378.6	10475.1
921.4046	1882.6051	11333.7	10434.1
921.5439	1884.2458	11292.1	10392.6
921.6832	1885.8858	11267.3	10366.1
921.8225	1887.525	11266.2	10363.4
921.9617	1889.1634	11215.05	10314.55
922.101	1890.8011	11160.5	10256.2
922.2402	1892.4381	11149.45	10247.2
922.3794	1894.0743	11142.6	10240.5
922.5185	1895.7098	11111.2	10209.8
922.6577	1897.3446	11105.7	10202.25
922.7968	1898.9786	11056.15	10151.45
922.9359	1900.6118	11065	10165.6
923.075	1902.2443	11009.7	10108.25
923.214	1903.8761	10968.75	10068.55
923.3531	1905.5071	10915.55	10015.15
923.4921	1907.1374	10889	9988.3
923.6311	1908.7669	10860	9960.85
923.77	1910.3957	10825.15	9925.4
923.909	1912.0237	10778.25	9878.15
924.0479	1913.651	10774.1	9871.05
924.1868	1915.2776	10748	9851.35
924.3257	1916.9034	10693.45	9796.6
924.4646	1918.5285	10643.7	9745.4
924.6034	1920.1528	10602.65	9704.6
924.7422	1921.7764	10597.4	9695.75
924.881	1923.3992	10576.05	9677.5
925.0198	1925.0213	10503.65	9606.4
925.1586	1926.6427	10463.7	9562.8
925.2973	1928.2633	10503.8	9536.8
925.436	1929.8832	10447.55	9546.4
925.5747	1931.5023	10384.15	9482.6
925.7134	1933.1207	10354.35	9453.45
925.852	1934.7383	10338.95	9437.9
925.9906	1936.3552	10296.75	9398.6
926.1292	1937.9714	10270.8	9372.4
926.2678	1939.5868	10239.4	9338.15
926.4064	1941.2015	10182.5	9280.9
926.5449	1942.8154	10141.9	9240.1
926.6834	1944.4286	10113.5	9212.85
926.8219	1946.041	10094.3	9176.55
926.9604	1947.6528	10042.2	9135.25
927.0988	1949.2637	10024.1	9126.9
927.2372	1950.8739	10002.3	9105.65
927.3756	1952.4834	9987.85	9088.25
927.514	1954.0921	9950.55	9051.3
927.6523	1955.7001	9917.85	9015.15
927.7907	1957.3074	9908.65	9015.45
927.929	1958.9139	9854.65	8961.45
928.0673	1960.5197	9823.05	8928.4
928.2055	1962.1247	9776.25	8881.95
928.3438	1963.729	9753.8	8859.65
928.482	1965.3325	9720.8	8802.7
928.6202	1966.9353	9677.6	8785.25
928.7584	1968.5374	9646.25	8750.95
928.8965	1970.1387	9636.3	8742.15
929.0346	1971.7393	9601.05	8706.6
929.1727	1973.3392	9586.3	8691.7
929.3108	1974.9383	9541.35	8647.5
929.4489	1976.5366	9482.3	8588.3
929.5869	1978.1342	9467.35	8576.65
929.7249	1979.7311	9457.65	8567.35
929.8629	1981.3273	9425.6	8534.1
930.0009	1982.9227	9374.8	8484.85
930.1388	1984.5173	9363.6	8473.8
930.2767	1986.1112	9324.85	8434.2
930.4146	1987.7044	9315.65	8425.1
930.5525	1989.2968	9281.4	8389.2
930.6904	1990.8885	9264.35	8372.05
930.8282	1992.4795	9247.95	8356.05
930.966	1994.0697	9229	8339.55
931.1038	1995.6592	9167.65	8279.05
931.2415	1997.2479	9170.2	8279.25
931.3793	1998.8359	9123.35	8233.9
931.517	2000.4232	9093.6	8207.05
931.6547	2002.0097	9064.4	8178.85
931.7923	2003.5955	9040.4	8155.1
931.93	2005.1805	9024.5	8136.3
932.0676	2006.7648	9017.65	8129.45
932.2052	2008.3484	8987.05	8100.75
932.3427	2009.9312	9002	8114.85
932.4803	2011.5133	8947.1	8063.9
932.6178	2013.0946	8917.3	8030.5
932.7553	2014.6752	8884.75	7997.2
932.8928	2016.2551	8867.5	7977.75
933.0302	2017.8342	8868.35	7979.45
933.1676	2019.4126	8812.8	7927.35
933.305	2020.9902	8774.2	7890.8
933.4424	2022.5672	8763.25	7878.45
933.5798	2024.1433	8747	7857.55
933.7171	2025.7188	8722.55	7840
933.8544	2027.2935	8683.25	7798.3
933.9917	2028.8674	8667.8	7782.85
934.129	2030.4406	8642	7759.35
934.2662	2032.0131	8599.6	7716.2
934.4034	2033.5849	8580.3	7691.05
934.5406	2035.1559	8573.75	7690.7
934.6778	2036.7261	8531.9	7648.25
934.8149	2038.2957	8544.05	7657.25
934.952	2039.8645	8501.15	7610.4
935.0891	2041.4325	8509.35	7616.8
935.2262	2042.9998	8489.1	7602.85
935.3632	2044.5664	8454.7	7568.2
935.5002	2046.1323	8430.85	7547.55
935.6372	2047.6974	8389.2	7506.95
935.7742	2049.2617	8369.15	7486.6
935.9111	2050.8254	8386.05	7475.3
936.048	2052.3883	8350.45	7460.5
936.1849	2053.9504	8335.3	7447.25
936.3218	2055.5118	8297.85	7409.95
936.4586	2057.0725	8260.75	7372.35
936.5955	2058.6325	8256.6	7371.4
936.7323	2060.1917	8237.7	7355.2
936.869	2061.7502	8227.3	7341.65
937.0058	2063.3079	8182.05	7298.65
937.1425	2064.8649	8152.7	7263.5
937.2792	2066.4212	8167.5	7281.95
937.4159	2067.9767	8158.9	7271.05
937.5525	2069.5315	8106.4	7217.8
937.6891	2071.0856	8051.7	7165.95
937.8257	2072.6389	8024.9	7138.95
937.9623	2074.1915	7974.6	7092.45
938.0989	2075.7433	7964.85	7078.6
938.2354	2077.2945	7951.05	7065.95
938.3719	2078.8448	7927.45	7038.6
938.5084	2080.3945	7899.45	7012.4
938.6448	2081.9434	7892.85	7006.25
938.7812	2083.4916	7861.35	6969.7
938.9176	2085.039	7837.45	6943.1
939.054	2086.5857	7828.35	6932.2
939.1903	2088.1317	7844.15	6950.25
939.3267	2089.677	7804.7	6911.4
939.463	2091.2215	7785.5	6893.65
939.5992	2092.7652	7753.5	6858.85
939.7355	2094.3083	7741	6848.35
939.8717	2095.8506	7735.25	6843.55
940.0079	2097.3921	7742.9	6855.2
940.1441	2098.933	7711.3	6820.85
940.2802	2100.4731	7708.95	6818
940.4163	2102.0124	7682.25	6782.85
940.5524	2103.5511	7661.75	6772.1
940.6885	2105.089	7650.3	6760.15
940.8245	2106.6261	7601.35	6711.6
940.9606	2108.1626	7596.1	6705.25
941.0965	2109.6983	7589.65	6672.3
941.2325	2111.2332	7575.25	6685.85
941.3684	2112.7675	7543.2	6652.95
941.5044	2114.301	7508.9	6615.75
941.6403	2115.8337	7501.6	6611.95
941.7761	2117.3657	7484.1	6593.1
941.912	2118.897	7452.95	6560.65
942.0478	2120.4276	7438.9	6541.8
942.1835	2121.9575	7415.85	6521.85
942.3193	2123.4866	7413.25	6519.8
942.455	2125.0149	7393.3	6499.65
942.5907	2126.5426	7352.85	6466.85
942.7264	2128.0695	7332.9	6443.45
942.8621	2129.5956	7313.25	6429.35
942.9977	2131.1211	7318.9	6428.45
943.1333	2132.6458	7303.8	6415
943.2689	2134.1698	7262.6	6370.7
943.4044	2135.693	7240.65	6344.5
943.54	2137.2155	7251.3	6357.8
943.6755	2138.7373	7242.6	6350.25
943.8109	2140.2584	7219.85	6334.85
943.9464	2141.7787	7200.9	6313.1
944.0818	2143.2983	7156.8	6275.4
944.2172	2144.8171	7126.3	6242.25
944.3526	2146.3353	7118.1	6228.15
944.4879	2147.8527	7082.6	6197.35
944.6232	2149.3693	7106.8	6214.65
944.7585	2150.8853	7061.95	6168.55
944.8938	2152.4005	7035.15	6144.8
945.029	2153.9149	7040.7	6148.7
945.1642	2155.4287	7076.8	6086.6
945.2994	2156.9417	7019	6127.2
945.4346	2158.454	6976.7	6087.5
945.5697	2159.9655	6935.5	6048.8
945.7048	2161.4764	6937.65	6050.05
945.8399	2162.9865	6914.85	6027.9
945.9749	2164.4958	6893.8	6003.9
946.1099	2166.0045	6873.7	5983.2
946.2449	2167.5124	6858	5968.95
946.3799	2169.0195	6859.35	5968.8
946.5148	2170.526	6841.3	5951.55
946.6498	2172.0317	6834.65	5945.3
946.7846	2173.5367	6804.3	5915.75
946.9195	2175.0409	6801.9	5915.7
947.0543	2176.5445	6800.1	5908.85
947.1891	2178.0473	6762.15	5869.95
947.3239	2179.5494	6739.4	5841.85
947.4587	2181.0507	6709.2	5819.6
947.5934	2182.5513	6681.55	5792.3
947.7281	2184.0512	6674.1	5784.25
947.8628	2185.5504	6644.25	5755.3
947.9974	2187.0488	6620.65	5735.45
948.132	2188.5465	6605.05	5719.4
948.2666	2190.0435	6574.1	5684.95
948.4012	2191.5397	6554.25	5665.4
948.5357	2193.0353	6548.95	5655
948.6702	2194.5301	6523.6	5629.65
948.8047	2196.0241	6510.2	5614.5
948.9392	2197.5175	6509.75	5613.55
949.0736	2199.0101	6457.3	5560.75
949.208	2200.502	6448.7	5559
949.3424	2201.9931	6420.7	5533.2
949.4767	2203.4835	6392.55	5502.9
949.611	2204.9733	6396.7	5493.15
949.7453	2206.4622	6377.3	5492.1
949.8796	2207.9505	6338.25	5449.85
950.0138	2209.438	6316.6	5430.7
950.148	2210.9248	6285.65	5397.8
950.2822	2212.4109	6292.45	5403.55
950.4164	2213.8962	6268.4	5373.35
950.5505	2215.3809	6253.8	5358.05
950.6846	2216.8648	6259.1	5363.2
950.8186	2218.3479	6232.1	5331.2
950.9527	2219.8304	6217.95	5320.05
951.0867	2221.3121	6169.6	5272.55
951.2207	2222.7931	6168.1	5276.4
951.3546	2224.2733	6155.9	5261.45
951.4886	2225.7529	6128.3	5238.4
951.6225	2227.2317	6112.35	5220.95
951.7563	2228.7098	6082.75	5195.3
951.8902	2230.1872	6075.4	5191.4
952.024	2231.6638	6071.55	5185.4
952.1578	2233.1397	6046.2	5153.4
952.2916	2234.6149	6031.65	5142.5
952.4253	2236.0894	5993.45	5104.85
952.559	2237.5632	5998.05	5106.35
952.6927	2239.0362	5978.35	5092.75
952.8263	2240.5085	5955.15	5066.25
952.9599	2241.9801	5910.7	5020.95
953.0935	2243.4509	5912.45	5017.6
953.2271	2244.921	5900.6	5008.8
953.3606	2246.3904	5889.75	4995.25
953.4941	2247.8591	5867.3	4976
953.6276	2249.3271	5839.15	4948.15
953.7611	2250.7943	5821.35	4927.55
953.8945	2252.2608	5818.45	4926.1
954.0279	2253.7266	5790.1	4899.2
954.1612	2255.1917	5794.25	4904.45
954.2946	2256.656	5753.05	4864.75
954.4279	2258.1197	5747.4	4859.25
954.5612	2259.5826	5721.7	4829.25
954.6944	2261.0447	5739.1	4846.75
954.8276	2262.5062	5717.35	4821.55
954.9608	2263.9669	5701.65	4808.65
955.094	2265.4269	5708.05	4814.95
955.2271	2266.8862	5680.55	4789.45
955.3602	2268.3448	5664	4774.75
955.4933	2269.8026	5655.3	4765.95
955.6264	2271.2598	5630.6	4743
955.7594	2272.7162	5604.8	4717.3
955.8924	2274.1719	5594.75	4703
956.0253	2275.6268	5596.8	4704.9
956.1583	2277.0811	5582.45	4689.75
956.2912	2278.5346	5569.4	4681.05
956.4241	2279.9874	5539.1	4650.45
956.5569	2281.4395	5534.05	4646.4
956.6897	2282.8908	5531.25	4636.95
956.8225	2284.3414	5517.4	4628.15
956.9553	2285.7914	5478.5	4588.3
957.088	2287.2406	5463.95	4568.55
957.2207	2288.689	5473.2	4578.95
957.3534	2290.1368	5469	4572.3
957.486	2291.5838	5435.8	4535.4
957.6186	2293.0302	5438.6	4539
957.7512	2294.4758	5415.55	4523
957.8838	2295.9206	5398.95	4504.25
958.0163	2297.3648	5367.55	4478.6
958.1488	2298.8082	5371.4	4479.7
958.2813	2300.251	5342.35	4449.65
958.4137	2301.693	5343	4446.55
958.5461	2303.1343	5336.05	4441.3
958.6785	2304.5748	5294.45	4404.5
958.8108	2306.0147	5300.6	4409.55
958.9432	2307.4538	5291.3	4400.95
959.0754	2308.8922	5276.85	4391.1
959.2077	2310.3299	5247.2	4357.85
959.3399	2311.7669	5224.6	4337.35
959.4721	2313.2031	5214.15	4324.9
959.6043	2314.6387	5199.6	4309.6
959.7365	2316.0735	5179.7	4289.8
959.8686	2317.5076	5195.6	4302.2
960.0006	2318.941	5171.4	4280.55
960.1327	2320.3737	5159.7	4264.25
960.2647	2321.8056	5142.75	4247.5
960.3967	2323.2369	5138.85	4249.45
960.5287	2324.6674	5127.65	4233.3
960.6606	2326.0972	5107.4	4214.05
960.7925	2327.5263	5078.5	4188.7
960.9244	2328.9547	5069.45	4177.1
961.0562	2330.3823	5057.5	4163.9
961.1881	2331.8092	5059.75	4165.15
961.3198	2333.2355	5031.85	4138.3
961.4516	2334.661	5020	4125.35
961.5833	2336.0858	5013.25	4117.75
961.715	2337.5098	4996.85	4103.45
961.8467	2338.9332	4977.25	4086.05
961.9783	2340.3558	4962.9	4069.15
962.1099	2341.7778	4949.4	4058.65
962.2415	2343.199	4929.4	4035.8
962.373	2344.6195	4939.25	4049.9
962.5045	2346.0393	4922.4	4033.05
962.636	2347.4583	4922.8	4032.1
962.7675	2348.8767	4884.5	3990.7
962.8989	2350.2943	4879.6	3984.9
963.0303	2351.7113	4875	3978.6
963.1617	2353.1275	4886.7	3990
963.293	2354.543	4883.45	3961.7
963.4243	2355.9578	4846.05	3951.55
963.5556	2357.3718	4816.75	3924.9
963.6868	2358.7852	4810	3917.4
963.818	2360.1978	4797	3907.45
963.9492	2361.6098	4779.9	3889.55
964.0803	2363.021	4762.75	3867.4
964.2114	2364.4315	4750.05	3855.95
964.3425	2365.8413	4735.35	3842.25
964.4736	2367.2504	4737.55	3845.65
964.6046	2368.6587	4707	3818.6
964.7356	2370.0664	4689.4	3799.85
964.8666	2371.4733	4676.95	3785.1
964.9975	2372.8795	4673.15	3781.95
965.1284	2374.285	4649.95	3756.6
965.2593	2375.6899	4614.4	3723
965.3901	2377.0939	4622.15	3731.1
965.5209	2378.4973	4600.75	3709.85
965.6517	2379.9	4586.4	3696
965.7825	2381.3019	4564.05	3675.4
965.9132	2382.7032	4559.45	3671.5
966.0439	2384.1037	4537.65	3649.75
966.1745	2385.5035	4537.1	3647.5
966.3051	2386.9027	4522.5	3636.5
966.4357	2388.3011	4519.65	3627.75
966.5663	2389.6987	4496.9	3606.8
966.6968	2391.0957	4487.75	3597.85
966.8273	2392.492	4478.4	3589.55
966.9578	2393.8876	4455.8	3565.55
967.0882	2395.2824	4433.85	3543.4
967.2186	2396.6765	4417.65	3527.05
967.349	2398.07	4401.65	3509.4
967.4793	2399.4627	4399.75	3506.35
967.6097	2400.8547	4391.15	3496.85
967.7399	2402.246	4378.35	3478.55
967.8702	2403.6366	4355.05	3464.35
968.0004	2405.0265	4330.6	3441.15
968.1306	2406.4156	4328.65	3434.35
968.2607	2407.8041	4319.2	3423.75
968.3909	2409.1918	4323	3429.4
968.521	2410.5789	4297.8	3402.8
968.651	2411.9652	4290.4	3397.45
968.781	2413.3508	4260	3366.05
968.911	2414.7358	4264.95	3370.95
969.041	2416.12	4238.65	3347.75
969.1709	2417.5035	4248.4	3359.05
969.3008	2418.8863	4220.15	3328.1
969.4307	2420.2684	4206.5	3313.95
969.5606	2421.6497	4185.3	3290.1
969.6904	2423.0304	4182.35	3291.1
969.8201	2424.4104	4168.75	3276.35
969.9499	2425.7896	4148.8	3257.4
970.0796	2427.1682	4127	3237.35
970.2093	2428.546	4131.8	3240.15
970.3389	2429.9232	4118.7	3225.6
970.4685	2431.2996	4110.45	3219.25
970.5981	2432.6753	4108.7	3215.55
970.7277	2434.0503	4089.75	3197.15
970.8572	2435.4246	4063.45	3168.5
970.9867	2436.7982	4067.95	3171.4
971.1161	2438.1711	4070.5	3179.15
971.2456	2439.5433	4041.2	3147.1
971.375	2440.9148	4032.1	3136.9
971.5043	2442.2856	4010.35	3118
971.6336	2443.6557	4007.85	3115.75
971.7629	2445.025	3992.9	3099.75
971.8922	2446.3937	3978.2	3084.15
972.0214	2447.7617	3976.45	3085.3
972.1506	2449.1289	3960.55	3065.95
972.2798	2450.4955	3950	3055.9
972.4089	2451.8613	3954.6	3065.6
972.538	2453.2265	3946	3052.8
972.6671	2454.5909	3954.35	3062.7
972.7961	2455.9546	3930.05	3037.55
972.9251	2457.3177	3904.25	3013.55
973.0541	2458.68	3890.5	2997.25
973.1831	2460.0416	3901.3	3011.1
973.312	2461.4025	3891.15	2999.9
973.4408	2462.7627	3874.65	2972.1
973.5697	2464.1222	3866.2	2977.55
973.6985	2465.4811	3853.75	2963.05
973.8273	2466.8392	3848.7	2957.05
973.956	2468.1966	3837.1	2946
974.0847	2469.5533	3833.85	2938.05
974.2134	2470.9093	3818.7	2927.5
974.3421	2472.2645	3811.1	2919.9
974.4707	2473.6191	3815.15	2924
974.5993	2474.973	3804.95	2915.15
974.7278	2476.3262	3782.2	2889.5
974.8563	2477.6787	3773.55	2884.4
974.9848	2479.0305	3753.4	2862.45
975.1132	2480.3816	3759.65	2866.8
975.2417	2481.7319	3739.95	2851
975.37	2483.0816	3729.75	2839.2
975.4984	2484.4306	3721.3	2828.6
975.6267	2485.7789	3696.2	2807.3
975.755	2487.1264	3692.05	2799.7
975.8833	2488.4733	3687.75	2798
976.0115	2489.8195	3682.4	2786.25
976.1397	2491.165	3674	2777.55
976.2678	2492.5097	3649.3	2758.2
976.3959	2493.8538	3639.2	2751.7
976.524	2495.1972	3638.4	2748.95
976.6521	2496.5398	3614.95	2721.8
976.7801	2497.8818	3614.35	2721.75
976.9081	2499.2231	3590.35	2697.85
977.036	2500.5637	3578.25	2683.95
977.164	2501.9035	3588.8	2695.35
977.2918	2503.2427	3581.9	2684.95
977.4197	2504.5812	3553.85	2661.8
977.5475	2505.919	3566.75	2672.5
977.6753	2507.256	3550.4	2658.9
977.8031	2508.5924	3537.4	2646.75
977.9308	2509.9281	3523.6	2628.05
978.0585	2511.2631	3517.15	2623.2
978.1861	2512.5974	3506.05	2615.6
978.3137	2513.9309	3477.75	2588.6
978.4413	2515.2638	3498.5	2581.2
978.5689	2516.596	3475.4	2584.85
978.6964	2517.9275	3461.15	2569.7
978.8239	2519.2583	3455.6	2563.3
978.9513	2520.5884	3446.6	2555.35
979.0788	2521.9178	3443.3	2551.4
979.2062	2523.2465	3436.55	2546.1
979.3335	2524.5745	3417.05	2526.3
979.4608	2525.9018	3405.1	2514
979.5881	2527.2284	3400.75	2510.1
979.7154	2528.5543	3394.8	2503.3
979.8426	2529.8796	3390.55	2497.9
979.9698	2531.2041	3376.25	2484.7
980.0969	2532.5279	3370.55	2480.95
980.224	2533.851	3375.55	2484.3
980.3511	2535.1735	3356.9	2466.75
980.4781	2536.4952	3344	2452.5
980.6052	2537.8163	3352.85	2459.9
980.7321	2539.1366	3345.75	2452.95
980.8591	2540.4562	3337.65	2444.05
980.986	2541.7752	3334.25	2440
981.1129	2543.0935	3327.85	2436
981.2397	2544.411	3331.25	2440.2
981.3665	2545.7279	3304.8	2413.45
981.4933	2547.0441	3313.2	2422.65
981.62	2548.3596	3307.5	2412.95
981.7467	2549.6744	3304.55	2413.05
981.8734	2550.9885	3299.25	2400.3
982.0001	2552.3019	3290.05	2398.75
982.1267	2553.6146	3269.75	2376.35
982.2532	2554.9266	3264.9	2372.15
982.3798	2556.2379	3255.5	2361.7
982.5063	2557.5485	3243.85	2353.55
982.6327	2558.8585	3253.8	2355.45
982.7592	2560.1677	3245.35	2350.5
982.8856	2561.4762	3245.9	2351.75
983.0119	2562.7841	3219.15	2325.1
983.1383	2564.0913	3224	2334.35
983.2646	2565.3977	3222	2331.75
983.3908	2566.7035	3195.6	2304.8
983.517	2568.0086	3212.4	2319.5
983.6432	2569.313	3196.2	2302.85
983.7694	2570.6167	3195.2	2298.15
983.8955	2571.9197	3179.7	2286.7
984.0216	2573.222	3181.35	2287.25
984.1476	2574.5236	3164.55	2270.45
984.2737	2575.8246	3169.45	2274.3
984.3996	2577.1248	3161.4	2267.05
984.5256	2578.4244	3155.4	2262.9
984.6515	2579.7232	3162.05	2270.45
984.7774	2581.0214	3186.15	2266.15
984.9032	2582.3189	3137.95	2245.55
985.029	2583.6157	3133.85	2237.25
985.1548	2584.9118	3139.35	2248.6
985.2806	2586.2072	3134.05	2244.05
985.4063	2587.5019	3130.15	2237.5
985.5319	2588.7959	3113.15	2220.35
985.6576	2590.0893	3108.15	2213.05
985.7832	2591.3819	3112.3	2220.95
985.9087	2592.6739	3102.75	2211.6
986.0343	2593.9652	3098.9	2205.1
986.1597	2595.2557	3094.55	2203
986.2852	2596.5456	3082.65	2189.3
986.4106	2597.8348	3070.3	2178.65
986.536	2599.1234	3052.65	2160.8
986.6614	2600.4112	3063.15	2172.6
986.7867	2601.6983	3057.8	2163.2
986.912	2602.9848	3037.95	2143.65
987.0372	2604.2705	3035.05	2137.9
987.1624	2605.5556	3037.65	2144
987.2876	2606.84	3006	2113.85
987.4128	2608.1237	3008.1	2115.05
987.5379	2609.4067	3003.3	2110.15
987.6629	2610.689	2999.05	2098.95
987.788	2611.9707	2992.45	2095.7
987.913	2613.2516	2981.2	2085.2
988.0379	2614.5319	2969.95	2078.6
988.1629	2615.8115	2958.55	2066
988.2878	2617.0903	2945.7	2053.6
988.4126	2618.3685	2940.65	2048.4
988.5375	2619.6461	2922.9	2029.7
988.6622	2620.9229	2927.2	2035
988.787	2622.199	2938.4	2047.1
988.9117	2623.4745	2914.2	2023.1
989.0364	2624.7493	2914.95	2026.3
989.161	2626.0234	2892.8	2003.8
989.2857	2627.2968	2895.9	2004.1
989.4102	2628.5695	2887.7	1996.5
989.5348	2629.8415	2871.65	1981
989.6593	2631.1128	2873.25	1979.6
989.7837	2632.3835	2864.1	1972.95
989.9082	2633.6535	2857.35	1966.9
990.0326	2634.9228	2854.3	1963.9
990.1569	2636.1914	2833.9	1945.4
990.2812	2637.4593	2830.9	1937.85
990.4055	2638.7265	2833.85	1942.85
990.5298	2639.9931	2810	1918.25
990.654	2641.259	2821.15	1929.25
990.7782	2642.5242	2808.65	1916.45
990.9023	2643.7887	2806.95	1916.6
991.0264	2645.0525	2796.1	1906.6
991.1505	2646.3156	2803	1898.05
991.2745	2647.5781	2771.9	1881.3
991.3985	2648.8398	2776.5	1887.45
991.5225	2650.1009	2782.4	1868.55
991.6464	2651.3613	2756.7	1863.15
991.7703	2652.6211	2747.55	1857.05
991.8942	2653.8801	2744.6	1855.25
992.018	2655.1385	2752.3	1858.65
992.1418	2656.3961	2743.65	1853.6
992.2655	2657.6531	2738.15	1848.95
992.3892	2658.9094	2733.6	1843.55
992.5129	2660.1651	2724	1832.5
992.6366	2661.42	2720.1	1829.25
992.7602	2662.6743	2726.85	1835.65
992.8837	2663.9279	2721.3	1829.3
993.0073	2665.1808	2703.5	1813.35
993.1307	2666.433	2701.7	1809.95
993.2542	2667.6846	2705.3	1818.35
993.3776	2668.9354	2704.75	1810.55
993.501	2670.1856	2694.6	1804.1
993.6244	2671.4351	2700.95	1812.05
993.7477	2672.6839	2692.35	1801.05
993.8709	2673.9321	2679.45	1789.7
993.9942	2675.1795	2676.85	1786.8
994.1174	2676.4263	2662.85	1773.75
994.2405	2677.6724	2664.2	1774.85
994.3637	2678.9179	2662.95	1770.8
994.4868	2680.1626	2665.4	1776.7
994.6098	2681.4067	2665.25	1774.7
994.7328	2682.6501	2660.55	1770.6
994.8558	2683.8928	2637.8	1746.45
994.9788	2685.1348	2632.5	1744.2
995.1017	2686.3761	2629.9	1739.9
995.2245	2687.6168	2628.95	1740.7
995.3474	2688.8568	2614.45	1723.9
995.4702	2690.0961	2608.05	1718.6
995.5929	2691.3348	2600.9	1710.25
995.7156	2692.5727	2602.85	1714.4
995.8383	2693.81	2587.9	1698.1
995.961	2695.0466	2572.85	1685.8
996.0836	2696.2826	2578.15	1688.25
996.2062	2697.5178	2587.65	1696.2
996.3287	2698.7524	2563.8	1673.1
996.4512	2699.9863	2566.6	1674.2
996.5737	2701.2195	2559	1671.5
996.6961	2702.452	2570.55	1680.2
996.8185	2703.6839	2560.4	1669.05
996.9408	2704.9151	2549.85	1663.5
997.0631	2706.1456	2544.6	1655.8
997.1854	2707.3755	2540.9	1650.65
997.3077	2708.6046	2558.3	1667.45
997.4299	2709.8331	2542	1652.2
997.552	2711.0609	2545.2	1656.3
997.6742	2712.2881	2544.85	1655.95
997.7963	2713.5145	2540.25	1647.4
997.9183	2714.7403	2542.1	1653.3
998.0403	2715.9654	2539.35	1648.95
998.1623	2717.1899	2558.35	1653.4
998.2842	2718.4136	2562.95	1670.55
998.4062	2719.6367	2554.75	1666.35
998.528	2720.8591	2566.3	1669.15
998.6498	2722.0809	2558.55	1669.1
998.7716	2723.3019	2544.4	1651.75
998.8934	2724.5223	2539.8	1649
999.0151	2725.7421	2550.2	1661.3
999.1368	2726.9611	2565	1674.45
999.2584	2728.1795	2552.4	1658.95
999.38	2729.3972	2531.65	1643.85
999.5016	2730.6142	2522.45	1626.75
999.6231	2731.8306	2512.35	1621.35
999.7446	2733.0462	2500.1	1608.6
999.8661	2734.2612	2487.2	1594.3
999.9875	2735.4756	2465.2	1575.85
1000.1089	2736.6892	2437.1	1547.15
1000.2302	2737.9022	2422.4	1532.9
1000.3515	2739.1145	2411.2	1521.9
1000.4728	2740.3262	2409.6	1512.95
1000.594	2741.5372	2392.75	1505.1
1000.7152	2742.7475	2381	1491.85
1000.8363	2743.9571	2369.4	1479.55
1000.9575	2745.1661	2363	1470.15
1001.0785	2746.3744	2352.8	1466
1001.1996	2747.582	2344.4	1457.1
1001.3206	2748.7889	2327.35	1435.45
1001.4415	2749.9952	2331.65	1443.15
1001.5625	2751.2008	2315.2	1424.7
1001.6833	2752.4057	2302.25	1412.35
1001.8042	2753.61	2304.65	1416.85
1001.925	2754.8136	2297.25	1407.45
1002.0458	2756.0165	2281.2	1393.7
1002.1665	2757.2188	2285.75	1398.15
1002.2872	2758.4204	2273.1	1386.25
1002.4078	2759.6213	2275.05	1383.5
1002.5285	2760.8215	2276.9	1384.45
1002.649	2762.0211	2258	1367.4
1002.7696	2763.22	2260.6	1370.75
1002.8901	2764.4182	2254.15	1365.9
1003.0106	2765.6158	2256.75	1368.9
1003.131	2766.8127	2238.05	1349.15
1003.2514	2768.009	2230.9	1343.5
1003.3717	2769.2045	2228.85	1339
1003.492	2770.3994	2233.3	1344.15
1003.6123	2771.5936	2225.7	1336.05
1003.7325	2772.7872	2206.2	1319.9
1003.8527	2773.9801	2203	1313.1
1003.9729	2775.1723	2218.2	1312.85
1004.093	2776.3639	2184.45	1294.5
1004.2131	2777.5548	2186.55	1296.35
1004.3331	2778.745	2183.6	1294.15
1004.4531	2779.9346	2186.2	1299.7
1004.5731	2781.1235	2181.65	1292.9
1004.693	2782.3117	2181.1	1294.15
1004.8129	2783.4992	2182.55	1295.7
1004.9328	2784.6861	2179.9	1294.6
1005.0526	2785.8723	2181.3	1292.25
1005.1723	2787.0579	2177	1289.9
1005.2921	2788.2428	2169.9	1283.45
1005.4118	2789.427	2172.45	1285.85
1005.5314	2790.6106	2171.35	1283.45
1005.651	2791.7935	2184.25	1295.6
1005.7706	2792.9757	2177.3	1290.1
1005.8902	2794.1573	2189.9	1301.05
1006.0097	2795.3382	2181.35	1292
1006.1291	2796.5184	2187.05	1301.9
1006.2485	2797.698	2201.45	1312.1
1006.3679	2798.8769	2212.25	1325.95
1006.4873	2800.0551	2213.35	1326.5
1006.6066	2801.2327	2223.35	1335.5
1006.7258	2802.4096	2220.8	1335.45
1006.8451	2803.5859	2226.8	1339.9
1006.9642	2804.7615	2232.6	1344.3
1007.0834	2805.9364	2247.65	1362.3
1007.2025	2807.1106	2256.9	1369.6
1007.3216	2808.2842	2274.05	1386.35
1007.4406	2809.4572	2291.7	1404.2
1007.5596	2810.6294	2306.85	1419.45
1007.6785	2811.801	2336.5	1453.05
1007.7975	2812.972	2354.05	1468.3
1007.9163	2814.1423	2389.85	1502.7
1008.0352	2815.3119	2419.5	1533.4
1008.154	2816.4808	2439.35	1554.2
1008.2727	2817.6491	2478	1591.05
1008.3914	2818.8167	2500.2	1614.4
1008.5101	2819.9837	2536.5	1646.6
1008.6288	2821.15	2573.85	1687.75
1008.7474	2822.3157	2604.05	1718.3
1008.8659	2823.4807	2628.85	1742.9
1008.9844	2824.645	2657.9	1770.85
1009.1029	2825.8086	2688.25	1801.4
1009.2214	2826.9716	2723.3	1840.05
1009.3398	2828.134	2759.5	1874.75
1009.4581	2829.2957	2792.35	1907.55
1009.5764	2830.4567	2803.25	1918.95
1009.6947	2831.617	2820.65	1935.2
1009.813	2832.7767	2817.15	1932.45
1009.9312	2833.9358	2819.9	1932.75
1010.0493	2835.0941	2816.35	1928.25
1010.1675	2836.2519	2801.5	1916.15
1010.2855	2837.4089	2784.3	1898.6
1010.4036	2838.5653	2781.35	1895.95
1010.5216	2839.7211	2770.25	1883.05
1010.6396	2840.8761	2777.6	1890.25
1010.7575	2842.0306	2780.15	1894.55
1010.8754	2843.1843	2796.35	1911.65
1010.9932	2844.3374	2822.3	1935.5
1011.111	2845.4899	2859.2	1973.85
1011.2288	2846.6417	2904.6	2020.05
1011.3465	2847.7928	2939.7	2054.95
1011.4642	2848.9433	2979.5	2093
1011.5818	2850.0931	3028.9	2141.35
1011.6995	2851.2422	3076.15	2188.65
1011.817	2852.3907	3117.45	2229.35
1011.9345	2853.5385	3161.25	2272.35
1012.052	2854.6857	3211.2	2318.6
1012.1695	2855.8323	3215	2328.85
1012.2869	2856.9781	3254.8	2369.35
1012.4042	2858.1233	3289.45	2405.2
1012.5216	2859.2679	3319	2434
1012.6389	2860.4118	3354.6	2468
1012.7561	2861.555	3379.35	2489.9
1012.8733	2862.6976	3408.95	2520.9
1012.9905	2863.8395	3420.1	2533.85
1013.1076	2864.9808	3426.1	2539.95
1013.2247	2866.1214	3435.95	2552.95
1013.3417	2867.2614	3450.45	2564.15
1013.4587	2868.4007	3454.55	2566.05
1013.5757	2869.5393	3473.6	2586.5
1013.6926	2870.6773	3486.85	2598.1
1013.8095	2871.8146	3497	2609.55
1013.9263	2872.9513	3481.35	2592.6
1014.0431	2874.0874	3469.1	2584.85
1014.1599	2875.2227	3452.3	2566.9
1014.2766	2876.3574	3447.55	2562.5
1014.3933	2877.4915	3422.8	2538.85
1014.51	2878.6249	3410.65	2526.3
1014.6266	2879.7577	3374.55	2487.9
1014.7431	2880.8898	3371.3	2473.6
1014.8596	2882.0212	3349.8	2465.4
1014.9761	2883.152	3344.3	2458.6
1015.0925	2884.2821	3329.4	2444
1015.2089	2885.4116	3323.6	2440.85
1015.3253	2886.5405	3307.2	2425.3
1015.4416	2887.6686	3317.75	2429.3
1015.5579	2888.7962	3330.05	2447.4
1015.6741	2889.923	3324.95	2440.6
1015.7903	2891.0493	3331.05	2449.35
1015.9065	2892.1748	3330.75	2446.1
1016.0226	2893.2997	3337.3	2449.1
1016.1387	2894.424	3341.45	2457.45
1016.2547	2895.5476	3358.35	2473.35
1016.3707	2896.6706	3376.45	2491.6
1016.4866	2897.7929	3388.05	2503.1
1016.6025	2898.9145	3393.45	2508.6
1016.7184	2900.0355	3404.95	2520.1
1016.8342	2901.1559	3428.4	2541
1016.95	2902.2756	3442.9	2556.9
1017.0658	2903.3946	3470.4	2586.2
1017.1815	2904.513	3475.85	2589.75
1017.2971	2905.6308	3505.65	2622.95
1017.4127	2906.7479	3506.2	2622.5
1017.5283	2907.8643	3520.6	2637.9
1017.6439	2908.9801	3526.35	2643.15
1017.7594	2910.0953	3523.1	2637.8
1017.8748	2911.2098	3518	2631.6
1017.9902	2912.3236	3528.85	2637.15
1018.1056	2913.4368	3521.7	2634.2
1018.2209	2914.5494	3512.05	2625.4
1018.3362	2915.6613	3462.25	2572.35
1018.4515	2916.7725	3440.75	2554.3
1018.5667	2917.8831	3425.1	2537.45
1018.6819	2918.9931	3414.95	2527.9
1018.797	2920.1024	3388.65	2503.8
1018.9121	2921.211	3355.65	2470.85
1019.0271	2922.319	3336.95	2453.35
1019.1421	2923.4264	3332	2448.05
1019.2571	2924.5331	3329.35	2446.2
1019.372	2925.6391	3319.1	2437.85
1019.4869	2926.7445	3309.85	2426.85
1019.6017	2927.8493	3308.85	2425.7
1019.7165	2928.9534	3307.5	2423.4
1019.8313	2930.0569	3308.1	2420.6
1019.946	2931.1597	3300.75	2417.85
1020.0606	2932.2619	3289.55	2405.45
1020.1753	2933.3634	3294.9	2411.65
1020.2899	2934.4643	3293.35	2402.65
1020.4044	2935.5645	3283.8	2394.45
1020.5189	2936.6641	3247.1	2359.95
1020.6334	2937.763	3221.85	2341.1
1020.7478	2938.8613	3204.15	2320.75
1020.8622	2939.959	3170.2	2282.05
1020.9765	2941.056	3118.65	2234.85
1021.0908	2942.1523	3070.1	2185.35
1021.2051	2943.248	3002.15	2117.4
1021.3193	2944.3431	2918.7	2035.85
1021.4334	2945.4375	2869.6	1983.15
1021.5476	2946.5313	2798.5	1916.5
1021.6617	2947.6244	2713.55	1830
1021.7757	2948.7169	2648.55	1763.35
1021.8897	2949.8087	2575.8	1693.5
1022.0037	2950.8999	2521.3	1636.25
1022.1176	2951.9904	2461.95	1578.8
1022.2315	2953.0803	2404.15	1519.05
1022.3453	2954.1696	2359.75	1476.4
1022.4591	2955.2582	2319.9	1437.25
1022.5728	2956.3462	2279.95	1393.1
1022.6865	2957.4335	2260.9	1377.15
1022.8002	2958.5202	2224.7	1340.1
1022.9138	2959.6062	2207.85	1324.05
1023.0274	2960.6916	2197.95	1314.9
1023.141	2961.7764	2180.3	1296.55
1023.2545	2962.8605	2160.75	1278.25
1023.3679	2963.9439	2149.05	1265.35
1023.4813	2965.0267	2123.1	1236.85
1023.5947	2966.1089	2137.45	1230.4
1023.708	2967.1905	2121.2	1237.4
1023.8213	2968.2714	2123.45	1239.9
1023.9346	2969.3516	2125.7	1242.65
1024.0478	2970.4312	2120.75	1229.2
1024.1609	2971.5102	2115.15	1231.2
1024.274	2972.5885	2115.5	1233
1024.3871	2973.6662	2114.95	1224.9
1024.5002	2974.7432	2117.6	1235.75
1024.6132	2975.8196	2100.95	1217.85
1024.7261	2976.8954	2104.95	1223.8
1024.839	2977.9705	2079.15	1196.5
1024.9519	2979.045	2080.9	1197.2
1025.0647	2980.1188	2071	1185.2
1025.1775	2981.192	2048	1165.15
1025.2902	2982.2645	2038.8	1154.8
1025.4029	2983.3364	2014.95	1130.4
1025.5156	2984.4077	2002.15	1120
1025.6282	2985.4783	1978.25	1090.7
1025.7407	2986.5483	1955.2	1071.45
1025.8532	2987.6177	1929.45	1047.75
1025.9657	2988.6864	1907.15	1022.65
1026.0782	2989.7545	1880.1	994.85
1026.1906	2990.8219	1847.55	964.7
1026.3029	2991.8887	1827.4	942.85
1026.4152	2992.9548	1800.7	917
1026.5275	2994.0204	1787.45	905.25
1026.6397	2995.0852	1770.35	887.55
1026.7519	2996.1495	1738	853.5
1026.864	2997.2131	1726.15	843.55
1026.9761	2998.276	1712.05	830.35
1027.0882	2999.3383	1683.1	798.9
1027.2002	3000.4	1677.65	794.2
1027.3122	3001.4611	1658.4	773.35
1027.4241	3002.5215	1649.85	765.15
1027.536	3003.5812	1633.85	752.65
1027.6478	3004.6404	1624.75	742.45
1027.7596	3005.6989	1611.45	726.25
1027.8714	3006.7567	1602.8	720.65
1027.9831	3007.8139	1609.7	711.45
1028.0947	3008.8705	1586.9	702.1
1028.2064	3009.9264	1594.9	694.75
1028.3179	3010.9818	1580.15	697
1028.4295	3012.0364	1571.35	689.95
1028.541	3013.0905	1565.8	683.55
1028.6524	3014.1439	1562	680.85
1028.7638	3015.1966	1560.65	676.75
1028.8752	3016.2487	1548.6	667.85
1028.9865	3017.3002	1553.95	667.25
1029.0978	3018.3511	1545.75	663.75
1029.209	3019.4013	1538.55	657.05
1029.3202	3020.4509	1541.85	658.3
1029.4314	3021.4998	1542.5	660.35
1029.5425	3022.5481	1542.2	660.05
1029.6535	3023.5958	1542.05	658.35
1029.7645	3024.6428	1539.95	655.65
1029.8755	3025.6892	1540.5	658.3
1029.9864	3026.735	1531.95	648.2
1030.0973	3027.7802	1532.6	648.95
1030.2082	3028.8247	1524.25	642.1
1030.319	3029.8685	1529.3	645.95
1030.4297	3030.9118	1528.3	646.2
1030.5404	3031.9544	1523.95	643.95
1030.6511	3032.9963	1534.5	650.9
1030.7617	3034.0376	1532.45	650.2
1030.8723	3035.0783	1534.4	648.5
1030.9829	3036.1184	1537.1	651.6
1031.0934	3037.1578	1531.65	650.85
1031.2038	3038.1966	1532.2	646.55
1031.3142	3039.2348	1533.45	651.3
1031.4246	3040.2723	1532.75	642.4
1031.5349	3041.3092	1529.3	649.2
1031.6452	3042.3455	1535.95	654.15
1031.7554	3043.3811	1517.7	634.7
1031.8656	3044.4161	1521.7	638.55
1031.9758	3045.4505	1517.3	635.65
1032.0859	3046.4842	1513.25	630.5
1032.1959	3047.5173	1505.65	623.8
1032.3059	3048.5498	1506.8	624.4
1032.4159	3049.5816	1502.4	621.75
1032.5258	3050.6128	1503.55	620.45
1032.6357	3051.6434	1495.05	612.05
1032.7455	3052.6734	1486.85	603.3
1032.8553	3053.7027	1484.2	602.1
1032.9651	3054.7314	1485	603.65
1033.0748	3055.7594	1475	593.75
1033.1845	3056.7868	1470.15	587.35
1033.2941	3057.8136	1468.4	586.15
1033.4037	3058.8398	1456.95	576.55
1033.5132	3059.8653	1459.25	577.6
1033.6227	3060.8902	1451.15	569.95
1033.7321	3061.9145	1445.35	563.05
1033.8415	3062.9381	1440.55	558.45
1033.9509	3063.9612	1463.8	567.55
1034.0602	3064.9835	1432.95	550.6
1034.1694	3066.0053	1434.9	550.25
1034.2787	3067.0264	1430.45	548.9
1034.3878	3068.0469	1429.7	545.4
1034.497	3069.0668	1416.5	532.45
1034.6061	3070.086	1416.15	535.9
1034.7151	3071.1046	1406.7	523.4
1034.8241	3072.1226	1397.05	514.9
1034.9331	3073.1399	1392.95	511.9
1035.042	3074.1567	1392.65	509.4
1035.1508	3075.1727	1381.8	499.7
1035.2597	3076.1882	1377.1	494.25
1035.3684	3077.203	1360.75	480.85
1035.4772	3078.2173	1368.1	483.65
1035.5859	3079.2308	1351.3	466.9
1035.6945	3080.2438	1352.45	470
1035.8031	3081.2561	1339.15	457.1
1035.9117	3082.2678	1328.55	447.4
1036.0202	3083.2789	1339.8	457.3
1036.1286	3084.2893	1319.3	439.15
1036.2371	3085.2991	1320.7	438.2
1036.3454	3086.3083	1323.2	435.2
1036.4538	3087.3169	1316.7	436.4
1036.562	3088.3248	1310.05	426.8
1036.6703	3089.3321	1303.65	420.85
1036.7785	3090.3388	1294.85	414.5
1036.8866	3091.3449	1294.75	413.05
1036.9948	3092.3503	1297.1	412.85
1037.1028	3093.3551	1282.7	404.35
1037.2108	3094.3593	1287.8	406.2
1037.3188	3095.3629	1277.45	399.65
1037.4267	3096.3658	1276.25	393.9
1037.5346	3097.3681	1277.3	397.9
1037.6425	3098.3698	1273.15	392.5
1037.7503	3099.3708	1276	385.75
1037.858	3100.3713	1264.1	384.25
1037.9657	3101.3711	1261.9	377.5
1038.0734	3102.3702	1395.7	373.05
1038.181	3103.3688	1265.3	382.4
1038.2886	3104.3667	1255.6	375.3
1038.3961	3105.364	1250	368.55
1038.5036	3106.3607	1245.85	361
1038.611	3107.3568	1245.3	363.3
1038.7184	3108.3522	1239.6	359.75
1038.8257	3109.347	1243.25	360.15
1038.933	3110.3412	1243.4	358.8
1039.0403	3111.3348	1232.3	352.85
1039.1475	3112.3277	1234.4	353.95
1039.2547	3113.32	1230.55	349.9
1039.3618	3114.3117	1227.2	344.15
1039.4689	3115.3028	1228.3	346.1
1039.5759	3116.2932	1223.45	340.8
1039.6829	3117.2831	1223.2	336.35
1039.7898	3118.2723	1213.7	334.65
1039.8967	3119.2608	1217.15	335
1040.0035	3120.2488	1214.5	333.3
1040.1103	3121.2361	1216.2	333.95
1040.2171	3122.2229	1205.95	325
1040.3238	3123.209	1206.6	324.6
1040.4305	3124.1944	1209.8	328.8
1040.5371	3125.1793	1206	323.3
1040.6437	3126.1635	1203.15	323
1040.7502	3127.1471	1205.5	325.35
1040.8567	3128.1301	1196.1	315.3
1040.9631	3129.1125	1191	310.85
1041.0695	3130.0942	1196.75	316
1041.1759	3131.0753	1197.8	310.4
1041.2822	3132.0558	1191.5	307.9
1041.3884	3133.0357	1192.5	311.8
1041.4946	3134.015	1190.85	308.3
1041.6008	3134.9936	1188.05	307.95
1041.7069	3135.9716	1205.6	302.65
1041.813	3136.949	1180.05	298.8
1041.919	3137.9258	1197.35	299.6
1042.025	3138.902	1187.95	302.05
1042.1309	3139.8775	1179.35	298
1042.2368	3140.8524	1173.45	290.75
1042.3427	3141.8267	1176.65	293.4
1042.4485	3142.8004	1171.25	288.2
1042.5542	3143.7735	1176.1	288
1042.6599	3144.7459	1175.85	291.95
1042.7656	3145.7178	1171.35	289.55
1042.8712	3146.689	1162.75	282.5
1042.9768	3147.6596	1163.4	283.75
1043.0823	3148.6295	1161.4	280.5
1043.1878	3149.5989	1160.95	281.55
1043.2932	3150.5676	1161.6	283.4
1043.3986	3151.5357	1155.7	274.2
1043.5039	3152.5032	1151.9	270.1
1043.6092	3153.4701	1159.85	280.85
1043.7145	3154.4364	1159.15	275.45
1043.8197	3155.402	1149.4	271.1
1043.9248	3156.367	1154.55	270.6
1044.03	3157.3315	1183.8	267.85
1044.135	3158.2952	1148	266.5
1044.24	3159.2584	1146.3	264.6
1044.345	3160.221	1143.15	261.45
1044.4499	3161.1829	1144.6	264.15
1044.5548	3162.1442	1138.95	258.3
1044.6596	3163.105	1134.7	254
1044.7644	3164.065	1138.4	255.1
1044.8692	3165.0245	1143.55	261.25
1044.9739	3165.9834	1131.15	252.8
1045.0785	3166.9416	1137.7	256.7
1045.1831	3167.8993	1133.9	250.3
1045.2877	3168.8563	1133.45	252.9
1045.3922	3169.8127	1125.95	243.5
1045.4966	3170.7684	1131.7	252.15
1045.6011	3171.7236	1122.45	239.7
1045.7054	3172.6782	1127.1	247.65
1045.8098	3173.6321	1120.95	241.2
1045.914	3174.5854	1125.75	240.5
1046.0183	3175.5381	1121.15	240.55
1046.1224	3176.4902	1120.7	241.05
1046.2266	3177.4417	1119.4	241.35
1046.3307	3178.3926	1115.2	236.4
1046.4347	3179.3428	1117.85	238.35
1046.5387	3180.2924	1112.55	231.6
1046.6427	3181.2415	1114	233.65
1046.7466	3182.1899	1109.3	227.15
1046.8504	3183.1377	1107.45	225.75
1046.9542	3184.0848	1109.65	224.55
1047.058	3185.0314	1104.35	223.25
1047.1617	3185.9773	1108.35	227.45
1047.2654	3186.9227	1102.05	218.9
1047.369	3187.8674	1103.3	224
1047.4726	3188.8115	1102.85	219.2
1047.5761	3189.755	1099.05	219.6
1047.6796	3190.6979	1094.45	214.4
1047.783	3191.6402	1093.1	213.5
1047.8864	3192.5818	1096.5	217.45
1047.9898	3193.5229	1101.25	214.2
1048.0931	3194.4633	1095	215.7
1048.1963	3195.4031	1093.3	212.6
1048.2995	3196.3423	1089.4	208.35
1048.4027	3197.2809	1092.05	212.15
1048.5058	3198.2189	1089.75	209.5
1048.6089	3199.1563	1098.9	211.25
1048.7119	3200.0931	1087.25	206.85
1048.8148	3201.0292	1083.6	203.4
1048.9178	3201.9648	1084.2	204.3
1049.0206	3202.8997	1086.7	204
1049.1235	3203.834	1082	201
1049.2262	3204.7677	1084.45	204.65
1049.329	3205.7008	1082.5	199.85
1049.4317	3206.6333	1078.3	200.5
1049.5343	3207.5652	1089.9	208.5
1049.6369	3208.4964	1077.9	198.35
1049.7394	3209.4271	1074.45	195
1049.8419	3210.3571	1076.7	198.35
1049.9444	3211.2865	1081	201
1050.0468	3212.2154	1077.55	196.7
1050.1491	3213.1436	1078.4	195.7
1050.2514	3214.0712	1075.5	188.75
1050.3537	3214.9982	1068.3	189.6
1050.4559	3215.9246	1070.25	189.8
1050.5581	3216.8503	1064.55	184.15
1050.6602	3217.7755	1068.4	188.4
1050.7623	3218.7001	1066.45	187.85
1050.8643	3219.624	1067.55	187.25
1050.9663	3220.5473	1060.05	178.1
1051.0682	3221.4701	1066.4	184.5
1051.1701	3222.3922	1065.95	184.7
1051.2719	3223.3137	1063.15	184.25
1051.3737	3224.2346	1059.7	180.6
1051.4754	3225.1549	1061.25	181.85
1051.5771	3226.0746	1058.2	179.2
1051.6788	3226.9937	1056.5	176.95
1051.7804	3227.9121	1054.55	173.7
1051.8819	3228.83	1055.25	176.1
1051.9834	3229.7473	1057.5	176.1
1052.0849	3230.6639	1055.5	177.65
1052.1863	3231.5799	1052.15	174.05
1052.2876	3232.4954	1056.4	175.3
1052.3889	3233.4102	1052.4	171.65
1052.4902	3234.3244	1053.6	174.85
1052.5914	3235.238	1049.85	170
1052.6926	3236.151	1072.6	166.1
1052.7937	3237.0634	1045.85	167.95
1052.8948	3237.9752	1043.35	163.1
1052.9958	3238.8864	1047.65	166.4
1053.0968	3239.797	1040.65	162.55
1053.1977	3240.7069	1041.6	160.2
1053.2986	3241.6163	1039.65	160.25
1053.3994	3242.5251	1039.15	160.85
1053.5002	3243.4332	1041.45	162.95
1053.6009	3244.3408	1044	163.25
1053.7016	3245.2477	1036.1	157.1
1053.8022	3246.154	1036.7	154.8
1053.9028	3247.0598	1040.95	160
1054.0034	3247.9649	1035.25	155.85
1054.1039	3248.8694	1035.65	155.35
1054.2043	3249.7733	1035.7	153.3
1054.3047	3250.6766	1036.9	156.6
1054.4051	3251.5793	1034	154.05
1054.5054	3252.4814	1031.35	150.35
1054.6056	3253.3829	1028.55	148.9
1054.7058	3254.2838	1023.85	144.2
1054.806	3255.1841	1024.55	145.5
1054.9061	3256.0838	1021.8	141.7
1055.0061	3256.9829	1021.85	143.4
1055.1062	3257.8814	1024.25	140.55
1055.2061	3258.7792	1024.1	143.05
1055.306	3259.6765	1022.65	143
1055.4059	3260.5731	1020.75	143.4
1055.5057	3261.4692	1017.5	136.45
1055.6055	3262.3647	1016.9	136.05
1055.7052	3263.2595	1012.8	132.65
1055.8049	3264.1538	1012.05	132
1055.9045	3265.0474	1008.3	130.2
1056.0041	3265.9404	1008.55	127.95
1056.1036	3266.8329	1006.85	126.9
1056.2031	3267.7247	1012.1	123.6
1056.3025	3268.616	999.6	121.95
1056.4019	3269.5066	999.55	118.8
1056.5013	3270.3966	995.95	114.6
1056.6005	3271.286	987.25	110
