Software Version:	3.9.2.0
Unit SN:	10000200
Spectrometer SN:	6960
Date:	3/26/2024 2:04:09 PM
Data Line Index:	25
Spectral Points:	2048
Integration time (ms):	125
Averages:	20
Delay (ms):	30000
Sequence Number:	1
Processing:	dark subtract
Laser Power (mW):	305
Laser Current (mA):	819
Laser Diode Temp (C):	25
Laser Case Temp (C):	27.4
System Temp (C):	27.4
Spectrometer Temp (C):	25.3
CCD Temp (C):	0.009
Secondary Temp (C):	20.004
Heatsink Temp (C):	22.724
CCDPCB Temp (C):	36.885
SecondaryPCB Temp (C):	34.528

Wavelength	RamanShift	Raw Counts	Dark Subtracted
787.061	30.1047	662.75	252.45
787.2016	32.3739	670.9	260.8
787.3422	34.6426	686.7	278.6
787.4828	36.9109	703.7	291.85
787.6235	39.1787	729.8	313.4
787.7642	41.4461	758.75	339.45
787.9049	43.7131	783.2	358.95
788.0456	45.9796	805.1	377.65
788.1863	48.2456	835.65	402.6
788.3271	50.5112	860.6	425.55
788.4679	52.7764	888.3	450.3
788.6087	55.0411	923.5	483.8
788.7496	57.3054	953.05	506.9
788.8904	59.5692	991	542.8
789.0313	61.8326	1031.6	577
789.1722	64.0955	1068.55	613.15
789.3132	66.3579	1126.3	665.2
789.4541	68.6199	1185.7	723.05
789.5951	70.8815	1280.25	814.45
789.7361	73.1426	1497.35	1025.6
789.8771	75.4032	2030.45	1553
790.0181	77.6634	3379.6	2894.35
790.1592	79.9231	6746	6251.95
790.3003	82.1824	14481.9	13973.5
790.4414	84.4412	33515.05	32976
790.5825	86.6995	61123.55	60541.65
790.7237	88.9574	65525.6	64908.15
790.8648	91.2148	65535	64889.35
791.006	93.4717	65535	64869.05
791.1472	95.7282	65535	64861.35
791.2885	97.9842	65535	64852.95
791.4297	100.2398	65535	64849
791.571	102.4949	65535	64849.8
791.7123	104.7495	65535	64843.95
791.8536	107.0036	65535	64850.25
791.9949	109.2573	65535	64847.9
792.1363	111.5105	65535	64844.7
792.2777	113.7632	65535	64844.6
792.4191	116.0154	65535	64829.45
792.5605	118.2672	65535	64839.75
792.7019	120.5185	65535	64835.35
792.8434	122.7693	65535	64833.3
792.9849	125.0197	65535	64836.6
793.1264	127.2696	65535	64829.75
793.2679	129.519	65535	64829.1
793.4094	131.7679	65535	64822.4
793.551	134.0163	65535	64819
793.6926	136.2642	65535	64814.4
793.8342	138.5117	65535	64808.5
793.9758	140.7587	65535	64812.5
794.1175	143.0052	65535	64808.4
794.2591	145.2512	65535	64809
794.4008	147.4967	65535	64809.3
794.5425	149.7417	65535	64805.95
794.6842	151.9863	65535	64803.9
794.826	154.2304	65535	64799.85
794.9677	156.4739	65535	64798.65
795.1095	158.717	65535	64792.6
795.2513	160.9596	65535	64787.9
795.3931	163.2017	65535	64790.4
795.535	165.4433	65535	64787.25
795.6768	167.6844	65535	64790.45
795.8187	169.925	65535	64788.2
795.9606	172.1651	65535	64782.6
796.1025	174.4047	65535	64781.95
796.2445	176.6439	65535	64776.4
796.3864	178.8825	65535	64773.9
796.5284	181.1206	65535	64769.45
796.6704	183.3582	65535	64762.1
796.8124	185.5954	65535	64764.2
796.9544	187.832	65535	64759.9
797.0965	190.0681	65535	64757.85
797.2386	192.3037	65535	64751.9
797.3806	194.5388	65535	64753
797.5228	196.7734	65535	64747.55
797.6649	199.0075	65535	64743.8
797.807	201.2411	65535	64739.6
797.9492	203.4742	65535	64746
798.0914	205.7068	65535	64745
798.2336	207.9389	65535	64739.75
798.3758	210.1704	65535	64738.95
798.518	212.4015	65535	64740.8
798.6603	214.632	65535	64742.35
798.8025	216.862	65535	64752.85
798.9448	219.0915	65535	64757.35
799.0871	221.3205	65535	64757.3
799.2294	223.549	65535	64758.65
799.3718	225.777	65535	64760.65
799.5141	228.0044	65535	64757.55
799.6565	230.2314	65535	64761.8
799.7989	232.4578	65535	64755.65
799.9413	234.6837	65535	64751.75
800.0837	236.909	65535	64748.45
800.2262	239.1339	65535	64720.8
800.3687	241.3582	65535	64739.55
800.5111	243.582	65535	64710.25
800.6536	245.8053	65535	64720.25
800.7961	248.0281	65535	64729.85
800.9387	250.2503	65535	64718.8
801.0812	252.472	65535	64718.75
801.2238	254.6932	65535	64713.7
801.3664	256.9139	65535	64716
801.509	259.134	65535	64713.05
801.6516	261.3536	65535	64711.35
801.7942	263.5727	65535	64707.25
801.9369	265.7912	65535	64715.9
802.0795	268.0092	65535	64709.85
802.2222	270.2267	65535	64705.6
802.3649	272.4436	65535	64711.2
802.5076	274.6601	65535	64699.65
802.6504	276.8759	65535	64708.3
802.7931	279.0913	65535	64705.25
802.9359	281.3061	65535	64703.15
803.0787	283.5204	65535	64696
803.2215	285.7341	65535	64693.8
803.3643	287.9473	65535	64686.5
803.5071	290.16	65535	64689.6
803.6499	292.3721	65535	64701.3
803.7928	294.5837	65535	64697.25
803.9357	296.7947	65535	64696.05
804.0786	299.0052	65535	64697.2
804.2215	301.2152	65535	64694.7
804.3644	303.4246	65535	64696.3
804.5074	305.6334	65535	64699.5
804.6503	307.8418	65535	64692.55
804.7933	310.0495	65535	64693.5
804.9363	312.2568	65535	64692.65
805.0793	314.4635	65535	64689.65
805.2223	316.6696	65535	64689.6
805.3653	318.8752	65535	64677.65
805.5084	321.0802	65535	64689.75
805.6514	323.2847	65535	64683.2
805.7945	325.4887	65535	64687.05
805.9376	327.692	65535	64686.65
806.0807	329.8949	65535	64681.2
806.2238	332.0972	65535	64681.75
806.367	334.2989	65535	64676.05
806.5101	336.5001	65535	64678.6
806.6533	338.7007	65535	64676.55
806.7965	340.9008	65535	64674.3
806.9397	343.1003	65535	64678.5
807.0829	345.2992	65535	64679.45
807.2261	347.4976	65535	64671.55
807.3693	349.6955	65535	64671.9
807.5126	351.8927	65535	64667.65
807.6559	354.0895	65535	64660.4
807.7991	356.2856	65535	64669.15
807.9424	358.4812	65535	64673.9
808.0857	360.6763	65535	64669.15
808.2291	362.8707	65535	64665.05
808.3724	365.0646	65535	64664.95
808.5158	367.258	65535	64664.25
808.6591	369.4508	65535	64658.4
808.8025	371.643	65535	64657.8
808.9459	373.8346	65535	64659.25
809.0893	376.0257	65535	64655.6
809.2327	378.2162	65535	64659.1
809.3762	380.4062	65535	64653.3
809.5196	382.5956	65535	64650.3
809.6631	384.7844	65535	64658.7
809.8066	386.9726	65535	64659.75
809.9501	389.1603	65535	64657.6
810.0936	391.3474	65535	64624.95
810.2371	393.5339	65535	64656.4
810.3806	395.7199	65535	64659.1
810.5241	397.9052	65535	64665.4
810.6677	400.09	65535	64668.35
810.8113	402.2743	65535	64662.8
810.9548	404.4579	65535	64664.55
811.0984	406.641	65535	64665.35
811.2421	408.8235	65535	64666.05
811.3857	411.0054	65535	64663.15
811.5293	413.1868	65535	64660
811.673	415.3675	65535	64653.3
811.8166	417.5477	65535	64655.1
811.9603	419.7273	65535	64651.85
812.104	421.9064	65535	64650.2
812.2477	424.0848	65535	64653.35
812.3914	426.2627	65535	64647.2
812.5351	428.4399	65535	64648.15
812.6788	430.6166	65535	64650.25
812.8226	432.7928	65535	64649.3
812.9663	434.9683	65535	64650.25
813.1101	437.1432	65535	64648.7
813.2539	439.3176	65535	64649
813.3977	441.4914	65535	64653
813.5415	443.6645	65535	64648.8
813.6853	445.8371	65535	64642.6
813.8291	448.0091	65535	64649.1
813.973	450.1806	65535	64644.75
814.1168	452.3514	65535	64646.65
814.2607	454.5216	65535	64639.25
814.4046	456.6913	65535	64649.7
814.5485	458.8603	65535	64647.5
814.6924	461.0288	65535	64652.8
814.8363	463.1967	65535	64647.65
814.9802	465.3639	65535	64647.4
815.1241	467.5306	65535	64643.85
815.2681	469.6967	65535	64651.95
815.412	471.8622	65535	64647.55
815.556	474.0271	65535	64647.3
815.7	476.1914	65535	64641.6
815.844	478.3551	65535	64641.6
815.988	480.5182	65535	64645.85
816.132	482.6807	65535	64649.65
816.276	484.8426	65535	64653.45
816.4201	487.0039	65535	64651.95
816.5641	489.1647	65535	64642.35
816.7082	491.3248	65535	64643.5
816.8522	493.4843	65535	64646.9
816.9963	495.6432	65535	64648.1
817.1404	497.8015	65535	64640.55
817.2845	499.9592	65535	64637.7
817.4286	502.1163	65535	64635.2
817.5727	504.2728	65535	64638.5
817.7168	506.4287	65535	64650.75
817.861	508.5839	65535	64646.7
818.0051	510.7386	65535	64643.9
818.1493	512.8927	65535	64631.35
818.2935	515.0461	65535	64638.55
818.4377	517.199	65535	64636.75
818.5818	519.3512	65535	64637.7
818.726	521.5029	65535	64630.2
818.8703	523.6539	65535	64638.1
819.0145	525.8043	65535	64637.4
819.1587	527.9541	65535	64631.75
819.303	530.1033	65535	64635
819.4472	532.2519	65535	64639.05
819.5915	534.3999	65535	64635.3
819.7357	536.5472	65535	64634.4
819.88	538.694	65535	64634.6
820.0243	540.8401	65535	64631.45
820.1686	542.9856	65535	64628.25
820.3129	545.1305	65535	64622.6
820.4572	547.2748	65535	64623.65
820.6016	549.4185	65535	64622.25
820.7459	551.5615	65535	64621.3
820.8902	553.704	65535	64622.55
821.0346	555.8458	65535	64624.6
821.1789	557.987	65535	64630.65
821.3233	560.1276	65535	64630
821.4677	562.2675	65535	64628.7
821.6121	564.4069	65535	64624.95
821.7565	566.5456	65535	64625.7
821.9009	568.6837	65535	64627.1
822.0453	570.8212	65535	64628.1
822.1897	572.958	65535	64628.75
822.3342	575.0942	65535	64632.15
822.4786	577.2299	65535	64630.7
822.6231	579.3648	65535	64643.55
822.7675	581.4992	65535	64645.7
822.912	583.6329	65535	64648.45
823.0565	585.766	65535	64643.4
823.201	587.8985	65535	64639
823.3454	590.0304	65535	64619.2
823.4899	592.1616	65535	64624
823.6345	594.2922	65535	64623.6
823.779	596.4222	65535	64627.6
823.9235	598.5515	65535	64621.2
824.068	600.6802	65535	64625.35
824.2126	602.8083	65535	64627.85
824.3571	604.9358	65535	64627.15
824.5017	607.0626	65535	64623.4
824.6462	609.1888	65535	64618.05
824.7908	611.3144	65535	64619.4
824.9354	613.4393	65535	64618.9
825.08	615.5636	65535	64620.1
825.2246	617.6873	65535	64622
825.3692	619.8103	65535	64618.95
825.5138	621.9327	65535	64621.85
825.6584	624.0544	65535	64627.45
825.803	626.1756	65535	64626.45
825.9477	628.2961	65535	64626.75
826.0923	630.4159	65535	64622.65
826.237	632.5351	65535	64622.9
826.3816	634.6537	65535	64623.1
826.5263	636.7716	65535	64614.75
826.6709	638.8889	65535	64615.65
826.8156	641.0056	65535	64616.3
826.9603	643.1216	65535	64617.3
827.105	645.237	65535	64616.3
827.2497	647.3518	65535	64623.8
827.3944	649.4659	65535	64624.15
827.5391	651.5793	65535	64627.9
827.6838	653.6922	65535	64623.75
827.8285	655.8043	65535	64624.35
827.9733	657.9159	65535	64619.15
828.118	660.0268	65535	64618.9
828.2627	662.137	65535	64620.45
828.4075	664.2466	65535	64616.75
828.5522	666.3556	65535	64618.8
828.697	668.4639	65535	64615.6
828.8418	670.5716	65535	64622.5
828.9865	672.6786	65535	64615.65
829.1313	674.785	65535	64617
829.2761	676.8907	65535	64617.6
829.4209	678.9958	65535	64623.9
829.5657	681.1002	65535	64618.85
829.7105	683.204	65535	64609.6
829.8553	685.3072	65535	64611.95
830.0001	687.4097	65535	64616.65
830.1449	689.5115	65535	64614.3
830.2898	691.6127	65535	64619
830.4346	693.7132	65535	64621.6
830.5794	695.8131	65535	64595.35
830.7243	697.9123	65535	64611.25
830.8691	700.0109	65535	64607.35
831.014	702.1089	65535	64612.7
831.1588	704.2061	65535	64614.25
831.3037	706.3028	65535	64608.6
831.4486	708.3987	65535	64615.7
831.5935	710.4941	65535	64619
831.7383	712.5887	65535	64615.85
831.8832	714.6827	65535	64608.95
832.0281	716.7761	65535	64618.05
832.173	718.8688	65535	64611.65
832.3179	720.9608	65535	64608.35
832.4628	723.0522	65535	64605.6
832.6077	725.1429	65535	64610.4
832.7527	727.233	65535	64611.55
832.8976	729.3224	65535	64611.9
833.0425	731.4112	65535	64612.15
833.1874	733.4993	65535	64610.35
833.3324	735.5867	65535	64611.85
833.4773	737.6735	65535	64609
833.6222	739.7596	65535	64608.65
833.7672	741.845	65535	64612.1
833.9122	743.9298	65535	64609.95
834.0571	746.014	65535	64611.05
834.2021	748.0974	65535	64601.9
834.347	750.1802	65535	64607.9
834.492	752.2624	65535	64610.95
834.637	754.3439	65535	64606
834.782	756.4247	65535	64602.7
834.9269	758.5048	65535	64611.55
835.0719	760.5843	65535	64606.2
835.2169	762.6631	65535	64609.45
835.3619	764.7413	65535	64611.15
835.5069	766.8188	65535	64607.3
835.6519	768.8956	65535	64608.4
835.7969	770.9718	65535	64608.45
835.9419	773.0473	65535	64609.5
836.0869	775.1221	65535	64609.5
836.232	777.1962	65535	64607.55
836.377	779.2697	65535	64607.65
836.522	781.3426	65535	64591.65
836.667	783.4147	65535	64608.8
836.8121	785.4862	65535	64610.45
836.9571	787.557	65535	64605.5
837.1021	789.6271	65535	64606.25
837.2472	791.6966	65535	64611.9
837.3922	793.7654	65535	64604.9
837.5373	795.8335	65535	64609.7
837.6823	797.901	65535	64607.8
837.8274	799.9678	65535	64606.2
837.9724	802.0339	65535	64605.75
838.1175	804.0993	65535	64596.4
838.2626	806.1641	65535	64606.85
838.4076	808.2282	65534.4	64606.8
838.5527	810.2916	65531.6	64602.35
838.6978	812.3544	65535	64611.3
838.8428	814.4164	65527.2	64600
838.9879	816.4778	65526.4	64596.9
839.133	818.5385	65531.25	64600.9
839.2781	820.5986	65530.35	64601.6
839.4232	822.658	65530.75	64598.15
839.5682	824.7166	65532.95	64605.95
839.7133	826.7747	65519.75	64595.4
839.8584	828.832	65520.45	64590.35
840.0035	830.8886	65533.9	64601.95
840.1486	832.9446	65535	64602.7
840.2937	834.9999	65498.95	64570.65
840.4388	837.0545	65519	64585.7
840.5839	839.1085	65530.7	64601.45
840.729	841.1618	65523.95	64594.8
840.8741	843.2143	65479.45	64550.3
841.0192	845.2662	65473.2	64542.35
841.1643	847.3175	65508.8	64582.3
841.3095	849.368	65439.05	64509.2
841.4546	851.4179	65507.65	64578.8
841.5997	853.467	65457.8	64528.95
841.7448	855.5155	65488.95	64559.8
841.8899	857.5633	65446.55	64516.25
842.0351	859.6105	65423	64492.45
842.1802	861.6569	65441.5	64508.6
842.3253	863.7027	65395.8	64465.7
842.4704	865.7478	65414.65	64482.5
842.6156	867.7922	65405.3	64476.85
842.7607	869.8359	65441.4	64510
842.9058	871.8789	65382.7	64450.05
843.0509	873.9212	65415.85	64454.6
843.1961	875.9629	65411	64479.5
843.3412	878.0039	65406.7	64476.45
843.4863	880.0441	65395.85	64465.2
843.6315	882.0837	65393.6	64460.2
843.7766	884.1226	65389.85	64458.6
843.9218	886.1609	65389.35	64459.6
844.0669	888.1984	65360.7	64429.9
844.212	890.2352	65398.45	64467.3
844.3572	892.2714	65347.75	64409.95
844.5023	894.3069	65369.15	64438.4
844.6475	896.3416	65334.1	64405.8
844.7926	898.3757	65329.55	64394.4
844.9377	900.4091	65200.45	64269.5
845.0829	902.4418	65357.45	64420.85
845.228	904.4739	65288.7	64357.1
845.3732	906.5052	65292.7	64361.4
845.5183	908.5358	65246.3	64318.35
845.6635	910.5658	65213.95	64281.6
845.8086	912.595	65204.85	64269.3
845.9538	914.6236	64955.95	64025.05
846.0989	916.6515	65285.8	64350.55
846.2441	918.6786	64940.25	64006.6
846.3892	920.7051	65068.95	64134.25
846.5344	922.7309	64964.25	64031.95
846.6795	924.756	65042.3	64107.5
846.8246	926.7804	64924.55	63988.4
846.9698	928.8041	64595.5	63659.35
847.1149	930.8272	64884.25	63953.85
847.2601	932.8495	64912.7	63977.6
847.4052	934.8711	64673.5	63739.55
847.5504	936.892	64441.2	63510.3
847.6955	938.9123	64610.5	63672.8
847.8407	940.9318	64420.6	63490
847.9858	942.9506	64405.35	63476.25
848.131	944.9688	64412.1	63480.9
848.2761	946.9862	63826.75	62893.55
848.4213	949.003	64112.65	63179.3
848.5664	951.019	63521.1	62588.75
848.7115	953.0344	63655.95	62724.9
848.8567	955.0491	63540.85	62605.45
849.0018	957.063	63757	62824.75
849.147	959.0763	63866.2	62928.95
849.2921	961.0888	63371	62438
849.4373	963.1007	63780.35	62849.75
849.5824	965.1119	63774.8	62846.15
849.7275	967.1223	63346.55	62426.25
849.8727	969.1321	63809.95	62889.85
850.0178	971.1412	63223.65	62297.4
850.1629	973.1495	63030.1	62099
850.3081	975.1572	63271.15	62284.85
850.4532	977.1641	63043.15	62110.25
850.5983	979.1704	62999.95	62067.05
850.7435	981.1759	63034.8	62098.8
850.8886	983.1808	62672.75	61742.1
851.0337	985.1849	62762.8	61818.8
851.1788	987.1884	62935.8	62002.25
851.324	989.1911	63208.35	62275.65
851.4691	991.1932	62376.35	61443.85
851.6142	993.1945	62570.9	61641.7
851.7593	995.1951	62804.2	61874.05
851.9045	997.1951	62314.85	61378.1
852.0496	999.1943	62242.2	61307.25
852.1947	1001.1928	62099.6	61166
852.3398	1003.1906	62240.45	61311.4
852.4849	1005.1877	61653.45	60719.65
852.63	1007.1841	61488.2	60558.9
852.7751	1009.1798	61528.75	60598.75
852.9202	1011.1748	61480.65	60549
853.0653	1013.1691	61311.4	60383.05
853.2104	1015.1627	59949.4	59019.05
853.3555	1017.1556	60529.15	59602.15
853.5006	1019.1477	60671.65	59739.2
853.6457	1021.1392	60074.15	59146.85
853.7908	1023.1299	59105.25	58180.2
853.9359	1025.12	59784.1	58862.6
854.081	1027.1093	59292.9	58379.9
854.2261	1029.0979	59297.45	58381.95
854.3712	1031.0859	59236.4	58320.35
854.5163	1033.0731	58454.8	57534.95
854.6613	1035.0596	58745.55	57819.45
854.8064	1037.0454	58498.2	57569
854.9515	1039.0304	58055.6	57128.2
855.0965	1041.0148	57188.9	56262.2
855.2416	1042.9985	57267.15	56339.85
855.3867	1044.9814	57794.85	56866.85
855.5317	1046.9636	56842.35	55913.75
855.6768	1048.9452	56970.05	56046.2
855.8219	1050.926	56742.5	55817.25
855.9669	1052.9061	56675.65	55747.85
856.112	1054.8855	56716.85	55788.6
856.257	1056.8642	56263.1	55336.5
856.4021	1058.8421	56017.3	55083.4
856.5471	1060.8194	56077.9	55148.8
856.6921	1062.7959	55664.6	54738.7
856.8372	1064.7717	56057.8	55127.65
856.9822	1066.7469	55779.4	54850.2
857.1272	1068.7213	55739.05	54809.75
857.2723	1070.695	55385.3	54458.3
857.4173	1072.6679	54924.05	53996.1
857.5623	1074.6402	55181	54252.35
857.7073	1076.6117	54763.45	53831
857.8523	1078.5826	54733.15	53803.1
857.9973	1080.5527	54730.05	53798.3
858.1423	1082.5221	54427.5	53498.85
858.2873	1084.4908	54706.7	53776.75
858.4323	1086.4587	54543.35	53615.8
858.5773	1088.426	54623.45	53694.35
858.7223	1090.3925	54440.7	53507.1
858.8673	1092.3584	54351.15	53424.85
859.0123	1094.3235	53789.45	52865.25
859.1573	1096.2879	53657.55	52730
859.3022	1098.2515	53677.1	52751.8
859.4472	1100.2145	53495.5	52568.85
859.5922	1102.1767	53445.7	52515.3
859.7371	1104.1382	53588.65	52659.85
859.8821	1106.099	53567.35	52641.2
860.027	1108.0591	53528.45	52601.4
860.172	1110.0185	53109.55	52178.1
860.3169	1111.9771	53542.3	52616.5
860.4619	1113.9351	53001.2	52073.95
860.6068	1115.8923	52569.05	51641.6
860.7517	1117.8488	52051.55	51121.65
860.8967	1119.8045	51534.3	50609.4
861.0416	1121.7596	51538.6	50610.45
861.1865	1123.7139	51165.1	50241.5
861.3314	1125.6675	51149.35	50223.5
861.4763	1127.6204	51151.35	50226.1
861.6212	1129.5726	50824.15	49896.85
861.7661	1131.524	50879.95	49953.25
861.911	1133.4748	50819.2	49895.3
862.0559	1135.4248	50539.65	49612
862.2008	1137.3741	50437.8	49515.2
862.3457	1139.3226	50322.05	49393.9
862.4905	1141.2705	50210.3	49281.9
862.6354	1143.2176	49875.2	48941.5
862.7803	1145.164	49777.5	48848.15
862.9251	1147.1097	49702.2	48776.3
863.07	1149.0546	49612.65	48685
863.2148	1150.9989	49535.45	48609.75
863.3597	1152.9424	49213.4	48289.4
863.5045	1154.8852	49051.85	48124.85
863.6493	1156.8272	48787.4	47860.55
863.7942	1158.7686	48805.1	47869.9
863.939	1160.7092	48423.55	47496
864.0838	1162.6491	48229.4	47299.1
864.2286	1164.5883	48316.75	47389.5
864.3734	1166.5267	48208.85	47279.15
864.5182	1168.4644	48264.65	47337.9
864.663	1170.4014	48315	47385.05
864.8078	1172.3377	48527.4	47602.25
864.9526	1174.2732	48690.75	47764.25
865.0974	1176.2081	48744	47819.85
865.2421	1178.1421	48820.7	47892.85
865.3869	1180.0755	49056.3	48131.65
865.5317	1182.0082	48838.35	47914.5
865.6764	1183.9401	48767.85	47843.25
865.8212	1185.8713	48418.65	47497.1
865.9659	1187.8017	48144.85	47227.95
866.1106	1189.7315	47898.85	46984.2
866.2554	1191.6605	47418.3	46502.65
866.4001	1193.5888	46971.9	46052.95
866.5448	1195.5163	46813.2	45892.65
866.6895	1197.4432	46585.5	45660.15
866.8342	1199.3693	46465.8	45544.95
866.9789	1201.2947	46179.75	45252.65
867.1236	1203.2193	46079.15	45154.6
867.2683	1205.1432	45916.3	44993.35
867.413	1207.0664	45839.4	44915.15
867.5576	1208.9889	45717.5	44790.05
867.7023	1210.9106	45619.6	44693.1
867.847	1212.8316	45474.75	44550.6
867.9916	1214.7519	45402.85	44473.75
868.1363	1216.6715	45245.15	44323.1
868.2809	1218.5903	45144.55	44220.85
868.4255	1220.5084	44998.45	44076.05
868.5701	1222.4257	44973.1	44050.15
868.7148	1224.3424	44711.65	43791.65
868.8594	1226.2583	44621.4	43698.95
869.004	1228.1735	44650.5	43728.9
869.1486	1230.0879	44476.65	43554.5
869.2932	1232.0016	44527.6	43605.6
869.4377	1233.9146	44414.55	43490.7
869.5823	1235.8269	44210.7	43288.4
869.7269	1237.7384	44020.75	43098.9
869.8715	1239.6492	43692.15	42771.55
870.016	1241.5592	43531.8	42607.45
870.1606	1243.4686	43311.95	42388.85
870.3051	1245.3772	43174.95	42253.25
870.4496	1247.285	43000.65	42077.95
870.5941	1249.1922	42821.25	41897.1
870.7387	1251.0986	42775.35	41856.55
870.8832	1253.0042	42585.6	41665.3
871.0277	1254.9092	42562.7	41644
871.1722	1256.8134	42490.8	41569.25
871.3167	1258.7169	42605.1	41684.9
871.4611	1260.6196	42636.65	41718.35
871.6056	1262.5216	42826.8	41905.4
871.7501	1264.4229	42710.4	41790.8
871.8945	1266.3234	42818.1	41896.5
872.039	1268.2232	42835.4	41912.35
872.1834	1270.1223	42696.05	41770.2
872.3278	1272.0207	42605	41680.8
872.4723	1273.9183	42467.55	41538.6
872.6167	1275.8151	42298.6	41379.95
872.7611	1277.7113	42113.9	41191.85
872.9055	1279.6067	41886.8	40967.65
873.0499	1281.5014	41697.2	40773.95
873.1943	1283.3953	41657.2	40737.55
873.3386	1285.2885	41566.5	40647.9
873.483	1287.181	41449.35	40528.4
873.6274	1289.0727	41515.65	40595.5
873.7717	1290.9637	41445.35	40522.75
873.9161	1292.854	41494.15	40575.05
874.0604	1294.7435	41517.95	40599.85
874.2047	1296.6323	41561.25	40640.1
874.349	1298.5204	41719	40796.3
874.4933	1300.4077	41803.6	40882.3
874.6376	1302.2943	41817.25	40895.3
874.7819	1304.1802	41865.75	40947.35
874.9262	1306.0653	41619.8	40697.5
875.0705	1307.9497	41293.25	40372.45
875.2147	1309.8333	41128.9	40212.2
875.359	1311.7162	41013.55	40094
875.5032	1313.5984	41024.2	40103.55
875.6475	1315.4798	40939.45	40015.95
875.7917	1317.3605	40923.5	40001.35
875.9359	1319.2405	40970.9	40049.35
876.0801	1321.1197	40870.15	39948
876.2243	1322.9982	40640.9	39717.2
876.3685	1324.876	40635.4	39715.75
876.5127	1326.753	40449.3	39530.55
876.6569	1328.6293	40395	39476
876.801	1330.5048	40401.55	39476.6
876.9452	1332.3796	40197.75	39278.35
877.0893	1334.2537	40166.45	39221.95
877.2335	1336.127	40008.85	39087.35
877.3776	1337.9996	39912.95	38992.35
877.5217	1339.8714	39824.75	38903.3
877.6658	1341.7426	39675.1	38709.2
877.8099	1343.6129	39563.85	38642.1
877.954	1345.4826	39489.55	38567.85
878.0981	1347.3515	39439.45	38514.8
878.2422	1349.2196	39291.75	38373.15
878.3862	1351.087	39302.85	38382.35
878.5303	1352.9537	39205.05	38285.9
878.6743	1354.8197	39290.25	38369.4
878.8184	1356.6849	39460.15	38537.5
878.9624	1358.5493	39366.3	38446.05
879.1064	1360.4131	39317.25	38397.55
879.2504	1362.276	39199.65	38280.55
879.3944	1364.1383	39043.75	38123.8
879.5384	1365.9998	38703.15	37780.35
879.6823	1367.8606	38298.6	37378.7
879.8263	1369.7206	37927.1	37008.1
879.9702	1371.5799	37706.35	36786.1
880.1142	1373.4384	37412.8	36493.1
880.2581	1375.2962	37221.3	36300.5
880.402	1377.1533	36870	35951.95
880.5459	1379.0096	36368.1	35448.2
880.6898	1380.8652	36039.15	35122.2
880.8337	1382.7201	35784.45	34866.55
880.9776	1384.5742	35405.1	34487.25
881.1215	1386.4275	35057.3	34140.05
881.2653	1388.2802	34805.5	33887.75
881.4092	1390.132	34634.8	33713.8
881.553	1391.9832	34583.65	33664.65
881.6968	1393.8336	34301.85	33384.7
881.8406	1395.6832	34172.6	33251.2
881.9844	1397.5322	34025.6	33106.35
882.1282	1399.3803	33930.85	33010.05
882.272	1401.2278	33729.35	32812.7
882.4158	1403.0745	33652.85	32734.7
882.5595	1404.9204	33500.9	32585.1
882.7033	1406.7656	33493.95	32577.75
882.847	1408.6101	33357.3	32437.7
882.9908	1410.4538	33261.5	32345
883.1345	1412.2968	33178.1	32261.05
883.2782	1414.139	33111.7	32194.15
883.4219	1415.9805	33161.15	32245.9
883.5656	1417.8213	33104.05	32163.1
883.7092	1419.6613	33098.4	32180.6
883.8529	1421.5006	33173.75	32254.35
883.9965	1423.3391	33343.8	32424.2
884.1402	1425.1769	33499	32581.7
884.2838	1427.0139	33939.75	33019.05
884.4274	1428.8502	34449.85	33533.15
884.571	1430.6858	34868.95	33953.25
884.7146	1432.5206	35133.7	34212.85
884.8582	1434.3547	35295.4	34378.45
885.0018	1436.188	35311.65	34394.1
885.1453	1438.0206	35197.55	34279.95
885.2889	1439.8524	34932.05	34016.4
885.4324	1441.6835	34828.35	33908.45
885.5759	1443.5139	34601.55	33679.95
885.7194	1445.3435	34447.55	33533.7
885.8629	1447.1724	34405.5	33489.15
886.0064	1449.0005	34209.05	33292.15
886.1499	1450.8279	34075.5	33154.45
886.2933	1452.6545	34005.85	33090.3
886.4368	1454.4804	34003.25	33089.15
886.5802	1456.3056	33898.35	32976.85
886.7237	1458.13	33794.85	32882.3
886.8671	1459.9536	33580.7	32664.5
887.0105	1461.7766	33213.5	32297.2
887.1539	1463.5987	32767.2	31848.5
887.2972	1465.4202	32346.3	31429.55
887.4406	1467.2409	31900.85	30985.05
887.584	1469.0608	31635.85	30723.1
887.7273	1470.88	31359.6	30441.65
887.8706	1472.6984	31070.65	30156.95
888.0139	1474.5161	30769.35	29848.65
888.1572	1476.3331	30542.95	29626.1
888.3005	1478.1493	30387.9	29469.8
888.4438	1479.9648	30319.9	29404.6
888.5871	1481.7795	30151.7	29236.4
888.7303	1483.5935	30036.05	29123.3
888.8736	1485.4067	29917.55	29000.7
889.0168	1487.2192	29867.45	28950.6
889.16	1489.031	29724.95	28809.05
889.3032	1490.842	29633.5	28718.8
889.4464	1492.6522	29597.2	28683.6
889.5896	1494.4618	29472.85	28556.35
889.7327	1496.2705	29448.5	28534.15
889.8759	1498.0785	29358	28442.9
890.019	1499.8858	29246.75	28330.25
890.1622	1501.6924	29123.85	28211.45
890.3053	1503.4981	29096.2	28183.15
890.4484	1505.3032	29013.4	28099.3
890.5914	1507.1075	28940.25	28027.1
890.7345	1508.911	28830.25	27912.5
890.8776	1510.7138	28775	27859.35
891.0206	1512.5159	28622.35	27711.6
891.1637	1514.3172	28600.1	27686.35
891.3067	1516.1178	28439.35	27528.7
891.4497	1517.9176	28354.4	27437.8
891.5927	1519.7166	28258.9	27343.45
891.7357	1521.515	28115.15	27197.5
891.8786	1523.3126	28101.45	27189.8
892.0216	1525.1094	27996.3	27083.45
892.1645	1526.9055	27877.4	26965.65
892.3074	1528.7008	27790.75	26875.2
892.4503	1530.4954	27606.45	26690.2
892.5932	1532.2893	27540.5	26629.65
892.7361	1534.0824	27365.4	26449.5
892.879	1535.8747	27416.1	26505.65
893.0218	1537.6663	27292.95	26383.45
893.1647	1539.4572	27203.55	26290.95
893.3075	1541.2473	27133.95	26221.45
893.4503	1543.0367	27065.55	26157.35
893.5931	1544.8253	26952.65	26038.7
893.7359	1546.6132	26930.2	26015.45
893.8787	1548.4003	26789.55	25870.9
894.0214	1550.1867	26789.7	25871.35
894.1642	1551.9723	26719.15	25806.35
894.3069	1553.7572	26724.9	25814.75
894.4496	1555.5414	26660.4	25751.65
894.5923	1557.3247	26624.4	25716.7
894.735	1559.1074	26658.6	25753.9
894.8777	1560.8893	26626.25	25720.5
895.0204	1562.6705	26627.55	25723.9
895.163	1564.4509	26638.4	25732.05
895.3056	1566.2305	26633.05	25727.65
895.4482	1568.0094	26691.1	25787.2
895.5908	1569.7876	26694.25	25787.5
895.7334	1571.565	26654.15	25747.6
895.876	1573.3417	26608.8	25701.8
896.0186	1575.1176	26569.55	25664.8
896.1611	1576.8928	26543.05	25638.85
896.3036	1578.6672	26342.8	25440.35
896.4461	1580.4409	26189.4	25289.7
896.5886	1582.2138	26014.1	25109.95
896.7311	1583.986	25880.85	24976.15
896.8736	1585.7575	25768.9	24865.4
897.0161	1587.5282	25670.8	24770.65
897.1585	1589.2981	25555.35	24656.45
897.3009	1591.0673	25443.6	24543.7
897.4433	1592.8358	25438.95	24537.7
897.5857	1594.6035	25392.4	24489.8
897.7281	1596.3704	25299.1	24393.85
897.8705	1598.1366	25251.8	24350.95
898.0128	1599.9021	25220.2	24320.2
898.1551	1601.6668	25177	24274.35
898.2975	1603.4308	25189.4	24287.6
898.4398	1605.194	25225.55	24315.9
898.5821	1606.9564	25231.65	24336.15
898.7243	1608.7182	25296	24398.25
898.8666	1610.4791	25380.95	24486.85
899.0088	1612.2394	25495.9	24603.9
899.1511	1613.9988	25600.35	24705.5
899.2933	1615.7576	25767.15	24869
899.4355	1617.5156	25920.2	25012.25
899.5776	1619.2728	26140.2	25233.3
899.7198	1621.0293	26180.3	25278.1
899.862	1622.785	26130.85	25231.4
900.0041	1624.54	25957.85	25060.7
900.1462	1626.2942	25800.85	24901.05
900.2883	1628.0477	25475.45	24574.75
900.4304	1629.8005	25210	24308.2
900.5725	1631.5525	24953.15	24054.55
900.7145	1633.3037	24761.1	23862.05
900.8566	1635.0542	24534.15	23637.3
900.9986	1636.804	24365.55	23466.7
901.1406	1638.553	24297.7	23344.15
901.2826	1640.3013	24162	23263.9
901.4245	1642.0488	24056.7	23155.1
901.5665	1643.7955	24072.65	23178.4
901.7085	1645.5416	24033.9	23137.95
901.8504	1647.2868	24101.5	23205.85
901.9923	1649.0313	24085.1	23186.15
902.1342	1650.7751	24148.25	23247.25
902.2761	1652.5181	24266.5	23370.5
902.4179	1654.2604	24345.85	23449
902.5598	1656.0019	24605.2	23709.2
902.7016	1657.7427	24855.6	23957.9
902.8434	1659.4828	25091.35	24192.4
902.9852	1661.222	25190.9	24292.25
903.127	1662.9606	25181.05	24283.7
903.2687	1664.6984	25020.4	24119.6
903.4105	1666.4354	24646.6	23745.2
903.5522	1668.1717	24129.25	23224.8
903.6939	1669.9072	23579.5	22677.5
903.8356	1671.642	23171.05	22266.7
903.9773	1673.3761	22822.75	21926.15
904.119	1675.1094	22472.2	21574.15
904.2606	1676.8419	22235.95	21338.1
904.4022	1678.5737	22042.8	21143.95
904.5439	1680.3048	21864.3	20965.9
904.6855	1682.0351	21710.65	20813.7
904.827	1683.7646	21508.5	20606.15
904.9686	1685.4934	21405.95	20507.85
905.1101	1687.2215	21347.2	20448.9
905.2517	1688.9488	21187.2	20288.35
905.3932	1690.6754	21052	20156.9
905.5347	1692.4012	21020.85	20121.6
905.6761	1694.1263	20972.75	20074
905.8176	1695.8506	20878.25	19980.1
905.9591	1697.5742	20793.85	19896.95
906.1005	1699.297	20732.7	19837.15
906.2419	1701.0191	20610.85	19715.5
906.3833	1702.7404	20540.2	19643.9
906.5246	1704.461	20427.75	19531.9
906.666	1706.1808	20318.35	19421.55
906.8073	1707.8999	20267.3	19371.25
906.9487	1709.6182	20188.6	19296.45
907.09	1711.3358	20114.35	19220.85
907.2313	1713.0527	20026.6	19133.45
907.3725	1714.7688	19934.65	19036.65
907.5138	1716.4841	19895.5	19000.5
907.655	1718.1987	19861.15	18962
907.7962	1719.9126	19777.65	18884.35
907.9374	1721.6257	19688.7	18794.55
908.0786	1723.338	19613.75	18720.2
908.2198	1725.0496	19530.15	18634.45
908.3609	1726.7605	19506.3	18609.55
908.502	1728.4706	19424.2	18528.25
908.6431	1730.18	19315	18422.25
908.7842	1731.8886	19267.1	18375.85
908.9253	1733.5964	19234.05	18320.45
909.0664	1735.3036	19184.9	18288.75
909.2074	1737.0099	19149.75	18256.75
909.3484	1738.7156	19085.95	18193.15
909.4894	1740.4204	18974.3	18080.2
909.6304	1742.1246	18950.95	18055.95
909.7714	1743.8279	18903.75	18013.15
909.9123	1745.5306	18861.7	17968.7
910.0532	1747.2325	18804.75	17911.75
910.1941	1748.9336	18707.15	17814.25
910.335	1750.634	18665.65	17771.3
910.4759	1752.3336	18632.6	17741
910.6168	1754.0325	18581.85	17691.35
910.7576	1755.7307	18529.2	17639.55
910.8984	1757.4281	18528.2	17636.35
911.0392	1759.1247	18507.3	17605.95
911.18	1760.8206	18437.65	17537.2
911.3208	1762.5158	18392.6	17494.55
911.4615	1764.2102	18337.95	17444.65
911.6022	1765.9039	18231.9	17340.7
911.7429	1767.5968	18205.8	17314.75
911.8836	1769.289	18158.2	17266.05
912.0243	1770.9804	18146.9	17254.65
912.1649	1772.6711	18117.6	17223.15
912.3056	1774.361	18042.55	17149.7
912.4462	1776.0502	18035.9	17140.8
912.5868	1777.7386	17956.45	17060.55
912.7274	1779.4263	17922.2	17030.55
912.8679	1781.1132	17882.55	16991.45
913.0084	1782.7994	17817	16923.6
913.149	1784.4849	17788.75	16897.75
913.2895	1786.1696	17739.8	16842.1
913.4299	1787.8535	17705.9	16818.55
913.5704	1789.5367	17606.8	16715.95
913.7108	1791.2192	17627.85	16739.4
913.8513	1792.9009	17558.2	16640.6
913.9917	1794.5818	17529.35	16634.4
914.132	1796.2621	17465.95	16575.2
914.2724	1797.9415	17436.05	16542.95
914.4128	1799.6202	17383.6	16491.55
914.5531	1801.2982	17322.05	16430
914.6934	1802.9755	17292	16397.95
914.8337	1804.6519	17275.15	16381.55
914.9739	1806.3277	17210.3	16321
915.1142	1808.0027	17138.7	16249.85
915.2544	1809.6769	17096.9	16209.25
915.3946	1811.3504	17050.75	16160.35
915.5348	1813.0231	17030.95	16138.95
915.675	1814.6951	17008.5	16118.35
915.8151	1816.3664	16998.55	16105.7
915.9553	1818.0369	16942.7	16049.8
916.0954	1819.7067	16902.05	16011.6
916.2355	1821.3757	16881.6	15988.8
916.3755	1823.044	16844.4	15951.85
916.5156	1824.7115	16783.95	15891.55
916.6556	1826.3783	16695.55	15802.9
916.7956	1828.0443	16628.95	15739.9
916.9356	1829.7096	16628.7	15737.2
917.0756	1831.3741	16619.75	15724.3
917.2155	1833.0379	16543.35	15653.3
917.3555	1834.701	16487.15	15595.15
917.4954	1836.3633	16485.1	15595.25
917.6353	1838.0248	16463.2	15573.05
917.7751	1839.6856	16417.7	15525.65
917.915	1841.3457	16418.6	15528.9
918.0548	1843.005	16337	15444.65
918.1946	1844.6636	16320.7	15430.35
918.3344	1846.3214	16296.85	15405.9
918.4742	1847.9785	16259.2	15367.85
918.6139	1849.6349	16203.9	15311.95
918.7537	1851.2904	16169.5	15268.45
918.8934	1852.9453	16149.1	15253.75
919.0331	1854.5994	16099.25	15204.75
919.1727	1856.2528	16123.1	15224.45
919.3124	1857.9054	16027	15133.8
919.452	1859.5572	16030.95	15140.4
919.5916	1861.2083	15995.45	15102.6
919.7312	1862.8587	15979	15087.25
919.8708	1864.5084	15917.2	15021.65
920.0103	1866.1572	15879	14986.2
920.1498	1867.8054	15833.15	14939.6
920.2893	1869.4528	15776.6	14881.75
920.4288	1871.0994	15744.65	14852.2
920.5683	1872.7453	15684.4	14790.25
920.7077	1874.3905	15684.45	14787.55
920.8471	1876.0349	15631.6	14739.6
920.9865	1877.6786	15632.7	14738.65
921.1259	1879.3215	15618.4	14726.2
921.2653	1880.9637	15583.95	14690.9
921.4046	1882.6051	15546.65	14657.35
921.5439	1884.2458	15498.65	14606.4
921.6832	1885.8858	15467.4	14576.45
921.8225	1887.525	15417.65	14524.25
921.9617	1889.1634	15329.65	14438.55
922.101	1890.8011	15288.55	14395.8
922.2402	1892.4381	15276.6	14384.65
922.3794	1894.0743	15231.3	14340.15
922.5185	1895.7098	15186.2	14296.2
922.6577	1897.3446	15171	14278.3
922.7968	1898.9786	15132.85	14237.25
922.9359	1900.6118	15092.8	14202.25
923.075	1902.2443	15028.8	14135.95
923.214	1903.8761	14977.85	14087.3
923.3531	1905.5071	14931.85	14042.9
923.4921	1907.1374	14882.4	13992.5
923.6311	1908.7669	14813.6	13923.9
923.77	1910.3957	14811.6	13922.3
923.909	1912.0237	14708.25	13817.35
924.0479	1913.651	14689.4	13797.75
924.1868	1915.2776	14655.85	13764.8
924.3257	1916.9034	14585.65	13697.4
924.4646	1918.5285	14531.95	13642.8
924.6034	1920.1528	14479.6	13589.1
924.7422	1921.7764	14485.75	13595.05
924.881	1923.3992	14410.1	13520.05
925.0198	1925.0213	14310.75	13421.7
925.1586	1926.6427	14284.85	13394.55
925.2973	1928.2633	14314	13353.25
925.436	1929.8832	14226.4	13334.2
925.5747	1931.5023	14167.5	13277.25
925.7134	1933.1207	14113.5	13223.25
925.852	1934.7383	14082.35	13190.2
925.9906	1936.3552	14050.35	13160.3
926.1292	1937.9714	13996.75	13105.9
926.2678	1939.5868	13940.75	13050.7
926.4064	1941.2015	13877.3	12985.15
926.5449	1942.8154	13818.5	12928.25
926.6834	1944.4286	13765.65	12873.95
926.8219	1946.041	13745.35	12833.45
926.9604	1947.6528	13668.8	12773.75
927.0988	1949.2637	13635.95	12745.35
927.2372	1950.8739	13579.2	12688.7
927.3756	1952.4834	13546.15	12655.95
927.514	1954.0921	13529.4	12639.7
927.6523	1955.7001	13492.3	12598.85
927.7907	1957.3074	13467.4	12580.3
927.929	1958.9139	13398.45	12510.5
928.0673	1960.5197	13343.3	12455
928.2055	1962.1247	13287.35	12397.3
928.3438	1963.729	13246.7	12359.3
928.482	1965.3325	13214.05	12303.6
928.6202	1966.9353	13144	12258.9
928.7584	1968.5374	13110	12222.5
928.8965	1970.1387	13046.15	12159.4
929.0346	1971.7393	13014	12125.3
929.1727	1973.3392	13001.95	12113.9
929.3108	1974.9383	12942.35	12056.4
929.4489	1976.5366	12870.85	11984.75
929.5869	1978.1342	12860	11973.15
929.7249	1979.7311	12818.05	11931.1
929.8629	1981.3273	12803.15	11917.5
930.0009	1982.9227	12763.5	11874.9
930.1388	1984.5173	12706.05	11820.65
930.2767	1986.1112	12651.05	11766.05
930.4146	1987.7044	12606.8	11721.75
930.5525	1989.2968	12601.15	11713.2
930.6904	1990.8885	12546.65	11659.3
930.8282	1992.4795	12519.45	11633.5
930.966	1994.0697	12472.85	11585.9
931.1038	1995.6592	12462.85	11576.7
931.2415	1997.2479	12416.8	11529.35
931.3793	1998.8359	12376.45	11491.15
931.517	2000.4232	12347.65	11464.6
931.6547	2002.0097	12281.15	11399.35
931.7923	2003.5955	12248	11366.35
931.93	2005.1805	12228.15	11339.3
932.0676	2006.7648	12188.1	11305.2
932.2052	2008.3484	12163.8	11278.4
932.3427	2009.9312	12159.15	11272.65
932.4803	2011.5133	12108.85	11225.95
932.6178	2013.0946	12081.75	11199.2
932.7553	2014.6752	12027.5	11144.55
932.8928	2016.2551	12008.45	11124.05
933.0302	2017.8342	11965.2	11082.85
933.1676	2019.4126	11917.75	11034.9
933.305	2020.9902	11849.1	10965.85
933.4424	2022.5672	11839.5	10955.6
933.5798	2024.1433	11798.65	10908.8
933.7171	2025.7188	11771.7	10890.75
933.8544	2027.2935	11732	10849.05
933.9917	2028.8674	11689.75	10806.7
934.129	2030.4406	11670.75	10787.6
934.2662	2032.0131	11618	10735.6
934.4034	2033.5849	11562.4	10676.3
934.5406	2035.1559	11567.05	10685.05
934.6778	2036.7261	11549.55	10669
934.8149	2038.2957	11514.45	10630
934.952	2039.8645	11475.2	10590.45
935.0891	2041.4325	11481.3	10594.55
935.2262	2042.9998	11424.2	10539.9
935.3632	2044.5664	11382.8	10497.3
935.5002	2046.1323	11354.95	10471.35
935.6372	2047.6974	11319.55	10435.85
935.7742	2049.2617	11282.05	10400.35
935.9111	2050.8254	11295.1	10406.55
936.048	2052.3883	11276.1	10393.5
936.1849	2053.9504	11215.25	10329.2
936.3218	2055.5118	11187.9	10301.65
936.4586	2057.0725	11138.4	10250.6
936.5955	2058.6325	11106.55	10222.5
936.7323	2060.1917	11090.15	10207.3
936.869	2061.7502	11055.15	10170.1
937.0058	2063.3079	11006.5	10123.65
937.1425	2064.8649	10977.8	10092.25
937.2792	2066.4212	10945.75	10061.6
937.4159	2067.9767	10911.9	10029.8
937.5525	2069.5315	10882.75	9999.85
937.6891	2071.0856	10851.7	9968.1
937.8257	2072.6389	10796.7	9912.65
937.9623	2074.1915	10724.85	9845.55
938.0989	2075.7433	10672.25	9785.35
938.2354	2077.2945	10670.95	9788.5
938.3719	2078.8448	10644.1	9758.35
938.5084	2080.3945	10603.9	9720.55
938.6448	2081.9434	10582.7	9698.7
938.7812	2083.4916	10564.5	9678.7
938.9176	2085.039	10535.5	9647.4
939.054	2086.5857	10504.75	9617.45
939.1903	2088.1317	10507.4	9622.7
939.3267	2089.677	10473.65	9586.25
939.463	2091.2215	10438.4	9550.5
939.5992	2092.7652	10408.2	9517.1
939.7355	2094.3083	10373.8	9485.1
939.8717	2095.8506	10376.35	9492.2
940.0079	2097.3921	10375.2	9490.85
940.1441	2098.933	10313.95	9429.25
940.2802	2100.4731	10304.4	9420.85
940.4163	2102.0124	10296.3	9400.3
940.5524	2103.5511	10242.6	9356.65
940.6885	2105.089	10214.3	9328
940.8245	2106.6261	10209.85	9324.05
940.9606	2108.1626	10165.5	9280.25
941.0965	2109.6983	10178.95	9265.45
941.2325	2111.2332	10136.75	9250.9
941.3684	2112.7675	10110.55	9223.9
941.5044	2114.301	10074.25	9185.85
941.6403	2115.8337	10053.85	9169.25
941.7761	2117.3657	10022.45	9134.85
941.912	2118.897	9989.9	9102.5
942.0478	2120.4276	9961.55	9067.6
942.1835	2121.9575	9916.25	9029.3
942.3193	2123.4866	9918.35	9029.35
942.455	2125.0149	9863.3	8975.1
942.5907	2126.5426	9826.8	8942.1
942.7264	2128.0695	9810.35	8922.6
942.8621	2129.5956	9782.35	8898.25
942.9977	2131.1211	9789	8900.6
943.1333	2132.6458	9754.65	8871.75
943.2689	2134.1698	9711.05	8822.25
943.4044	2135.693	9696.45	8808
943.54	2137.2155	9657.35	8770.8
943.6755	2138.7373	9619.1	8734
943.8109	2140.2584	9613.15	8728.05
943.9464	2141.7787	9607.1	8717.75
944.0818	2143.2983	9553.05	8670.5
944.2172	2144.8171	9509.85	8628.8
944.3526	2146.3353	9499.05	8612.45
944.4879	2147.8527	9455.9	8572.1
944.6232	2149.3693	9469.5	8583.1
944.7585	2150.8853	9411.3	8525.85
944.8938	2152.4005	9371.75	8484.9
945.029	2153.9149	9354.8	8467.6
945.1642	2155.4287	9443.8	8453.15
945.2994	2156.9417	9338.75	8450
945.4346	2158.454	9309.85	8424.45
945.5697	2159.9655	9266.35	8383.2
945.7048	2161.4764	9238.1	8354.55
945.8399	2162.9865	9213	8327.1
945.9749	2164.4958	9193.45	8307.85
946.1099	2166.0045	9148.55	8260.5
946.2449	2167.5124	9143.25	8259.1
946.3799	2169.0195	9100.15	8215.6
946.5148	2170.526	9109.45	8223.15
946.6498	2172.0317	9086.9	8201.65
946.7846	2173.5367	9053.15	8168.6
946.9195	2175.0409	9017.45	8133.3
947.0543	2176.5445	9020.1	8136.05
947.1891	2178.0473	8971.65	8087
947.3239	2179.5494	8941.3	8053.85
947.4587	2181.0507	8925.45	8040.25
947.5934	2182.5513	8906.15	8020.9
947.7281	2184.0512	8881.15	7995.25
947.8628	2185.5504	8840.15	7955.75
947.9974	2187.0488	8793.2	7907.5
948.132	2188.5465	8778.85	7892.75
948.2666	2190.0435	8750.15	7864.6
948.4012	2191.5397	8723.3	7838.35
948.5357	2193.0353	8690.05	7807.5
948.6702	2194.5301	8664.05	7775.75
948.8047	2196.0241	8644.35	7756.55
948.9392	2197.5175	8633.25	7746.7
949.0736	2199.0101	8610.4	7719.7
949.208	2200.502	8549.35	7664.45
949.3424	2201.9931	8517.7	7630.7
949.4767	2203.4835	8473.25	7587.35
949.611	2204.9733	8456.6	7554.2
949.7453	2206.4622	8448.1	7564.95
949.8796	2207.9505	8435.05	7552.05
950.0138	2209.438	8373.1	7489.3
950.148	2210.9248	8350.85	7466.75
950.2822	2212.4109	8309.5	7424.5
950.4164	2213.8962	8310.45	7420.25
950.5505	2215.3809	8297.4	7408.85
950.6846	2216.8648	8276.3	7386.25
950.8186	2218.3479	8249.6	7356.75
950.9527	2219.8304	8200.8	7310.95
951.0867	2221.3121	8198.25	7307.25
951.2207	2222.7931	8161.2	7273.75
951.3546	2224.2733	8122.75	7237.6
951.4886	2225.7529	8092.5	7207.1
951.6225	2227.2317	8061.45	7177.1
951.7563	2228.7098	8060.2	7174.35
951.8902	2230.1872	8016	7132.6
952.024	2231.6638	8010	7125.6
952.1578	2233.1397	7971.65	7082.1
952.2916	2234.6149	7972.15	7087.8
952.4253	2236.0894	7944.5	7058.05
952.559	2237.5632	7923	7036.65
952.6927	2239.0362	7878.6	6994.85
952.8263	2240.5085	7848.55	6963.9
952.9599	2241.9801	7822.2	6936.05
953.0935	2243.4509	7808.7	6919.45
953.2271	2244.921	7762.65	6875.8
953.3606	2246.3904	7744.2	6854.45
953.4941	2247.8591	7711.35	6822.1
953.6276	2249.3271	7714	6829.25
953.7611	2250.7943	7686.7	6798.85
953.8945	2252.2608	7640.1	6753.65
954.0279	2253.7266	7644.45	6757.6
954.1612	2255.1917	7619.95	6734
954.2946	2256.656	7596.4	6709.55
954.4279	2258.1197	7572	6688.4
954.5612	2259.5826	7557.45	6668.85
954.6944	2261.0447	7543.35	6656.3
954.8276	2262.5062	7499.65	6610.4
954.9608	2263.9669	7491.7	6603.5
955.094	2265.4269	7492.85	6607.25
955.2271	2266.8862	7477.35	6592.5
955.3602	2268.3448	7445.5	6559.45
955.4933	2269.8026	7432.55	6546.4
955.6264	2271.2598	7393.9	6507
955.7594	2272.7162	7368.7	6486.1
955.8924	2274.1719	7372.9	6484.55
956.0253	2275.6268	7340.45	6453.25
956.1583	2277.0811	7342.25	6455.55
956.2912	2278.5346	7322.55	6439.25
956.4241	2279.9874	7301.55	6417.5
956.5569	2281.4395	7273.85	6388.55
956.6897	2282.8908	7230.45	6341.1
956.8225	2284.3414	7236.05	6347.85
956.9553	2285.7914	7206.05	6322.7
957.088	2287.2406	7180.75	6291
957.2207	2288.689	7178.6	6293.95
957.3534	2290.1368	7161.85	6270.95
957.486	2291.5838	7129.4	6237.2
957.6186	2293.0302	7130.35	6240.35
957.7512	2294.4758	7081.5	6192
957.8838	2295.9206	7054.95	6166
958.0163	2297.3648	7028.95	6144.85
958.1488	2298.8082	7038.5	6153.75
958.2813	2300.251	6990.15	6103.05
958.4137	2301.693	6998.4	6110.35
958.5461	2303.1343	6985.9	6097.25
958.6785	2304.5748	6944.1	6058
958.8108	2306.0147	6929.4	6042.9
958.9432	2307.4538	6934.9	6049.1
959.0754	2308.8922	6883.5	6000.6
959.2077	2310.3299	6872.9	5987.9
959.3399	2311.7669	6856.2	5971.4
959.4721	2313.2031	6829.25	5943.8
959.6043	2314.6387	6808.9	5924.9
959.7365	2316.0735	6771.7	5886.5
959.8686	2317.5076	6751.75	5865.5
960.0006	2318.941	6748.95	5862.7
960.1327	2320.3737	6742.9	5853.2
960.2647	2321.8056	6729.55	5837.75
960.3967	2323.2369	6689.2	5800
960.5287	2324.6674	6682	5793
960.6606	2326.0972	6647.9	5760.35
960.7925	2327.5263	6655.25	5768.1
960.9244	2328.9547	6612.35	5724.75
961.0562	2330.3823	6586	5699.1
961.1881	2331.8092	6608.3	5717.45
961.3198	2333.2355	6570.05	5682.15
961.4516	2334.661	6555.75	5668.45
961.5833	2336.0858	6531.8	5643.3
961.715	2337.5098	6517.3	5630.2
961.8467	2338.9332	6504.7	5616.45
961.9783	2340.3558	6485.95	5596.2
962.1099	2341.7778	6453.1	5567.35
962.2415	2343.199	6438.45	5550.4
962.373	2344.6195	6420.75	5536.4
962.5045	2346.0393	6414.05	5529.7
962.636	2347.4583	6418.5	5532.75
962.7675	2348.8767	6377.15	5488.9
962.8989	2350.2943	6363.3	5474.95
963.0303	2351.7113	6340.5	5453.65
963.1617	2353.1275	6321.75	5434.65
963.293	2354.543	6323.05	5424.9
963.4243	2355.9578	6290.5	5405.1
963.5556	2357.3718	6252.65	5367.65
963.6868	2358.7852	6242.25	5352.75
963.818	2360.1978	6221	5334.95
963.9492	2361.6098	6207.85	5323
964.0803	2363.021	6198.55	5308.9
964.2114	2364.4315	6170.75	5283.85
964.3425	2365.8413	6156.75	5269.95
964.4736	2367.2504	6117.35	5233.5
964.6046	2368.6587	6076.1	5190
964.7356	2370.0664	6086.4	5200.35
964.8666	2371.4733	6062.15	5174.7
964.9975	2372.8795	6044.3	5157.75
965.1284	2374.285	6044.9	5159.8
965.2593	2375.6899	6006.85	5119.85
965.3901	2377.0939	5979.45	5092.85
965.5209	2378.4973	5947.25	5061.65
965.6517	2379.9	5940.2	5054.4
965.7825	2381.3019	5905.05	5020.55
965.9132	2382.7032	5901.2	5016.8
966.0439	2384.1037	5906	5022.85
966.1745	2385.5035	5854.45	4968.35
966.3051	2386.9027	5836.65	4951.65
966.4357	2388.3011	5858.3	4969.75
966.5663	2389.6987	5817.35	4931.05
966.6968	2391.0957	5799.25	4914.35
966.8273	2392.492	5785.75	4899.35
966.9578	2393.8876	5756	4868.5
967.0882	2395.2824	5729.55	4846.15
967.2186	2396.6765	5699.35	4814.15
967.349	2398.07	5690.45	4806.5
967.4793	2399.4627	5676.4	4789.6
967.6097	2400.8547	5662.95	4775.35
967.7399	2402.246	5649.05	4759.35
967.8702	2403.6366	5625	4738.9
968.0004	2405.0265	5580.05	4694.9
968.1306	2406.4156	5577.05	4687.15
968.2607	2407.8041	5553.55	4665.75
968.3909	2409.1918	5547.25	4657.1
968.521	2410.5789	5527.1	4641.4
968.651	2411.9652	5511.4	4623.15
968.781	2413.3508	5507.15	4621.2
968.911	2414.7358	5463.65	4576.7
969.041	2416.12	5464.75	4578.2
969.1709	2417.5035	5451.15	4564.45
969.3008	2418.8863	5428.25	4540.2
969.4307	2420.2684	5409.4	4523.7
969.5606	2421.6497	5385.2	4499.1
969.6904	2423.0304	5365.1	4478.7
969.8201	2424.4104	5349.1	4461.9
969.9499	2425.7896	5340.45	4453.05
970.0796	2427.1682	5312.75	4427.35
970.2093	2428.546	5321.6	4434.2
970.3389	2429.9232	5307.7	4422.35
970.4685	2431.2996	5304.05	4417.35
970.5981	2432.6753	5253.05	4368.2
970.7277	2434.0503	5264.2	4377.1
970.8572	2435.4246	5231.5	4345.15
970.9867	2436.7982	5212	4323.85
971.1161	2438.1711	5202.3	4316.15
971.2456	2439.5433	5192.7	4305.4
971.375	2440.9148	5150.15	4258.4
971.5043	2442.2856	5146.65	4261.4
971.6336	2443.6557	5132.4	4245.9
971.7629	2445.025	5105	4218.95
971.8922	2446.3937	5096.35	4209.55
972.0214	2447.7617	5092.25	4204.3
972.1506	2449.1289	5071.65	4185.35
972.2798	2450.4955	5068.15	4177.55
972.4089	2451.8613	5046.3	4160.25
972.538	2453.2265	5040.55	4154.55
972.6671	2454.5909	5020.25	4134.4
972.7961	2455.9546	5025.85	4140.9
972.9251	2457.3177	5009.2	4122.75
973.0541	2458.68	4982.65	4094.45
973.1831	2460.0416	4989.7	4105.65
973.312	2461.4025	4968.4	4079.85
973.4408	2462.7627	4950.2	4052.65
973.5697	2464.1222	4936.15	4050.7
973.6985	2465.4811	4940.6	4053.6
973.8273	2466.8392	4916.25	4030.55
973.956	2468.1966	4913.95	4028.05
974.0847	2469.5533	4906.15	4018.8
974.2134	2470.9093	4894.85	4009.95
974.3421	2472.2645	4871.6	3982.05
974.4707	2473.6191	4869.2	3984.75
974.5993	2474.973	4842.4	3956
974.7278	2476.3262	4818.75	3931.45
974.8563	2477.6787	4807.15	3922.15
974.9848	2479.0305	4786.45	3899.2
975.1132	2480.3816	4762.7	3875.2
975.2417	2481.7319	4781.3	3896.15
975.37	2483.0816	4751.95	3864.6
975.4984	2484.4306	4724.75	3836.2
975.6267	2485.7789	4724.35	3838.65
975.755	2487.1264	4696.9	3809.45
975.8833	2488.4733	4677.7	3792.2
976.0115	2489.8195	4674.9	3772.05
976.1397	2491.165	4665.7	3778.3
976.2678	2492.5097	4647.1	3760.4
976.3959	2493.8538	4625.45	3740.5
976.524	2495.1972	4608.25	3721.85
976.6521	2496.5398	4588.4	3700.9
976.7801	2497.8818	4587.35	3699.6
976.9081	2499.2231	4576.1	3690.45
977.036	2500.5637	4561.8	3672.4
977.164	2501.9035	4541.05	3652.25
977.2918	2503.2427	4553.8	3662
977.4197	2504.5812	4509.25	3622.1
977.5475	2505.919	4498.1	3610.45
977.6753	2507.256	4492.75	3607.1
977.8031	2508.5924	4477.8	3591.2
977.9308	2509.9281	4469.6	3576.95
978.0585	2511.2631	4447.3	3562.5
978.1861	2512.5974	4428.2	3543.25
978.3137	2513.9309	4415.65	3529.45
978.4413	2515.2638	4427.25	3519
978.5689	2516.596	4410.25	3525.7
978.6964	2517.9275	4396.15	3510.3
978.8239	2519.2583	4369.9	3482.4
978.9513	2520.5884	4361.25	3473
979.0788	2521.9178	4352.15	3467.45
979.2062	2523.2465	4324.75	3439.75
979.3335	2524.5745	4303	3418.1
979.4608	2525.9018	4301.7	3414.55
979.5881	2527.2284	4292.15	3408.15
979.7154	2528.5543	4302.2	3416.7
979.8426	2529.8796	4274.85	3386.25
979.9698	2531.2041	4272.6	3388.6
980.0969	2532.5279	4254.15	3368.95
980.224	2533.851	4268.55	3381.7
980.3511	2535.1735	4237	3350.65
980.4781	2536.4952	4245.6	3359.7
980.6052	2537.8163	4232.85	3345.9
980.7321	2539.1366	4206.7	3320.85
980.8591	2540.4562	4204.55	3318.25
980.986	2541.7752	4199	3312.2
981.1129	2543.0935	4192.1	3305
981.2397	2544.411	4183.2	3295.65
981.3665	2545.7279	4190.3	3304.3
981.4933	2547.0441	4177.4	3290
981.62	2548.3596	4166.2	3276.65
981.7467	2549.6744	4146.15	3260.15
981.8734	2550.9885	4132.4	3238.35
982.0001	2552.3019	4126.35	3239.3
982.1267	2553.6146	4127.3	3240.95
982.2532	2554.9266	4094.4	3207.7
982.3798	2556.2379	4094.95	3204.65
982.5063	2557.5485	4082	3196.4
982.6327	2558.8585	4073.95	3178.75
982.7592	2560.1677	4058.75	3167.55
982.8856	2561.4762	4058.3	3171.4
983.0119	2562.7841	4059.25	3168.45
983.1383	2564.0913	4060.95	3176.6
983.2646	2565.3977	4041.3	3156.55
983.3908	2566.7035	4034.5	3146.3
983.517	2568.0086	4012.75	3125.85
983.6432	2569.313	4028.05	3141.25
983.7694	2570.6167	4002	3112.1
983.8955	2571.9197	3986.6	3101.85
984.0216	2573.222	3995.8	3106.6
984.1476	2574.5236	3977.75	3089.35
984.2737	2575.8246	3974.1	3083.9
984.3996	2577.1248	3960	3070.8
984.5256	2578.4244	3952.9	3067.9
984.6515	2579.7232	3957	3068.95
984.7774	2581.0214	3972	3055.5
984.9032	2582.3189	3949.2	3061.95
985.029	2583.6157	3948.35	3057.65
985.1548	2584.9118	3928.15	3040.85
985.2806	2586.2072	3924.95	3037.2
985.4063	2587.5019	3903.85	3019.2
985.5319	2588.7959	3898.35	3010.5
985.6576	2590.0893	3899.45	3012.05
985.7832	2591.3819	3888.9	3002.05
985.9087	2592.6739	3883.25	2995.85
986.0343	2593.9652	3869.6	2981.6
986.1597	2595.2557	3862.8	2975.7
986.2852	2596.5456	3846.3	2956.7
986.4106	2597.8348	3834.45	2946.05
986.536	2599.1234	3824.8	2938.1
986.6614	2600.4112	3826.7	2938.2
986.7867	2601.6983	3818.3	2929.5
986.912	2602.9848	3802	2914.65
987.0372	2604.2705	3801.4	2906.2
987.1624	2605.5556	3787	2899.8
987.2876	2606.84	3767.85	2882.7
987.4128	2608.1237	3769.55	2884.45
987.5379	2609.4067	3746.05	2860.2
987.6629	2610.689	3737.25	2841.15
987.788	2611.9707	3726.9	2836.2
987.913	2613.2516	3724.6	2834.2
988.0379	2614.5319	3694.25	2809.45
988.1629	2615.8115	3688.45	2801.85
988.2878	2617.0903	3670.9	2781.15
988.4126	2618.3685	3673.75	2785.85
988.5375	2619.6461	3666.15	2778.3
988.6622	2620.9229	3648.65	2763.85
988.787	2622.199	3643.6	2754.85
988.9117	2623.4745	3637.65	2749
989.0364	2624.7493	3615.7	2730.5
989.161	2626.0234	3600.7	2715.2
989.2857	2627.2968	3599.45	2713.15
989.4102	2628.5695	3595.3	2708.05
989.5348	2629.8415	3574.8	2689.7
989.6593	2631.1128	3568.8	2681.2
989.7837	2632.3835	3562.85	2675.45
989.9082	2633.6535	3551.9	2664.1
990.0326	2634.9228	3540.9	2655.45
990.1569	2636.1914	3535.7	2649.15
990.2812	2637.4593	3531.3	2641.95
990.4055	2638.7265	3512.35	2624.15
990.5298	2639.9931	3507.75	2621.85
990.654	2641.259	3496.2	2608.45
990.7782	2642.5242	3484.15	2598.65
990.9023	2643.7887	3465	2578.3
991.0264	2645.0525	3461.5	2576.2
991.1505	2646.3156	3465	2563.5
991.2745	2647.5781	3446	2559.95
991.3985	2648.8398	3439.05	2554.4
991.5225	2650.1009	3426.65	2530.25
991.6464	2651.3613	3428.65	2541.6
991.7703	2652.6211	3424.55	2538.65
991.8942	2653.8801	3411.25	2525.85
992.018	2655.1385	3405.05	2516.3
992.1418	2656.3961	3382.2	2497.6
992.2655	2657.6531	3389	2502.45
992.3892	2658.9094	3376.1	2490.6
992.5129	2660.1651	3368.2	2482.8
992.6366	2661.42	3362.15	2474.35
992.7602	2662.6743	3344.25	2455.7
992.8837	2663.9279	3351.8	2464.05
993.0073	2665.1808	3366.6	2480.2
993.1307	2666.433	3354.8	2467.2
993.2542	2667.6846	3340.15	2453.75
993.3776	2668.9354	3322	2433.8
993.501	2670.1856	3323.4	2438.35
993.6244	2671.4351	3320.75	2437.45
993.7477	2672.6839	3306.5	2420.05
993.8709	2673.9321	3312.55	2426.65
993.9942	2675.1795	3301	2414.05
994.1174	2676.4263	3289.2	2404.2
994.2405	2677.6724	3290.35	2405.15
994.3637	2678.9179	3292.7	2406.85
994.4868	2680.1626	3283.55	2399.25
994.6098	2681.4067	3277.25	2392.3
994.7328	2682.6501	3268	2381.25
994.8558	2683.8928	3251.1	2363.95
994.9788	2685.1348	3256.4	2372.05
995.1017	2686.3761	3239.15	2354.05
995.2245	2687.6168	3221.8	2335.85
995.3474	2688.8568	3228.75	2342.75
995.4702	2690.0961	3206.4	2320.5
995.5929	2691.3348	3203.1	2319.05
995.7156	2692.5727	3192.55	2304.8
995.8383	2693.81	3179	2292.3
995.961	2695.0466	3170.2	2283.75
996.0836	2696.2826	3165.25	2276.95
996.2062	2697.5178	3163	2275.35
996.3287	2698.7524	3155.3	2268.25
996.4512	2699.9863	3153.5	2267.8
996.5737	2701.2195	3145.5	2261.15
996.6961	2702.452	3152.9	2265.1
996.8185	2703.6839	3134.1	2246.65
996.9408	2704.9151	3135.15	2249.55
997.0631	2706.1456	3121.7	2235.3
997.1854	2707.3755	3132.75	2247.6
997.3077	2708.6046	3127.85	2241.25
997.4299	2709.8331	3121.85	2234
997.552	2711.0609	3114.5	2227.65
997.6742	2712.2881	3126.85	2240.55
997.7963	2713.5145	3115.7	2226.1
997.9183	2714.7403	3116.7	2233.95
998.0403	2715.9654	3123.15	2235.05
998.1623	2717.1899	3139.55	2239.85
998.2842	2718.4136	3129.55	2246.25
998.4062	2719.6367	3136.35	2251.2
998.528	2720.8591	3143.9	2249.9
998.6498	2722.0809	3143.5	2259.5
998.7716	2723.3019	3141.45	2254.25
998.8934	2724.5223	3146.85	2260.5
999.0151	2725.7421	3149.65	2262.9
999.1368	2726.9611	3126.75	2237.35
999.2584	2728.1795	3120	2231.2
999.38	2729.3972	3112.85	2226.8
999.5016	2730.6142	3098.85	2207.2
999.6231	2731.8306	3077.5	2192.05
999.7446	2733.0462	3064.5	2177.65
999.8661	2734.2612	3023.2	2131.55
999.9875	2735.4756	3012.9	2125.75
1000.1089	2736.6892	2996.2	2110.25
1000.2302	2737.9022	2965.9	2082.4
1000.3515	2739.1145	2955.45	2071.15
1000.4728	2740.3262	2937.4	2042.25
1000.594	2741.5372	2917.6	2033.35
1000.7152	2742.7475	2896.05	2011
1000.8363	2743.9571	2882.05	1995.55
1000.9575	2745.1661	2879.6	1991.05
1001.0785	2746.3744	2863.5	1979
1001.1996	2747.582	2842.1	1956.45
1001.3206	2748.7889	2827.25	1941.8
1001.4415	2749.9952	2832.3	1945.95
1001.5625	2751.2008	2805.35	1918.25
1001.6833	2752.4057	2798.85	1911.4
1001.8042	2753.61	2787.15	1901.05
1001.925	2754.8136	2793.05	1906.6
1002.0458	2756.0165	2778.15	1891.85
1002.1665	2757.2188	2762	1877.3
1002.2872	2758.4204	2764.8	1880.5
1002.4078	2759.6213	2749.45	1862.1
1002.5285	2760.8215	2760.45	1872.2
1002.649	2762.0211	2747.65	1860.6
1002.7696	2763.22	2750.65	1862.15
1002.8901	2764.4182	2736	1849.25
1003.0106	2765.6158	2726.75	1842.05
1003.131	2766.8127	2703.15	1816.05
1003.2514	2768.009	2707.1	1823.15
1003.3717	2769.2045	2704.85	1819.85
1003.492	2770.3994	2705.7	1819.7
1003.6123	2771.5936	2679.65	1794.2
1003.7325	2772.7872	2673.25	1787.6
1003.8527	2773.9801	2668.75	1782.15
1003.9729	2775.1723	2668.9	1766.35
1004.093	2776.3639	2648.2	1763.8
1004.2131	2777.5548	2647.3	1760.9
1004.3331	2778.745	2650.05	1765.6
1004.4531	2779.9346	2644.95	1760.8
1004.5731	2781.1235	2644.25	1759.25
1004.693	2782.3117	2638	1753.6
1004.8129	2783.4992	2646.05	1759.95
1004.9328	2784.6861	2633	1746.1
1005.0526	2785.8723	2629.8	1743.2
1005.1723	2787.0579	2636.6	1752.45
1005.2921	2788.2428	2626.75	1738.6
1005.4118	2789.427	2625.6	1741.9
1005.5314	2790.6106	2627.4	1742.9
1005.651	2791.7935	2629.85	1745.6
1005.7706	2792.9757	2636.4	1753.2
1005.8902	2794.1573	2639.4	1752.2
1006.0097	2795.3382	2644.45	1761.65
1006.1291	2796.5184	2652	1768.95
1006.2485	2797.698	2658.85	1773.75
1006.3679	2798.8769	2682.35	1797.65
1006.4873	2800.0551	2687.6	1801.85
1006.6066	2801.2327	2693.35	1808.95
1006.7258	2802.4096	2708.4	1823.95
1006.8451	2803.5859	2715.95	1830.75
1006.9642	2804.7615	2731.95	1846.35
1007.0834	2805.9364	2748.95	1863.35
1007.2025	2807.1106	2764.4	1880.25
1007.3216	2808.2842	2788.65	1904.55
1007.4406	2809.4572	2813.1	1926.75
1007.5596	2810.6294	2847.8	1960.65
1007.6785	2811.801	2873.4	1991
1007.7975	2812.972	2905.7	2021.4
1007.9163	2814.1423	2951.85	2068.55
1008.0352	2815.3119	2992.55	2108.9
1008.154	2816.4808	3039.4	2158.25
1008.2727	2817.6491	3066.2	2182.2
1008.3914	2818.8167	3105.35	2224
1008.5101	2819.9837	3147.1	2257.7
1008.6288	2821.15	3194.7	2311.65
1008.7474	2822.3157	3231.75	2349.1
1008.8659	2823.4807	3262.65	2380.7
1008.9844	2824.645	3305.2	2418.7
1009.1029	2825.8086	3340.95	2455.9
1009.2214	2826.9716	3388.4	2505.3
1009.3398	2828.134	3428.45	2545.3
1009.4581	2829.2957	3458.75	2577.1
1009.5764	2830.4567	3484.45	2600.55
1009.6947	2831.617	3484.65	2601.15
1009.813	2832.7767	3505.2	2623.1
1009.9312	2833.9358	3490.5	2608.75
1010.0493	2835.0941	3495.3	2607.9
1010.1675	2836.2519	3476.85	2592
1010.2855	2837.4089	3462.65	2577.05
1010.4036	2838.5653	3453.4	2567.4
1010.5216	2839.7211	3439.85	2558.1
1010.6396	2840.8761	3443.95	2557.55
1010.7575	2842.0306	3464.3	2581.35
1010.8754	2843.1843	3495.45	2612.6
1010.9932	2844.3374	3528.8	2645.3
1011.111	2845.4899	3580.6	2696.95
1011.2288	2846.6417	3628.9	2745.95
1011.3465	2847.7928	3702.95	2820.6
1011.4642	2848.9433	3768.5	2885.4
1011.5818	2850.0931	3835.65	2952.8
1011.6995	2851.2422	3898.9	3014.1
1011.817	2852.3907	3964.75	3078
1011.9345	2853.5385	4019.05	3131.1
1012.052	2854.6857	4062.8	3172.1
1012.1695	2855.8323	4106.1	3223
1012.2869	2856.9781	4148.3	3265.3
1012.4042	2858.1233	4193.7	3310.5
1012.5216	2859.2679	4239.35	3355.9
1012.6389	2860.4118	4272.05	3388.05
1012.7561	2861.555	4323.1	3434.9
1012.8733	2862.6976	4358.1	3471.85
1012.9905	2863.8395	4366.05	3485.2
1013.1076	2864.9808	4392.2	3508.45
1013.2247	2866.1214	4397.1	3515.75
1013.3417	2867.2614	4417.75	3535.3
1013.4587	2868.4007	4421.75	3536.3
1013.5757	2869.5393	4417.6	3534.7
1013.6926	2870.6773	4436.5	3549.05
1013.8095	2871.8146	4448.65	3562
1013.9263	2872.9513	4437.8	3549.4
1014.0431	2874.0874	4414.55	3530.5
1014.1599	2875.2227	4417.35	3534.4
1014.2766	2876.3574	4406.95	3521.75
1014.3933	2877.4915	4377.1	3494.4
1014.51	2878.6249	4338.9	3456.6
1014.6266	2879.7577	4317.7	3434.35
1014.7431	2880.8898	4295.7	3401.95
1014.8596	2882.0212	4273.45	3391.85
1014.9761	2883.152	4272.05	3388.65
1015.0925	2884.2821	4220.85	3336.95
1015.2089	2885.4116	4227.45	3344.3
1015.3253	2886.5405	4209.4	3325.15
1015.4416	2887.6686	4226.3	3339.25
1015.5579	2888.7962	4241.7	3359.4
1015.6741	2889.923	4235.8	3354.4
1015.7903	2891.0493	4237.05	3354.1
1015.9065	2892.1748	4247.3	3363.2
1016.0226	2893.2997	4242.25	3359.3
1016.1387	2894.424	4252.5	3370.55
1016.2547	2895.5476	4278	3394.5
1016.3707	2896.6706	4284.6	3402.3
1016.4866	2897.7929	4320.8	3436.65
1016.6025	2898.9145	4344.15	3462.25
1016.7184	2900.0355	4352.8	3468.6
1016.8342	2901.1559	4376.6	3493.05
1016.95	2902.2756	4393.6	3510.95
1017.0658	2903.3946	4430.75	3549.2
1017.1815	2904.513	4448.35	3560
1017.2971	2905.6308	4482.6	3598.35
1017.4127	2906.7479	4492.3	3607.9
1017.5283	2907.8643	4499.6	3618.15
1017.6439	2908.9801	4510.55	3627.2
1017.7594	2910.0953	4523.3	3640.35
1017.8748	2911.2098	4527.75	3639.55
1017.9902	2912.3236	4522.55	3632.25
1018.1056	2913.4368	4503.75	3615.45
1018.2209	2914.5494	4460.8	3577.4
1018.3362	2915.6613	4453.45	3564.65
1018.4515	2916.7725	4413.85	3527.7
1018.5667	2917.8831	4373.85	3488.85
1018.6819	2918.9931	4359.15	3473.9
1018.797	2920.1024	4326.35	3442.9
1018.9121	2921.211	4307	3423.45
1019.0271	2922.319	4273.9	3389.35
1019.1421	2923.4264	4253.6	3371.45
1019.2571	2924.5331	4245.8	3363.35
1019.372	2925.6391	4245.65	3362.95
1019.4869	2926.7445	4231.45	3353.8
1019.6017	2927.8493	4232.7	3348.85
1019.7165	2928.9534	4208.95	3327.15
1019.8313	2930.0569	4198.65	3313.4
1019.946	2931.1597	4179.65	3295.1
1020.0606	2932.2619	4177.05	3294.45
1020.1753	2933.3634	4166	3285.9
1020.2899	2934.4643	4173.8	3283.5
1020.4044	2935.5645	4148.15	3258.7
1020.5189	2936.6641	4120.55	3233.8
1020.6334	2937.763	4079.15	3196.7
1020.7478	2938.8613	4017.1	3133.8
1020.8622	2939.959	3978.65	3093
1020.9765	2941.056	3914.2	3029.55
1021.0908	2942.1523	3832.55	2949.4
1021.2051	2943.248	3756.85	2874.1
1021.3193	2944.3431	3658.25	2777
1021.4334	2945.4375	3557.2	2675.8
1021.5476	2946.5313	3474.8	2592.6
1021.6617	2947.6244	3358.8	2477.25
1021.7757	2948.7169	3276.75	2392.85
1021.8897	2949.8087	3173.2	2291.75
1022.0037	2950.8999	3082.8	2198.35
1022.1176	2951.9904	2997.6	2115.5
1022.2315	2953.0803	2934.95	2051.6
1022.3453	2954.1696	2874.4	1992.15
1022.4591	2955.2582	2814.8	1932.1
1022.5728	2956.3462	2766.4	1883.4
1022.6865	2957.4335	2724.85	1840.65
1022.8002	2958.5202	2689	1803.9
1022.9138	2959.6062	2671.8	1790.95
1023.0274	2960.6916	2636.8	1754.75
1023.141	2961.7764	2628.1	1745.75
1023.2545	2962.8605	2611.15	1727.4
1023.3679	2963.9439	2595.65	1713.85
1023.4813	2965.0267	2586	1704.25
1023.5947	2966.1089	2593.8	1691.3
1023.708	2967.1905	2557.9	1675.45
1023.8213	2968.2714	2552.9	1669.2
1023.9346	2969.3516	2551.05	1668.15
1024.0478	2970.4312	2551.95	1661.15
1024.1609	2971.5102	2540.4	1656.9
1024.274	2972.5885	2547.5	1664.6
1024.3871	2973.6662	2541.8	1656.15
1024.5002	2974.7432	2532.65	1650.65
1024.6132	2975.8196	2523.3	1643.2
1024.7261	2976.8954	2514.2	1634.2
1024.839	2977.9705	2493	1610.5
1024.9519	2979.045	2488	1606.4
1025.0647	2980.1188	2469.65	1589.25
1025.1775	2981.192	2453.25	1570.65
1025.2902	2982.2645	2425.85	1542.7
1025.4029	2983.3364	2404.4	1520.8
1025.5156	2984.4077	2376.75	1494.5
1025.6282	2985.4783	2357.6	1468.65
1025.7407	2986.5483	2313.4	1431.15
1025.8532	2987.6177	2270.1	1390.5
1025.9657	2988.6864	2246.95	1363.15
1026.0782	2989.7545	2215.9	1333.6
1026.1906	2990.8219	2176	1294
1026.3029	2991.8887	2142.55	1258.5
1026.4152	2992.9548	2113.25	1231.15
1026.5275	2994.0204	2094.95	1216.2
1026.6397	2995.0852	2053.55	1171.9
1026.7519	2996.1495	2030.7	1145.6
1026.864	2997.2131	2007.2	1124.8
1026.9761	2998.276	1981.5	1099.95
1027.0882	2999.3383	1961.45	1078.65
1027.2002	3000.4	1937.35	1054.7
1027.3122	3001.4611	1917	1035.9
1027.4241	3002.5215	1909.95	1026.9
1027.536	3003.5812	1886.05	1004.75
1027.6478	3004.6404	1871.95	988.95
1027.7596	3005.6989	1867.1	984.55
1027.8714	3006.7567	1863.55	980.95
1027.9831	3007.8139	1875.25	973.7
1028.0947	3008.8705	1834.7	953.3
1028.2064	3009.9264	1846.45	947.3
1028.3179	3010.9818	1814.2	933.7
1028.4295	3012.0364	1815.65	934.6
1028.541	3013.0905	1809.1	927.4
1028.6524	3014.1439	1801.2	917.35
1028.7638	3015.1966	1796	915
1028.8752	3016.2487	1802.25	921.25
1028.9865	3017.3002	1809.4	922.4
1029.0978	3018.3511	1792.15	912
1029.209	3019.4013	1785.5	904.65
1029.3202	3020.4509	1783.75	902.85
1029.4314	3021.4998	1791.5	907.95
1029.5425	3022.5481	1782.45	900.85
1029.6535	3023.5958	1794.55	913.7
1029.7645	3024.6428	1782.1	898.65
1029.8755	3025.6892	1773.8	892.35
1029.9864	3026.735	1771.6	890.35
1030.0973	3027.7802	1785.25	901.85
1030.2082	3028.8247	1776.85	897.45
1030.319	3029.8685	1768.1	884.7
1030.4297	3030.9118	1773.75	892.7
1030.5404	3031.9544	1770.95	890
1030.6511	3032.9963	1778.4	898.35
1030.7617	3034.0376	1776.55	894.8
1030.8723	3035.0783	1785.85	899.2
1030.9829	3036.1184	1788.35	906.1
1031.0934	3037.1578	1782.1	900.35
1031.2038	3038.1966	1781.8	899.5
1031.3142	3039.2348	1780.95	899.1
1031.4246	3040.2723	1796	904.8
1031.5349	3041.3092	1775	894.45
1031.6452	3042.3455	1770.7	889.2
1031.7554	3043.3811	1774.75	891.45
1031.8656	3044.4161	1759.7	875.85
1031.9758	3045.4505	1756.75	877.75
1032.0859	3046.4842	1751.8	869.5
1032.1959	3047.5173	1749.3	866.1
1032.3059	3048.5498	1741.6	858.85
1032.4159	3049.5816	1732.15	850.65
1032.5258	3050.6128	1725.5	842.45
1032.6357	3051.6434	1713.6	829.35
1032.7455	3052.6734	1713.35	829.85
1032.8553	3053.7027	1700.75	818.75
1032.9651	3054.7314	1698.95	818.2
1033.0748	3055.7594	1695.65	813.4
1033.1845	3056.7868	1688.75	805.05
1033.2941	3057.8136	1682.3	799.45
1033.4037	3058.8398	1668.05	786.05
1033.5132	3059.8653	1663.2	782.6
1033.6227	3060.8902	1655.35	774.4
1033.7321	3061.9145	1652.35	771.2
1033.8415	3062.9381	1650.1	770.5
1033.9509	3063.9612	1659.85	762.75
1034.0602	3064.9835	1628.95	747.3
1034.1694	3066.0053	1629.4	744.85
1034.2787	3067.0264	1620.45	739.35
1034.3878	3068.0469	1608.65	727.1
1034.497	3069.0668	1614.2	731.1
1034.6061	3070.086	1596.45	716
1034.7151	3071.1046	1585.65	705.9
1034.8241	3072.1226	1584.25	701.3
1034.9331	3073.1399	1557.25	676.2
1035.042	3074.1567	1552	669.6
1035.1508	3075.1727	1548.65	664.35
1035.2597	3076.1882	1538.85	656.65
1035.3684	3077.203	1529.6	648.2
1035.4772	3078.2173	1527.05	644.05
1035.5859	3079.2308	1516.85	632.75
1035.6945	3080.2438	1504.05	621.4
1035.8031	3081.2561	1494.9	613.1
1035.9117	3082.2678	1484.15	604.05
1036.0202	3083.2789	1487	604.75
1036.1286	3084.2893	1473.8	592.55
1036.2371	3085.2991	1467.15	584.25
1036.3454	3086.3083	1466.65	582.8
1036.4538	3087.3169	1452.95	571.4
1036.562	3088.3248	1448.05	563.3
1036.6703	3089.3321	1448.25	566.95
1036.7785	3090.3388	1429.75	547.95
1036.8866	3091.3449	1434.35	552.35
1036.9948	3092.3503	1428.75	547
1037.1028	3093.3551	1422.35	543.3
1037.2108	3094.3593	1417.8	538.35
1037.3188	3095.3629	1408.4	530.85
1037.4267	3096.3658	1408.1	526.85
1037.5346	3097.3681	1401.8	522.3
1037.6425	3098.3698	1397.8	512.9
1037.7503	3099.3708	1402.6	517.35
1037.858	3100.3713	1391.75	509.45
1037.9657	3101.3711	1379.3	497.1
1038.0734	3102.3702	1507.35	494.7
1038.181	3103.3688	1376.05	493.3
1038.2886	3104.3667	1374.8	494.95
1038.3961	3105.364	1368.65	487.35
1038.5036	3106.3607	1368.2	484.8
1038.611	3107.3568	1361.3	477.95
1038.7184	3108.3522	1356.1	475.75
1038.8257	3109.347	1363.95	480.6
1038.933	3110.3412	1358.6	472.35
1039.0403	3111.3348	1345.85	465.8
1039.1475	3112.3277	1345.75	464.1
1039.2547	3113.32	1347.85	468.95
1039.3618	3114.3117	1344.2	461.6
1039.4689	3115.3028	1344	464.45
1039.5759	3116.2932	1334.45	451.9
1039.6829	3117.2831	1342.2	456.4
1039.7898	3118.2723	1330.9	450.75
1039.8967	3119.2608	1327.3	446.95
1040.0035	3120.2488	1324.05	444
1040.1103	3121.2361	1319.7	437
1040.2171	3122.2229	1322.25	441.2
1040.3238	3123.209	1311.35	428.15
1040.4305	3124.1944	1312.9	434.7
1040.5371	3125.1793	1312.6	431.4
1040.6437	3126.1635	1304.75	423.55
1040.7502	3127.1471	1308.55	427.95
1040.8567	3128.1301	1304.2	421.85
1040.9631	3129.1125	1295.15	413.15
1041.0695	3130.0942	1299	419.9
1041.1759	3131.0753	1305.35	416.45
1041.2822	3132.0558	1299.55	415.85
1041.3884	3133.0357	1294.6	413.05
1041.4946	3134.015	1286	404.7
1041.6008	3134.9936	1283.85	403.1
1041.7069	3135.9716	1300.2	396.35
1041.813	3136.949	1282.6	403.1
1041.919	3137.9258	1303.15	404.35
1042.025	3138.902	1277.65	392.75
1042.1309	3139.8775	1278.45	399.7
1042.2368	3140.8524	1271.65	390.55
1042.3427	3141.8267	1281.75	401.2
1042.4485	3142.8004	1272.9	393.35
1042.5542	3143.7735	1274.5	390.4
1042.6599	3144.7459	1271.35	389.8
1042.7656	3145.7178	1267.65	387.8
1042.8712	3146.689	1260.05	380.2
1042.9768	3147.6596	1263.85	381.35
1043.0823	3148.6295	1262.15	382
1043.1878	3149.5989	1255.95	376.2
1043.2932	3150.5676	1251.85	371.9
1043.3986	3151.5357	1245.8	365
1043.5039	3152.5032	1249.9	368.45
1043.6092	3153.4701	1243.75	361.55
1043.7145	3154.4364	1244.8	361.25
1043.8197	3155.402	1232.45	352.75
1043.9248	3156.367	1235	351.4
1044.03	3157.3315	1270.65	356
1044.135	3158.2952	1240.5	360.15
1044.24	3159.2584	1231.6	350.85
1044.345	3160.221	1231.65	350.65
1044.4499	3161.1829	1223.3	341.65
1044.5548	3162.1442	1226.65	344.95
1044.6596	3163.105	1223.95	342
1044.7644	3164.065	1216.8	336.2
1044.8692	3165.0245	1225.5	341.95
1044.9739	3165.9834	1217.4	338.9
1045.0785	3166.9416	1216.8	336.25
1045.1831	3167.8993	1213.3	330.95
1045.2877	3168.8563	1211.1	330.25
1045.3922	3169.8127	1211.4	332.75
1045.4966	3170.7684	1206.95	328.45
1045.6011	3171.7236	1201.05	320.65
1045.7054	3172.6782	1200.3	318.7
1045.8098	3173.6321	1203.3	323.5
1045.914	3174.5854	1202.65	315.75
1046.0183	3175.5381	1195.8	314.75
1046.1224	3176.4902	1193.45	312
1046.2266	3177.4417	1192.8	312.1
1046.3307	3178.3926	1185.4	305.7
1046.4347	3179.3428	1193.7	314
1046.5387	3180.2924	1191.65	311.3
1046.6427	3181.2415	1190.05	308.35
1046.7466	3182.1899	1186.85	304.35
1046.8504	3183.1377	1180.15	298.75
1046.9542	3184.0848	1185.7	302.85
1047.058	3185.0314	1177.05	295
1047.1617	3185.9773	1178	297.3
1047.2654	3186.9227	1178.6	297.3
1047.369	3187.8674	1179.45	298.65
1047.4726	3188.8115	1177.55	296.7
1047.5761	3189.755	1174.65	294.45
1047.6796	3190.6979	1171.85	291.15
1047.783	3191.6402	1163.5	283.55
1047.8864	3192.5818	1168.3	288.2
1047.9898	3193.5229	1175.95	289.5
1048.0931	3194.4633	1161.7	282.55
1048.1963	3195.4031	1165.4	285.4
1048.2995	3196.3423	1160.8	281.2
1048.4027	3197.2809	1163.85	282.8
1048.5058	3198.2189	1163.15	282.05
1048.6089	3199.1563	1166.3	280.85
1048.7119	3200.0931	1151.75	272.5
1048.8148	3201.0292	1156.85	276.1
1048.9178	3201.9648	1155.5	275.3
1049.0206	3202.8997	1155.95	271.55
1049.1235	3203.834	1153	272.75
1049.2262	3204.7677	1152.7	271.45
1049.329	3205.7008	1150.15	270
1049.4317	3206.6333	1146.65	268.5
1049.5343	3207.5652	1145.9	262.25
1049.6369	3208.4964	1142.6	262
1049.7394	3209.4271	1140.15	260.15
1049.8419	3210.3571	1141.35	260.85
1049.9444	3211.2865	1138.05	257.05
1050.0468	3212.2154	1137.95	257.2
1050.1491	3213.1436	1143.9	260.8
1050.2514	3214.0712	1141.75	256.2
1050.3537	3214.9982	1131.05	252.5
1050.4559	3215.9246	1135.1	253
1050.5581	3216.8503	1134.1	255.75
1050.6602	3217.7755	1130.15	248.95
1050.7623	3218.7001	1131.95	252.7
1050.8643	3219.624	1130.9	250.05
1050.9663	3220.5473	1130.1	249.6
1051.0682	3221.4701	1123.85	243.15
1051.1701	3222.3922	1128.65	245.9
1051.2719	3223.3137	1122.2	242.65
1051.3737	3224.2346	1123.9	244.85
1051.4754	3225.1549	1117.65	236.2
1051.5771	3226.0746	1123.5	246.05
1051.6788	3226.9937	1114.85	234.75
1051.7804	3227.9121	1115.4	235.35
1051.8819	3228.83	1119.45	238.95
1051.9834	3229.7473	1118.1	237.25
1052.0849	3230.6639	1115.8	234.15
1052.1863	3231.5799	1113.15	231.15
1052.2876	3232.4954	1108.55	229.15
1052.3889	3233.4102	1105.3	226.3
1052.4902	3234.3244	1108.65	228.35
1052.5914	3235.238	1106.35	226.45
1052.6926	3236.151	1127.8	222.4
1052.7937	3237.0634	1101.6	222.05
1052.8948	3237.9752	1102.45	223.65
1052.9958	3238.8864	1103.25	221.7
1053.0968	3239.797	1103.85	224.8
1053.1977	3240.7069	1097.35	216.65
1053.2986	3241.6163	1098.1	216.6
1053.3994	3242.5251	1090.8	212.8
1053.5002	3243.4332	1095.5	216.75
1053.6009	3244.3408	1094.85	213.8
1053.7016	3245.2477	1100	220.2
1053.8022	3246.154	1095.85	213.75
1053.9028	3247.0598	1088.8	208
1054.0034	3247.9649	1088.55	209.55
1054.1039	3248.8694	1082.8	202.45
1054.2043	3249.7733	1083.15	201.5
1054.3047	3250.6766	1082.6	202.05
1054.4051	3251.5793	1085.05	201.9
1054.5054	3252.4814	1078.2	200.8
1054.6056	3253.3829	1081.9	200.6
1054.7058	3254.2838	1076.5	196.1
1054.806	3255.1841	1077.85	198.5
1054.9061	3256.0838	1073.65	194
1055.0061	3256.9829	1070.8	193.4
1055.1062	3257.8814	1071.15	189.9
1055.2061	3258.7792	1073.65	193.2
1055.306	3259.6765	1065.8	183.5
1055.4059	3260.5731	1068.55	187.95
1055.5057	3261.4692	1059.6	179.75
1055.6055	3262.3647	1061	182.1
1055.7052	3263.2595	1060.1	180.95
1055.8049	3264.1538	1055.5	175.35
1055.9045	3265.0474	1056.85	177.15
1056.0041	3265.9404	1049.35	168.85
1056.1036	3266.8329	1049.2	168.75
1056.2031	3267.7247	1053.05	165.05
1056.3025	3268.616	1041.4	162
1056.4019	3269.5066	1040.8	161.1
1056.5013	3270.3966	1034	152.2
1056.6005	3271.286	1021.15	141.9
