Software Version:	3.9.2.0
Unit SN:	10000200
Spectrometer SN:	6960
Date:	3/26/2024 2:45:09 PM
Data Line Index:	25
Spectral Points:	2048
Integration time (ms):	125
Averages:	20
Delay (ms):	30000
Sequence Number:	1
Processing:	dark subtract
Laser Power (mW):	300
Laser Current (mA):	821
Laser Diode Temp (C):	25
Laser Case Temp (C):	27.9
System Temp (C):	28
Spectrometer Temp (C):	25.9
CCD Temp (C):	0.004
Secondary Temp (C):	20.014
Heatsink Temp (C):	23.392
CCDPCB Temp (C):	37.252
SecondaryPCB Temp (C):	34.784

Wavelength	RamanShift	Raw Counts	Dark Subtracted
787.061	30.1047	635.2	225.75
787.2016	32.3739	640.65	229.7
787.3422	34.6426	662.45	252.4
787.4828	36.9109	678.25	265.7
787.6235	39.1787	703.05	288.95
787.7642	41.4461	720.35	299.95
787.9049	43.7131	748.2	323.7
788.0456	45.9796	770.6	342.75
788.1863	48.2456	794.8	362.55
788.3271	50.5112	825.15	390.95
788.4679	52.7764	851.05	414.9
788.6087	55.0411	879.05	437.9
788.7496	57.3054	908.55	460.05
788.8904	59.5692	942.5	492.65
789.0313	61.8326	978	525.8
789.1722	64.0955	1022.5	565.85
789.3132	66.3579	1061.7	601.05
789.4541	68.6199	1124.6	660.25
789.5951	70.8815	1215.15	746.6
789.7361	73.1426	1408.8	935.75
789.8771	75.4032	1910.2	1431.8
790.0181	77.6634	3159.2	2675.05
790.1592	79.9231	6271.6	5777.7
790.3003	82.1824	13457.95	12948.15
790.4414	84.4412	29585.65	29040.7
790.5825	86.6995	56980.5	56388.9
790.7237	88.9574	65520.25	64888.75
790.8648	91.2148	65535	64874.75
791.006	93.4717	65535	64849.65
791.1472	95.7282	65535	64840.3
791.2885	97.9842	65535	64833.8
791.4297	100.2398	65535	64838.05
791.571	102.4949	65535	64831.3
791.7123	104.7495	65535	64830.1
791.8536	107.0036	65535	64830.4
791.9949	109.2573	65535	64829.25
792.1363	111.5105	65535	64824.2
792.2777	113.7632	65535	64823.45
792.4191	116.0154	65535	64810.3
792.5605	118.2672	65535	64818.5
792.7019	120.5185	65535	64819.35
792.8434	122.7693	65535	64815.1
792.9849	125.0197	65535	64812.25
793.1264	127.2696	65535	64808.35
793.2679	129.519	65535	64808
793.4094	131.7679	65535	64806.55
793.551	134.0163	65535	64799.5
793.6926	136.2642	65535	64797.35
793.8342	138.5117	65535	64790.8
793.9758	140.7587	65535	64792.75
794.1175	143.0052	65535	64786.45
794.2591	145.2512	65535	64790.15
794.4008	147.4967	65535	64790
794.5425	149.7417	65535	64787
794.6842	151.9863	65535	64784.6
794.826	154.2304	65535	64782.4
794.9677	156.4739	65535	64777.15
795.1095	158.717	65535	64769.85
795.2513	160.9596	65535	64771
795.3931	163.2017	65535	64771.6
795.535	165.4433	65535	64765.05
795.6768	167.6844	65535	64763.65
795.8187	169.925	65535	64766.55
795.9606	172.1651	65535	64765.7
796.1025	174.4047	65535	64756.95
796.2445	176.6439	65535	64757.15
796.3864	178.8825	65535	64753.4
796.5284	181.1206	65535	64751.35
796.6704	183.3582	65535	64744.3
796.8124	185.5954	65535	64743.7
796.9544	187.832	65535	64742.5
797.0965	190.0681	65535	64741.1
797.2386	192.3037	65535	64735.15
797.3806	194.5388	65535	64730.8
797.5228	196.7734	65535	64731.4
797.6649	199.0075	65535	64725.7
797.807	201.2411	65535	64726.15
797.9492	203.4742	65535	64722.7
798.0914	205.7068	65535	64724.8
798.2336	207.9389	65535	64718.85
798.3758	210.1704	65535	64719
798.518	212.4015	65535	64719.9
798.6603	214.632	65535	64720.2
798.8025	216.862	65535	64726.1
798.9448	219.0915	65535	64733.75
799.0871	221.3205	65535	64730.4
799.2294	223.549	65535	64737.95
799.3718	225.777	65535	64738.95
799.5141	228.0044	65535	64734.5
799.6565	230.2314	65535	64739.75
799.7989	232.4578	65535	64740.15
799.9413	234.6837	65535	64732.7
800.0837	236.909	65535	64726.1
800.2262	239.1339	65535	64703.75
800.3687	241.3582	65535	64713.9
800.5111	243.582	65535	64686.75
800.6536	245.8053	65535	64701.85
800.7961	248.0281	65535	64701.65
800.9387	250.2503	65535	64697.85
801.0812	252.472	65535	64692.8
801.2238	254.6932	65535	64696
801.3664	256.9139	65535	64690.95
801.509	259.134	65535	64688.65
801.6516	261.3536	65535	64690.45
801.7942	263.5727	65535	64687.85
801.9369	265.7912	65535	64686.6
802.0795	268.0092	65535	64687.4
802.2222	270.2267	65535	64688.95
802.3649	272.4436	65535	64687.4
802.5076	274.6601	65535	64681.5
802.6504	276.8759	65535	64685.85
802.7931	279.0913	65535	64683.65
802.9359	281.3061	65535	64683.7
803.0787	283.5204	65535	64673.7
803.2215	285.7341	65535	64671.3
803.3643	287.9473	65535	64663.5
803.5071	290.16	65535	64667.05
803.6499	292.3721	65535	64673.7
803.7928	294.5837	65535	64670.8
803.9357	296.7947	65535	64672.65
804.0786	299.0052	65535	64671.3
804.2215	301.2152	65535	64669.65
804.3644	303.4246	65535	64678.5
804.5074	305.6334	65535	64676.85
804.6503	307.8418	65535	64671.9
804.7933	310.0495	65535	64673.35
804.9363	312.2568	65535	64673.05
805.0793	314.4635	65535	64669.8
805.2223	316.6696	65535	64665.55
805.3653	318.8752	65535	64658.35
805.5084	321.0802	65535	64668.5
805.6514	323.2847	65535	64662
805.7945	325.4887	65535	64666.7
805.9376	327.692	65535	64667.2
806.0807	329.8949	65535	64665.45
806.2238	332.0972	65535	64659.8
806.367	334.2989	65535	64658.9
806.5101	336.5001	65535	64657.15
806.6533	338.7007	65535	64653.05
806.7965	340.9008	65535	64660.25
806.9397	343.1003	65535	64652.75
807.0829	345.2992	65535	64655.8
807.2261	347.4976	65535	64655
807.3693	349.6955	65535	64650.95
807.5126	351.8927	65535	64651.4
807.6559	354.0895	65535	64638.9
807.7991	356.2856	65535	64650.6
807.9424	358.4812	65535	64644.6
808.0857	360.6763	65535	64642.95
808.2291	362.8707	65535	64643.6
808.3724	365.0646	65535	64647.75
808.5158	367.258	65535	64639
808.6591	369.4508	65535	64643.85
808.8025	371.643	65535	64636.6
808.9459	373.8346	65535	64635.95
809.0893	376.0257	65535	64632.35
809.2327	378.2162	65535	64635.15
809.3762	380.4062	65535	64634.3
809.5196	382.5956	65535	64632.9
809.6631	384.7844	65535	64636.55
809.8066	386.9726	65535	64634.75
809.9501	389.1603	65535	64637.45
810.0936	391.3474	65535	64595.05
810.2371	393.5339	65535	64632.45
810.3806	395.7199	65535	64636.75
810.5241	397.9052	65535	64644.4
810.6677	400.09	65535	64640.1
810.8113	402.2743	65535	64642.75
810.9548	404.4579	65535	64646.1
811.0984	406.641	65535	64646.8
811.2421	408.8235	65535	64643.3
811.3857	411.0054	65535	64642.95
811.5293	413.1868	65535	64637.6
811.673	415.3675	65535	64638.35
811.8166	417.5477	65535	64636.6
811.9603	419.7273	65535	64632.4
812.104	421.9064	65535	64627.05
812.2477	424.0848	65535	64632.6
812.3914	426.2627	65535	64633.85
812.5351	428.4399	65535	64630.15
812.6788	430.6166	65535	64628.65
812.8226	432.7928	65535	64621.6
812.9663	434.9683	65535	64628.75
813.1101	437.1432	65535	64627.85
813.2539	439.3176	65535	64631.9
813.3977	441.4914	65535	64635.05
813.5415	443.6645	65535	64631.45
813.6853	445.8371	65535	64630.55
813.8291	448.0091	65535	64628.35
813.973	450.1806	65535	64627.75
814.1168	452.3514	65535	64627.4
814.2607	454.5216	65535	64621.05
814.4046	456.6913	65535	64629.05
814.5485	458.8603	65535	64630.1
814.6924	461.0288	65535	64631.15
814.8363	463.1967	65535	64633.85
814.9802	465.3639	65535	64630.75
815.1241	467.5306	65535	64626.2
815.2681	469.6967	65535	64632.5
815.412	471.8622	65535	64631.95
815.556	474.0271	65535	64632.05
815.7	476.1914	65535	64626.35
815.844	478.3551	65535	64627.15
815.988	480.5182	65535	64628.4
816.132	482.6807	65535	64638.1
816.276	484.8426	65535	64639.65
816.4201	487.0039	65535	64638.8
816.5641	489.1647	65535	64625.95
816.7082	491.3248	65535	64626.8
816.8522	493.4843	65535	64628.15
816.9963	495.6432	65535	64631.6
817.1404	497.8015	65535	64621.75
817.2845	499.9592	65535	64618
817.4286	502.1163	65535	64622.1
817.5727	504.2728	65535	64625.05
817.7168	506.4287	65535	64634.3
817.861	508.5839	65535	64632.25
818.0051	510.7386	65535	64624.35
818.1493	512.8927	65535	64617.75
818.2935	515.0461	65535	64624.75
818.4377	517.199	65535	64621.45
818.5818	519.3512	65535	64617.7
818.726	521.5029	65535	64615.05
818.8703	523.6539	65535	64622.7
819.0145	525.8043	65535	64620.95
819.1587	527.9541	65535	64615.1
819.303	530.1033	65535	64618.85
819.4472	532.2519	65535	64621.45
819.5915	534.3999	65535	64614.3
819.7357	536.5472	65535	64617
819.88	538.694	65535	64623.6
820.0243	540.8401	65535	64614.85
820.1686	542.9856	65535	64606.6
820.3129	545.1305	65535	64604.55
820.4572	547.2748	65535	64603
820.6016	549.4185	65535	64598.45
820.7459	551.5615	65535	64604.65
820.8902	553.704	65535	64602.65
821.0346	555.8458	65535	64612
821.1789	557.987	65535	64610.45
821.3233	560.1276	65535	64601.8
821.4677	562.2675	65535	64605.1
821.6121	564.4069	65535	64603.3
821.7565	566.5456	65535	64608.05
821.9009	568.6837	65535	64608.7
822.0453	570.8212	65535	64610.9
822.1897	572.958	65535	64612.85
822.3342	575.0942	65535	64614.5
822.4786	577.2299	65535	64618.1
822.6231	579.3648	65535	64626.15
822.7675	581.4992	65535	64634.35
822.912	583.6329	65535	64638.8
823.0565	585.766	65535	64632.95
823.201	587.8985	65535	64627.45
823.3454	590.0304	65535	64592.4
823.4899	592.1616	65535	64609.8
823.6345	594.2922	65535	64609.25
823.779	596.4222	65535	64604.8
823.9235	598.5515	65535	64604.65
824.068	600.6802	65535	64607.2
824.2126	602.8083	65535	64609.25
824.3571	604.9358	65535	64607.15
824.5017	607.0626	65535	64605.85
824.6462	609.1888	65535	64600.05
824.7908	611.3144	65535	64600.3
824.9354	613.4393	65535	64601.7
825.08	615.5636	65535	64600.25
825.2246	617.6873	65535	64603.15
825.3692	619.8103	65535	64603.2
825.5138	621.9327	65535	64606.2
825.6584	624.0544	65535	64610.1
825.803	626.1756	65535	64609.7
825.9477	628.2961	65535	64605.95
826.0923	630.4159	65535	64605.45
826.237	632.5351	65535	64600.3
826.3816	634.6537	65535	64602.8
826.5263	636.7716	65535	64601.4
826.6709	638.8889	65535	64597
826.8156	641.0056	65535	64594.05
826.9603	643.1216	65535	64598.6
827.105	645.237	65535	64596.3
827.2497	647.3518	65535	64607.1
827.3944	649.4659	65535	64607.6
827.5391	651.5793	65535	64607.2
827.6838	653.6922	65535	64603.7
827.8285	655.8043	65535	64603.2
827.9733	657.9159	65535	64606.35
828.118	660.0268	65535	64606.6
828.2627	662.137	65535	64604.1
828.4075	664.2466	65535	64596.1
828.5522	666.3556	65535	64599.1
828.697	668.4639	65535	64603.05
828.8418	670.5716	65535	64605.6
828.9865	672.6786	65535	64600.9
829.1313	674.785	65535	64600.6
829.2761	676.8907	65535	64601.65
829.4209	678.9958	65535	64605.2
829.5657	681.1002	65535	64602.3
829.7105	683.204	65535	64589.55
829.8553	685.3072	65535	64595.4
830.0001	687.4097	65535	64597.95
830.1449	689.5115	65535	64595.2
830.2898	691.6127	65535	64602.4
830.4346	693.7132	65535	64603.4
830.5794	695.8131	65535	64580.25
830.7243	697.9123	65535	64592.75
830.8691	700.0109	65535	64588.05
831.014	702.1089	65526.8	64587.55
831.1588	704.2061	65529.15	64588.8
831.3037	706.3028	65529.8	64587.15
831.4486	708.3987	65535	64596.4
831.5935	710.4941	65528.05	64588.2
831.7383	712.5887	65535	64593.75
831.8832	714.6827	65531.05	64591.25
832.0281	716.7761	65535	64600
832.173	718.8688	65535	64596
832.3179	720.9608	65535	64592.3
832.4628	723.0522	65535	64587.95
832.6077	725.1429	65527.45	64584.45
832.7527	727.233	65535	64594.85
832.8976	729.3224	65448.6	64506
833.0425	731.4112	65513.7	64577.1
833.1874	733.4993	65515.3	64574.65
833.3324	735.5867	65518.05	64578.05
833.4773	737.6735	65481.45	64537.55
833.6222	739.7596	65412.75	64466.5
833.7672	741.845	65399.8	64455.5
833.9122	743.9298	65503.5	64557.9
834.0571	746.014	65405.3	64465.8
834.2021	748.0974	65318.55	64371.5
834.347	750.1802	65479.55	64532.8
834.492	752.2624	65300.5	64354.35
834.637	754.3439	65328.5	64386
834.782	756.4247	65383.45	64428.8
834.9269	758.5048	65299.1	64354.4
835.0719	760.5843	65340.85	64394.9
835.2169	762.6631	65391.4	64448.45
835.3619	764.7413	65371.2	64428.45
835.5069	766.8188	65411.65	64468.4
835.6519	768.8956	65496.4	64548.5
835.7969	770.9718	65473.1	64526.55
835.9419	773.0473	65430.95	64492.35
836.0869	775.1221	65290.2	64346.45
836.232	777.1962	65297.95	64354.7
836.377	779.2697	65053.1	64101.75
836.522	781.3426	65235.85	64276.8
836.667	783.4147	65296.4	64348.5
836.8121	785.4862	65298.85	64355.1
836.9571	787.557	65071.7	64125.35
837.1021	789.6271	65264.4	64313.85
837.2472	791.6966	65028.2	64078.6
837.3922	793.7654	64529.6	63578.2
837.5373	795.8335	64579.75	63632.8
837.6823	797.901	64727.55	63783.45
837.8274	799.9678	64426.85	63478.7
837.9724	802.0339	64356.95	63411.35
838.1175	804.0993	64425.5	63464.8
838.2626	806.1641	64234.4	63287.65
838.4076	808.2282	64067.15	63122.55
838.5527	810.2916	63893.75	62947.65
838.6978	812.3544	64262.3	63316.95
838.8428	814.4164	63555.45	62609.9
838.9879	816.4778	63609.55	62659.75
839.133	818.5385	63646.3	62693.3
839.2781	820.5986	63582.4	62631.5
839.4232	822.658	63643.8	62694.75
839.5682	824.7166	63673.3	62726.9
839.7133	826.7747	63007.85	62060.1
839.8584	828.832	63279.6	62330.05
840.0035	830.8886	63665.2	62713.4
840.1486	832.9446	63771.2	62823.95
840.2937	834.9999	62719.3	61772.7
840.4388	837.0545	63288.5	62337.7
840.5839	839.1085	63639.05	62688.2
840.729	841.1618	63366.35	62418.45
840.8741	843.2143	62605.1	61657.05
841.0192	845.2662	62639.7	61689.05
841.1643	847.3175	62862.15	61914.15
841.3095	849.368	61822.2	60875.2
841.4546	851.4179	62612.2	61664.65
841.5997	853.467	61890.95	60946.05
841.7448	855.5155	62154.25	61204.6
841.8899	857.5633	61542.1	60596.55
842.0351	859.6105	61220.65	60269.85
842.1802	861.6569	61555.45	60605.25
842.3253	863.7027	60759.65	59806.05
842.4704	865.7478	61033.55	60083.65
842.6156	867.7922	60819.45	59869.7
842.7607	869.8359	61319.55	60369.9
842.9058	871.8789	60480.7	59527.25
843.0509	873.9212	61043.35	60060.95
843.1961	875.9629	61101.05	60145.95
843.3412	878.0039	61004.55	60055.65
843.4863	880.0441	60736.95	59788.5
843.6315	882.0837	60645.9	59699.85
843.7766	884.1226	60553.15	59602.1
843.9218	886.1609	60398.9	59452.15
844.0669	888.1984	59963.4	59011.3
844.212	890.2352	60413.5	59460.65
844.3572	892.2714	59563.2	58608.9
844.5023	894.3069	59863.9	58908.15
844.6475	896.3416	59509.7	58559.2
844.7926	898.3757	59386.4	58434.65
844.9377	900.4091	58540.65	57588.65
845.0829	902.4418	59580.3	58623.15
845.228	904.4739	58865.75	57910.25
845.3732	906.5052	58998.4	58045
845.5183	908.5358	58542.85	57586.55
845.6635	910.5658	58192.75	57239.15
845.8086	912.595	58073.35	57120.5
845.9538	914.6236	57292	56340.4
846.0989	916.6515	58359.4	57404.65
846.2441	918.6786	57147.45	56193.55
846.3892	920.7051	57427.7	56470.35
846.5344	922.7309	57308.4	56353.6
846.6795	924.756	57508.3	56556.55
846.8246	926.7804	57116.95	56165.7
846.9698	928.8041	56396	55442.8
847.1149	930.8272	56793.55	55844.55
847.2601	932.8495	56752.55	55795.95
847.4052	934.8711	56099.2	55144.3
847.5504	936.892	55642.5	54688.85
847.6955	938.9123	55658.7	54710.3
847.8407	940.9318	55203.05	54253.15
847.9858	942.9506	54937.95	53987.4
848.131	944.9688	54910.3	53961.85
848.2761	946.9862	54156.3	53207.75
848.4213	949.003	54358.25	53409.05
848.5664	951.019	53745.15	52791.35
848.7115	953.0344	53883.6	52934.2
848.8567	955.0491	53722.65	52773.8
849.0018	957.063	53857.45	52905.2
849.147	959.0763	54000.3	53041.75
849.2921	961.0888	53646.3	52695.25
849.4373	963.1007	53843.15	52896.05
849.5824	965.1119	53735.85	52795.25
849.7275	967.1223	53503.5	52563.45
849.8727	969.1321	53733.35	52793.5
850.0178	971.1412	53249.3	52310.55
850.1629	973.1495	53056.45	52105.95
850.3081	975.1572	53180.5	52195.35
850.4532	977.1641	53048.9	52097.45
850.5983	979.1704	52779.75	51826.35
850.7435	981.1759	52757.3	51800.2
850.8886	983.1808	52581.15	51628.75
851.0337	985.1849	52567.05	51608.2
851.1788	987.1884	52634.35	51681.5
851.324	989.1911	52891.5	51939.65
851.4691	991.1932	52487.65	51537.65
851.6142	993.1945	52447.1	51498.25
851.7593	995.1951	52317.6	51366.85
851.9045	997.1951	52087.55	51130.25
852.0496	999.1943	51791.65	50840.75
852.1947	1001.1928	51563.25	50613.8
852.3398	1003.1906	51439.45	50494.1
852.4849	1005.1877	51149.4	50195.75
852.63	1007.1841	50891.4	49942.35
852.7751	1009.1798	50585.25	49637.25
852.9202	1011.1748	50278.85	49330.75
853.0653	1013.1691	49914.55	48965.05
853.2104	1015.1627	49393.85	48440.2
853.3555	1017.1556	48967.55	48018.95
853.5006	1019.1477	48843.5	47893.5
853.6457	1021.1392	48442.9	47498.05
853.7908	1023.1299	48173.15	47230.05
853.9359	1025.12	48062.45	47127.9
854.081	1027.1093	47851.35	46926.55
854.2261	1029.0979	47794.2	46869.8
854.3712	1031.0859	47709.95	46779.4
854.5163	1033.0731	47435.35	46498
854.6613	1035.0596	47234.75	46296.8
854.8064	1037.0454	46867.8	45927.55
854.9515	1039.0304	46637.25	45693.95
855.0965	1041.0148	46258.5	45313.45
855.2416	1042.9985	46097.45	45148.55
855.3867	1044.9814	46014.2	45066.95
855.5317	1046.9636	45705.3	44758.25
855.6768	1048.9452	45500.85	44558.8
855.8219	1050.926	45405.55	44462.05
855.9669	1052.9061	45254	44309.05
856.112	1054.8855	45130.65	44182.05
856.257	1056.8642	45006.15	44060.2
856.4021	1058.8421	44961.9	44013.6
856.5471	1060.8194	44894.8	43946.65
856.6921	1062.7959	44732.2	43784.45
856.8372	1064.7717	44630.15	43679.95
856.9822	1066.7469	44465.35	43520
857.1272	1068.7213	44344.3	43395.5
857.2723	1070.695	44212.8	43266.85
857.4173	1072.6679	43879.35	42930.9
857.5623	1074.6402	43707.65	42759.5
857.7073	1076.6117	43690.8	42740.1
857.8523	1078.5826	43591.1	42644.85
857.9973	1080.5527	43511.75	42560.45
858.1423	1082.5221	43565.55	42616.35
858.2873	1084.4908	43703.4	42756.95
858.4323	1086.4587	43814.25	42864.75
858.5773	1088.426	43848.7	42900.3
858.7223	1090.3925	43634.65	42685.65
858.8673	1092.3584	43510.5	42563.45
859.0123	1094.3235	43114.4	42168.9
859.1573	1096.2879	42835.65	41889.4
859.3022	1098.2515	42691.05	41745.2
859.4472	1100.2145	42631.65	41685.15
859.5922	1102.1767	42557.8	41607.35
859.7371	1104.1382	42494.4	41548.4
859.8821	1106.099	42640.05	41694.1
860.027	1108.0591	42672.1	41727
860.172	1110.0185	42639.3	41693
860.3169	1111.9771	42611	41665.45
860.4619	1113.9351	42219.3	41274.95
860.6068	1115.8923	41655.1	40708.75
860.7517	1117.8488	41175.75	40226.8
860.8967	1119.8045	40731.7	39786.4
861.0416	1121.7596	40605.5	39663.25
861.1865	1123.7139	40368.7	39425.5
861.3314	1125.6675	40191.75	39249.3
861.4763	1127.6204	40296.65	39352.4
861.6212	1129.5726	40200.2	39253.15
861.7661	1131.524	40135.5	39190.9
861.911	1133.4748	40101.2	39155.65
862.0559	1135.4248	40003.8	39057.4
862.2008	1137.3741	39897.6	38951.9
862.3457	1139.3226	39825.95	38880.8
862.4905	1141.2705	39763.4	38818.55
862.6354	1143.2176	39388.7	38439.2
862.7803	1145.164	39404.05	38456.65
862.9251	1147.1097	39276.85	38331.6
863.07	1149.0546	39239.75	38294.9
863.2148	1150.9989	39091.4	38148.7
863.3597	1152.9424	38875.45	37931.1
863.5045	1154.8852	38571.05	37624.65
863.6493	1156.8272	38389.2	37444.8
863.7942	1158.7686	38228.8	37274.95
863.939	1160.7092	38062.45	37119.55
864.0838	1162.6491	37854.45	36909.1
864.2286	1164.5883	37859.4	36915.15
864.3734	1166.5267	37837.2	36892
864.5182	1168.4644	37879.75	36935.3
864.663	1170.4014	37918.7	36971
864.8078	1172.3377	38194.95	37257.25
864.9526	1174.2732	38296.6	37354.3
865.0974	1176.2081	38396.95	37453
865.2421	1178.1421	38420.5	37477.7
865.3869	1180.0755	38491.4	37551.25
865.5317	1182.0082	38350.35	37413.05
865.6764	1183.9401	38183.1	37242.2
865.8212	1185.8713	37887.55	36949.2
865.9659	1187.8017	37582.15	36651.6
866.1106	1189.7315	37216.05	36292.2
866.2554	1191.6605	36792	35868.9
866.4001	1193.5888	36424.45	35494.95
866.5448	1195.5163	36293.95	35359.15
866.6895	1197.4432	36066	35127.85
866.8342	1199.3693	35892.5	34953.7
866.9789	1201.2947	35672.1	34725.9
867.1236	1203.2193	35572.75	34632.4
867.2683	1205.1432	35541.35	34602.45
867.413	1207.0664	35454.2	34515.05
867.5576	1208.9889	35371.25	34429.3
867.7023	1210.9106	35386.35	34446.1
867.847	1212.8316	35294.95	34354.05
867.9916	1214.7519	35265.7	34316.65
868.1363	1216.6715	35149.8	34208.75
868.2809	1218.5903	35054.35	34113.25
868.4255	1220.5084	34915.15	33975.65
868.5701	1222.4257	34820.15	33878.65
868.7148	1224.3424	34513.1	33578.4
868.8594	1226.2583	34498.2	33557.4
869.004	1228.1735	34596.25	33656.75
869.1486	1230.0879	34493.95	33552.75
869.2932	1232.0016	34571.3	33630.15
869.4377	1233.9146	34494	33554.3
869.5823	1235.8269	34313.3	33374.05
869.7269	1237.7384	34123.95	33184.05
869.8715	1239.6492	33749.75	32810.3
870.016	1241.5592	33616.5	32672.2
870.1606	1243.4686	33387.5	32449.35
870.3051	1245.3772	33209.95	32272.6
870.4496	1247.285	33059.05	32120
870.5941	1249.1922	32871	31934.4
870.7387	1251.0986	32820.05	31884.7
870.8832	1253.0042	32679.15	31740.55
871.0277	1254.9092	32672.25	31735.6
871.1722	1256.8134	32674.85	31741.3
871.3167	1258.7169	32832.6	31896.4
871.4611	1260.6196	32842.35	31908.05
871.6056	1262.5216	32987.55	32047.05
871.7501	1264.4229	33044.25	32107.75
871.8945	1266.3234	33060.95	32123.45
872.039	1268.2232	33047.15	32108.35
872.1834	1270.1223	32936.05	31997.75
872.3278	1272.0207	32846.35	31908.9
872.4723	1273.9183	32759.05	31817.1
872.6167	1275.8151	32603.15	31665.9
872.7611	1277.7113	32437.4	31498.25
872.9055	1279.6067	32111.8	31176.3
873.0499	1281.5014	31869.95	30931.7
873.1943	1283.3953	31673.3	30734.85
873.3386	1285.2885	31501.65	30565.75
873.483	1287.181	31358.95	30424.35
873.6274	1289.0727	31370.05	30432.3
873.7717	1290.9637	31269.9	30331.6
873.9161	1292.854	31361.7	30426.95
874.0604	1294.7435	31426.7	30486.1
874.2047	1296.6323	31569.65	30634.55
874.349	1298.5204	31817.7	30879
874.4933	1300.4077	31973.45	31034.85
874.6376	1302.2943	32127.25	31195.15
874.7819	1304.1802	32157.05	31223.2
874.9262	1306.0653	31995.65	31058.9
875.0705	1307.9497	31814.85	30877.65
875.2147	1309.8333	31677.9	30743.75
875.359	1311.7162	31597.9	30663
875.5032	1313.5984	31696.5	30756.55
875.6475	1315.4798	31712.55	30764.35
875.7917	1317.3605	31812.55	30857.95
875.9359	1319.2405	31978.95	31040.35
876.0801	1321.1197	31945.15	31008.2
876.2243	1322.9982	31833.4	30896.3
876.3685	1324.876	31788.1	30855
876.5127	1326.753	31639.2	30704.85
876.6569	1328.6293	31696	30760.75
876.801	1330.5048	31738.75	30798
876.9452	1332.3796	31580.3	30646.55
877.0893	1334.2537	31492.05	30530.8
877.2335	1336.127	31353.85	30418.15
877.3776	1337.9996	31229.35	30294.9
877.5217	1339.8714	31115.5	30176.6
877.6658	1341.7426	30961.95	29980.6
877.8099	1343.6129	30877.05	29939.15
877.954	1345.4826	30733.9	29797.05
878.0981	1347.3515	30654.05	29715.15
878.2422	1349.2196	30488.85	29553.5
878.3862	1351.087	30468.35	29532.55
878.5303	1352.9537	30462.1	29525.35
878.6743	1354.8197	30562.6	29625.9
878.8184	1356.6849	30747.35	29811.6
878.9624	1358.5493	30709.95	29776
879.1064	1360.4131	30607.5	29672.95
879.2504	1362.276	30460.85	29528.1
879.3944	1364.1383	30210	29275.95
879.5384	1365.9998	29856.55	28915.65
879.6823	1367.8606	29500.95	28564.75
879.8263	1369.7206	29257.05	28321.45
879.9702	1371.5799	28999.95	28063.25
880.1142	1373.4384	28801.75	27867.3
880.2581	1375.2962	28649	27713.4
880.402	1377.1533	28253.55	27319.8
880.5459	1379.0096	27849.25	26914.55
880.6898	1380.8652	27541.4	26611.85
880.8337	1382.7201	27294.15	26364.9
880.9776	1384.5742	26935.05	26001.1
881.1215	1386.4275	26715.7	25781
881.2653	1388.2802	26497.15	25562.5
881.4092	1390.132	26363.8	25425.85
881.553	1391.9832	26301.05	25368.6
881.6968	1393.8336	26061	25127.55
881.8406	1395.6832	25948.3	25013.4
881.9844	1397.5322	25859.45	24924.85
882.1282	1399.3803	25764.25	24823.05
882.272	1401.2278	25618.45	24688.95
882.4158	1403.0745	25543.55	24611.9
882.5595	1404.9204	25423.55	24493.3
882.7033	1406.7656	25420.8	24488.6
882.847	1408.6101	25353.45	24420.2
882.9908	1410.4538	25223	24291.4
883.1345	1412.2968	25244.5	24311.1
883.2782	1414.139	25185.15	24252.2
883.4219	1415.9805	25201.85	24271.65
883.5656	1417.8213	25178.3	24226.75
883.7092	1419.6613	25214.15	24286.2
883.8529	1421.5006	25411.75	24481.55
883.9965	1423.3391	25591.95	24660.65
884.1402	1425.1769	25857.65	24923.85
884.2838	1427.0139	26290.3	25358.8
884.4274	1428.8502	26925.45	25992
884.571	1430.6858	27379.75	26448.65
884.7146	1432.5206	27716.35	26784.7
884.8582	1434.3547	27983.5	27051.3
885.0018	1436.188	27971.55	27039.9
885.1453	1438.0206	27855.5	26922.35
885.2889	1439.8524	27611	26681.7
885.4324	1441.6835	27463.5	26531.8
885.5759	1443.5139	27340.8	26406.65
885.7194	1445.3435	27207.75	26276.55
885.8629	1447.1724	27118.85	26194.1
886.0064	1449.0005	26996.65	26068.15
886.1499	1450.8279	26864.75	25935.1
886.2933	1452.6545	26780.45	25851.2
886.4368	1454.4804	26774.55	25844.95
886.5802	1456.3056	26698.3	25760.6
886.7237	1458.13	26588.4	25663.6
886.8671	1459.9536	26346	25413.55
887.0105	1461.7766	25913.6	24982.75
887.1539	1463.5987	25434.9	24508.1
887.2972	1465.4202	24957.85	24031.35
887.4406	1467.2409	24499.5	23566.45
887.584	1469.0608	24267.05	23336.6
887.7273	1470.88	23951.45	23019.8
887.8706	1472.6984	23690.05	22761.1
888.0139	1474.5161	23406.25	22475.05
888.1572	1476.3331	23204.4	22276.25
888.3005	1478.1493	23042	22110.9
888.4438	1479.9648	22980.8	22054
888.5871	1481.7795	22788.5	21857.85
888.7303	1483.5935	22717.3	21790.5
888.8736	1485.4067	22615.7	21685.45
889.0168	1487.2192	22550.4	21620.85
889.16	1489.031	22464.7	21534.2
889.3032	1490.842	22395.8	21470.4
889.4464	1492.6522	22311.7	21383.1
889.5896	1494.4618	22208.35	21278.25
889.7327	1496.2705	22168.6	21239.05
889.8759	1498.0785	22096.5	21169.15
890.019	1499.8858	22067.6	21138.8
890.1622	1501.6924	21951.15	21023.5
890.3053	1503.4981	21900.9	20972.55
890.4484	1505.3032	21871.05	20940.7
890.5914	1507.1075	21817.95	20885.6
890.7345	1508.911	21715.6	20788.45
890.8776	1510.7138	21633.65	20703.55
891.0206	1512.5159	21558.9	20629.8
891.1637	1514.3172	21431.45	20501.55
891.3067	1516.1178	21373.15	20447.25
891.4497	1517.9176	21349.75	20420.15
891.5927	1519.7166	21199.1	20273.8
891.7357	1521.515	21160.15	20229.55
891.8786	1523.3126	21054.1	20130.9
892.0216	1525.1094	20989.95	20065.85
892.1645	1526.9055	20901.85	19978.5
892.3074	1528.7008	20821.65	19897.2
892.4503	1530.4954	20712	19780.4
892.5932	1532.2893	20693.35	19770.35
892.7361	1534.0824	20563.5	19634.4
892.879	1535.8747	20543.5	19624
893.0218	1537.6663	20436.5	19513.4
893.1647	1539.4572	20382.8	19461.35
893.3075	1541.2473	20356.95	19434.65
893.4503	1543.0367	20303.1	19381.05
893.5931	1544.8253	20185.5	19259.3
893.7359	1546.6132	20160.55	19234.05
893.8787	1548.4003	20073.3	19140.55
894.0214	1550.1867	20053.4	19122
894.1642	1551.9723	19995.45	19070.05
894.3069	1553.7572	19992.8	19070.6
894.4496	1555.5414	19959.35	19042.05
894.5923	1557.3247	19920.85	19005.3
894.735	1559.1074	19901.1	18983.25
894.8777	1560.8893	19910	18993.3
895.0204	1562.6705	19869.15	18951.2
895.163	1564.4509	19924.5	19006.05
895.3056	1566.2305	19913.95	19004.35
895.4482	1568.0094	20048.4	19137.25
895.5908	1569.7876	20049.6	19133.6
895.7334	1571.565	20079.7	19162.75
895.876	1573.3417	20085.7	19168.55
896.0186	1575.1176	20098.85	19182.8
896.1611	1576.8928	20006.8	19093.4
896.3036	1578.6672	19873.7	18966.1
896.4461	1580.4409	19722.9	18816.75
896.5886	1582.2138	19523.25	18612.25
896.7311	1583.986	19331.55	18419.45
896.8736	1585.7575	19234.8	18321.6
897.0161	1587.5282	19085.2	18174.95
897.1585	1589.2981	18988.1	18081.25
897.3009	1591.0673	18884.15	17975.2
897.4433	1592.8358	18836.55	17929.05
897.5857	1594.6035	18778.35	17865.7
897.7281	1596.3704	18703.6	17791.1
897.8705	1598.1366	18644.65	17732.4
898.0128	1599.9021	18665	17754.45
898.1551	1601.6668	18586.45	17676.35
898.2975	1603.4308	18632.85	17721.3
898.4398	1605.194	18634.65	17717.35
898.5821	1606.9564	18667.5	17764.8
898.7243	1608.7182	18732.35	17828.25
898.8666	1610.4791	18776.9	17879.35
899.0088	1612.2394	18869.85	17969.95
899.1511	1613.9988	19049.6	18148.2
899.2933	1615.7576	19226.3	18321.9
899.4355	1617.5156	19429.75	18512.5
899.5776	1619.2728	19650.5	18737.35
899.7198	1621.0293	19809.9	18898.05
899.862	1622.785	19814.5	18908.95
900.0041	1624.54	19696.7	18793.9
900.1462	1626.2942	19463.65	18559.2
900.2883	1628.0477	19181.45	18275.95
900.4304	1629.8005	18925.9	18020.65
900.5725	1631.5525	18634.35	17731.45
900.7145	1633.3037	18377.35	17474.2
900.8566	1635.0542	18187.35	17283.9
900.9986	1636.804	17952.15	17044.2
901.1406	1638.553	17891.8	16914.25
901.2826	1640.3013	17735.3	16829.85
901.4245	1642.0488	17592.75	16688.2
901.5665	1643.7955	17556.9	16654.55
901.7085	1645.5416	17558.7	16658.6
901.8504	1647.2868	17583.25	16678.8
901.9923	1649.0313	17582.7	16676.4
902.1342	1650.7751	17719.7	16814.25
902.2761	1652.5181	17859.5	16958.05
902.4179	1654.2604	18006.85	17105.15
902.5598	1656.0019	18306.4	17404.95
902.7016	1657.7427	18624.6	17719.2
902.8434	1659.4828	18985.85	18081.35
902.9852	1661.222	19158.1	18249.6
903.127	1662.9606	19197.4	18293.45
903.2687	1664.6984	19026.95	18119.5
903.4105	1666.4354	18668.05	17760.35
903.5522	1668.1717	18198.1	17291.55
903.6939	1669.9072	17712.25	16805.1
903.8356	1671.642	17318.45	16405.7
903.9773	1673.3761	16999.55	16093.25
904.119	1675.1094	16682.15	15775.15
904.2606	1676.8419	16511	15608.15
904.4022	1678.5737	16306.3	15400.2
904.5439	1680.3048	16187.65	15280.45
904.6855	1682.0351	16041.9	15136.65
904.827	1683.7646	15896.35	14985.9
904.9686	1685.4934	15840.15	14934.5
905.1101	1687.2215	15742.4	14838.05
905.2517	1688.9488	15639.85	14737.35
905.3932	1690.6754	15530.35	14628.9
905.5347	1692.4012	15529.1	14624.4
905.6761	1694.1263	15453	14548.4
905.8176	1695.8506	15413.9	14508.7
905.9591	1697.5742	15365.2	14461.8
906.1005	1699.297	15275.5	14376.45
906.2419	1701.0191	15189.3	14290.75
906.3833	1702.7404	15106.25	14208.3
906.5246	1704.461	15035.45	14132.85
906.666	1706.1808	14960.75	14059.65
906.8073	1707.8999	14912.7	14009.85
906.9487	1709.6182	14896.4	13997.05
907.09	1711.3358	14853.4	13957.95
907.2313	1713.0527	14784.3	13888.45
907.3725	1714.7688	14712.75	13810.2
907.5138	1716.4841	14640.85	13739.8
907.655	1718.1987	14615.35	13709.15
907.7962	1719.9126	14578.45	13680.55
907.9374	1721.6257	14500	13603.9
908.0786	1723.338	14448.75	13551.3
908.2198	1725.0496	14374.5	13474.8
908.3609	1726.7605	14382.25	13481.9
908.502	1728.4706	14294.3	13394.9
908.6431	1730.18	14217.35	13319.35
908.7842	1731.8886	14188.9	13294.6
908.9253	1733.5964	14192.25	13276.15
909.0664	1735.3036	14110.1	13212.3
909.2074	1737.0099	14062.7	13166.15
909.3484	1738.7156	14018.2	13123.1
909.4894	1740.4204	13964.95	13067.2
909.6304	1742.1246	13947.05	13049.9
909.7714	1743.8279	13896.65	13001.35
909.9123	1745.5306	13880.35	12983.7
910.0532	1747.2325	13833.65	12937.7
910.1941	1748.9336	13758.45	12863.3
910.335	1750.634	13714.65	12816.05
910.4759	1752.3336	13689.7	12793.35
910.6168	1754.0325	13688.05	12793.65
910.7576	1755.7307	13653.05	12759.3
910.8984	1757.4281	13642.2	12745.35
911.0392	1759.1247	13634.95	12729.75
911.18	1760.8206	13559.35	12657.65
911.3208	1762.5158	13559.65	12658.2
911.4615	1764.2102	13490.2	12594.15
911.6022	1765.9039	13448.4	12553.25
911.7429	1767.5968	13396.35	12503.4
911.8836	1769.289	13334.7	12442.85
912.0243	1770.9804	13316.25	12417.85
912.1649	1772.6711	13294.55	12394.2
912.3056	1774.361	13258.6	12359.4
912.4462	1776.0502	13212.3	12314.2
912.5868	1777.7386	13179.1	12280.3
912.7274	1779.4263	13144.05	12248
912.8679	1781.1132	13108.55	12217.25
913.0084	1782.7994	13065.05	12172.05
913.149	1784.4849	13080.55	12189.25
913.2895	1786.1696	13019.85	12120.7
913.4299	1787.8535	12966	12073.95
913.5704	1789.5367	12952.15	12060.75
913.7108	1791.2192	12904.2	12011.3
913.8513	1792.9009	12893.5	11972.3
913.9917	1794.5818	12858.15	11962.05
914.132	1796.2621	12841.1	11945.5
914.2724	1797.9415	12776.7	11882.2
914.4128	1799.6202	12726.7	11830.6
914.5531	1801.2982	12709.75	11814.9
914.6934	1802.9755	12697.2	11797.9
914.8337	1804.6519	12677.55	11781.9
914.9739	1806.3277	12598.65	11704.85
915.1142	1808.0027	12548.3	11656.1
915.2544	1809.6769	12567.95	11675.75
915.3946	1811.3504	12496.5	11605.85
915.5348	1813.0231	12487.15	11598.15
915.675	1814.6951	12464.3	11571.8
915.8151	1816.3664	12463.95	11566.7
915.9553	1818.0369	12423.95	11526.15
916.0954	1819.7067	12374.55	11480.8
916.2355	1821.3757	12325.45	11427.9
916.3755	1823.044	12313.45	11416.35
916.5156	1824.7115	12298.75	11403.2
916.6556	1826.3783	12260.05	11368.2
916.7956	1828.0443	12221.7	11331.2
916.9356	1829.7096	12162.75	11268.75
917.0756	1831.3741	12168.1	11270.95
917.2155	1833.0379	12114.15	11219.45
917.3555	1834.701	12097.15	11203.95
917.4954	1836.3633	12063.3	11171.85
917.6353	1838.0248	12077.5	11183.1
917.7751	1839.6856	12025.6	11134.75
917.915	1841.3457	12016.7	11122.75
918.0548	1843.005	11938.9	11044.7
918.1946	1844.6636	11935.65	11040.5
918.3344	1846.3214	11900.7	11006.1
918.4742	1847.9785	11907.8	11014.8
918.6139	1849.6349	11849.55	10954.9
918.7537	1851.2904	11846.4	10940.95
918.8934	1852.9453	11794.85	10897.7
919.0331	1854.5994	11779.6	10881.35
919.1727	1856.2528	11782.8	10883.95
919.3124	1857.9054	11740.15	10846.15
919.452	1859.5572	11715.85	10824
919.5916	1861.2083	11678.1	10783.5
919.7312	1862.8587	11665.1	10771.85
919.8708	1864.5084	11670.5	10772.3
920.0103	1866.1572	11599.95	10706.5
920.1498	1867.8054	11545.8	10650.05
920.2893	1869.4528	11531.15	10633.75
920.4288	1871.0994	11510.3	10615.45
920.5683	1872.7453	11470.7	10573.85
920.7077	1874.3905	11473.7	10561.5
920.8471	1876.0349	11417.65	10522.85
920.9865	1877.6786	11419.1	10521.6
921.1259	1879.3215	11414.25	10521.6
921.2653	1880.9637	11368.6	10474.75
921.4046	1882.6051	11344.3	10451.1
921.5439	1884.2458	11326.9	10431.15
921.6832	1885.8858	11274.15	10379.1
921.8225	1887.525	11257.55	10366.45
921.9617	1889.1634	11214.65	10320.05
922.101	1890.8011	11173.95	10275.45
922.2402	1892.4381	11127.4	10234.55
922.3794	1894.0743	11137.85	10244.6
922.5185	1895.7098	11077.95	10184.15
922.6577	1897.3446	11047.9	10153.65
922.7968	1898.9786	11028.15	10130.6
922.9359	1900.6118	11026.1	10132.45
923.075	1902.2443	10969.5	10073.55
923.214	1903.8761	10940.7	10046.85
923.3531	1905.5071	10884.35	9990.8
923.4921	1907.1374	10851.2	9956.05
923.6311	1908.7669	10828.35	9936.05
923.77	1910.3957	10830.1	9937.9
923.909	1912.0237	10744.8	9853.8
924.0479	1913.651	10720.15	9825.5
924.1868	1915.2776	10712.9	9821
924.3257	1916.9034	10644.05	9750.05
924.4646	1918.5285	10629.3	9739.35
924.6034	1920.1528	10542.75	9650.35
924.7422	1921.7764	10548.7	9656.55
924.881	1923.3992	10503.4	9609.55
925.0198	1925.0213	10456.2	9563.1
925.1586	1926.6427	10425.3	9532.05
925.2973	1928.2633	10463.55	9501.65
925.436	1929.8832	10374.65	9480.6
925.5747	1931.5023	10349.1	9457.6
925.7134	1933.1207	10305.8	9412.2
925.852	1934.7383	10291.05	9397.65
925.9906	1936.3552	10234.45	9342.95
926.1292	1937.9714	10199	9306.35
926.2678	1939.5868	10176.7	9281.15
926.4064	1941.2015	10115.3	9222.15
926.5449	1942.8154	10085.1	9189.8
926.6834	1944.4286	10048.5	9155.15
926.8219	1946.041	10046.1	9132.05
926.9604	1947.6528	9977	9079.5
927.0988	1949.2637	9929.8	9039.85
927.2372	1950.8739	9933.15	9040.5
927.3756	1952.4834	9905.3	9011.1
927.514	1954.0921	9878.55	8986.05
927.6523	1955.7001	9825.3	8929.55
927.7907	1957.3074	9796.5	8909
927.929	1958.9139	9766.5	8878.15
928.0673	1960.5197	9767.95	8878.05
928.2055	1962.1247	9706.6	8818.1
928.3438	1963.729	9628.75	8740.6
928.482	1965.3325	9617.35	8705.6
928.6202	1966.9353	9597.65	8708.8
928.7584	1968.5374	9572.8	8682.3
928.8965	1970.1387	9548.35	8658.65
929.0346	1971.7393	9504	8612.35
929.1727	1973.3392	9445.85	8558.05
929.3108	1974.9383	9451.75	8562.5
929.4489	1976.5366	9372.6	8485.8
929.5869	1978.1342	9394.05	8505.55
929.7249	1979.7311	9356.05	8465.65
929.8629	1981.3273	9329.5	8442.4
930.0009	1982.9227	9270.5	8381.95
930.1388	1984.5173	9257.95	8372.5
930.2767	1986.1112	9231.95	8346.15
930.4146	1987.7044	9214.1	8327.05
930.5525	1989.2968	9171.25	8281.3
930.6904	1990.8885	9151.2	8261.2
930.8282	1992.4795	9142.65	8254.65
930.966	1994.0697	9087.75	8202.75
931.1038	1995.6592	9044.4	8157.3
931.2415	1997.2479	9055.8	8169.25
931.3793	1998.8359	9009.35	8125.05
931.517	2000.4232	8985.35	8100.95
931.6547	2002.0097	8947.35	8065.7
931.7923	2003.5955	8913.3	8030.7
931.93	2005.1805	8921.55	8036
932.0676	2006.7648	8898.75	8013.4
932.2052	2008.3484	8863.25	7977.7
932.3427	2009.9312	8861.65	7977.3
932.4803	2011.5133	8809.1	7925
932.6178	2013.0946	8765.25	7881.35
932.7553	2014.6752	8787.3	7905.05
932.8928	2016.2551	8738.25	7853.45
933.0302	2017.8342	8719.05	7833.95
933.1676	2019.4126	8696.35	7813.7
933.305	2020.9902	8667.8	7787.2
933.4424	2022.5672	8624.15	7741.35
933.5798	2024.1433	8622.85	7735.05
933.7171	2025.7188	8567.65	7685.3
933.8544	2027.2935	8569	7686.45
933.9917	2028.8674	8532.5	7647.85
934.129	2030.4406	8519.25	7639.5
934.2662	2032.0131	8449.35	7568.6
934.4034	2033.5849	8464.45	7578.2
934.5406	2035.1559	8427.15	7543.45
934.6778	2036.7261	8419.85	7536.55
934.8149	2038.2957	8388.9	7505.35
934.952	2039.8645	8386.65	7501.55
935.0891	2041.4325	8380.2	7491.05
935.2262	2042.9998	8328.8	7444.65
935.3632	2044.5664	8309.85	7424.1
935.5002	2046.1323	8293.95	7411.8
935.6372	2047.6974	8275.45	7391.6
935.7742	2049.2617	8246.45	7363.4
935.9111	2050.8254	8228.8	7340.05
936.048	2052.3883	8217.4	7331.95
936.1849	2053.9504	8197.65	7313.6
936.3218	2055.5118	8150.4	7263.35
936.4586	2057.0725	8122	7234.3
936.5955	2058.6325	8105.9	7220.35
936.7323	2060.1917	8090.25	7207.1
936.869	2061.7502	8063.35	7178.9
937.0058	2063.3079	8021.7	7138.9
937.1425	2064.8649	7994.3	7108.25
937.2792	2066.4212	7985.35	7100.6
937.4159	2067.9767	7959.8	7076.05
937.5525	2069.5315	7923.3	7039.35
937.6891	2071.0856	7901.2	7016
937.8257	2072.6389	7891.75	7007.6
937.9623	2074.1915	7848.2	6968.1
938.0989	2075.7433	7820.7	6935.1
938.2354	2077.2945	7783.05	6903.45
938.3719	2078.8448	7772.65	6886.75
938.5084	2080.3945	7731.6	6848.2
938.6448	2081.9434	7733.45	6848.45
938.7812	2083.4916	7719.3	6833.4
938.9176	2085.039	7683.65	6794.7
939.054	2086.5857	7655.2	6764.65
939.1903	2088.1317	7652.05	6762.15
939.3267	2089.677	7610.95	6717.6
939.463	2091.2215	7582.2	6689.95
939.5992	2092.7652	7569.6	6677
939.7355	2094.3083	7562.25	6670.8
939.8717	2095.8506	7551.7	6662.45
940.0079	2097.3921	7551.05	6665.85
940.1441	2098.933	7530.5	6644.65
940.2802	2100.4731	7508	6623.05
940.4163	2102.0124	7499.7	6602.8
940.5524	2103.5511	7465.95	6579.65
940.6885	2105.089	7473.25	6585.2
940.8245	2106.6261	7469.1	6581.55
940.9606	2108.1626	7429.5	6542.5
941.0965	2109.6983	7428.4	6515.1
941.2325	2111.2332	7382.45	6496
941.3684	2112.7675	7347.05	6459.05
941.5044	2114.301	7344.65	6454.95
941.6403	2115.8337	7342.5	6456.3
941.7761	2117.3657	7310.85	6422.8
941.912	2118.897	7317	6428.6
942.0478	2120.4276	7284.45	6389.75
942.1835	2121.9575	7240.8	6351.45
942.3193	2123.4866	7256.45	6355.25
942.455	2125.0149	7230.15	6341.2
942.5907	2126.5426	7182.65	6296.3
942.7264	2128.0695	7155.85	6270
942.8621	2129.5956	7146.2	6261.95
942.9977	2131.1211	7143.45	6256.45
943.1333	2132.6458	7125.75	6241.55
943.2689	2134.1698	7095.2	6205
943.4044	2135.693	7087.15	6197.4
943.54	2137.2155	7078.55	6186.6
943.6755	2138.7373	7074.25	6186.15
943.8109	2140.2584	7037.05	6153.3
943.9464	2141.7787	6999.9	6110.75
944.0818	2143.2983	6969	6086.45
944.2172	2144.8171	6943.35	6061.75
944.3526	2146.3353	6926.75	6041.45
944.4879	2147.8527	6911.7	6028.7
944.6232	2149.3693	6911.75	6023.4
944.7585	2150.8853	6888.4	6000.85
944.8938	2152.4005	6850.05	5961.6
945.029	2153.9149	6837.2	5947
945.1642	2155.4287	6914.1	5921.1
945.2994	2156.9417	6825.75	5935.35
945.4346	2158.454	6799.65	5912.75
945.5697	2159.9655	6775.15	5889.25
945.7048	2161.4764	6774.25	5888.95
945.8399	2162.9865	6723.95	5837.8
945.9749	2164.4958	6711.05	5825.7
946.1099	2166.0045	6706.85	5818.05
946.2449	2167.5124	6692.55	5809.1
946.3799	2169.0195	6642.3	5756.55
946.5148	2170.526	6666.85	5779.85
946.6498	2172.0317	6649.8	5761.4
946.7846	2173.5367	6618.05	5732.15
946.9195	2175.0409	6593.75	5710.15
947.0543	2176.5445	6606.1	5718.5
947.1891	2178.0473	6581.3	5694
947.3239	2179.5494	6560.35	5667.55
947.4587	2181.0507	6523.5	5635.15
947.5934	2182.5513	6491.9	5605.6
947.7281	2184.0512	6499.6	5609.8
947.8628	2185.5504	6484.65	5597.85
947.9974	2187.0488	6417.8	5532.6
948.132	2188.5465	6415.2	5530.45
948.2666	2190.0435	6406.65	5520.8
948.4012	2191.5397	6398.95	5511.4
948.5357	2193.0353	6367.85	5479.75
948.6702	2194.5301	6343.8	5452.8
948.8047	2196.0241	6318.05	5425.1
948.9392	2197.5175	6327	5434.3
949.0736	2199.0101	6280.4	5388.4
949.208	2200.502	6274.4	5387.2
949.3424	2201.9931	6241.9	5355.05
949.4767	2203.4835	6230.1	5344.65
949.611	2204.9733	6216.5	5327.35
949.7453	2206.4622	6167.6	5282.25
949.8796	2207.9505	6182.55	5298.2
950.0138	2209.438	6154.4	5271.5
950.148	2210.9248	6123.3	5236.9
950.2822	2212.4109	6130.9	5246.2
950.4164	2213.8962	6078.95	5185.55
950.5505	2215.3809	6081.6	5190.55
950.6846	2216.8648	6077.25	5187.25
950.8186	2218.3479	6055.5	5158.05
950.9527	2219.8304	6048.45	5155.8
951.0867	2221.3121	6014.1	5119.6
951.2207	2222.7931	5993.6	5103
951.3546	2224.2733	5961.1	5071.25
951.4886	2225.7529	5934.9	5047.2
951.6225	2227.2317	5924.75	5035.9
951.7563	2228.7098	5928.7	5042.75
951.8902	2230.1872	5910.4	5025.75
952.024	2231.6638	5891.05	5004.7
952.1578	2233.1397	5853.05	4964.65
952.2916	2234.6149	5851.5	4968.95
952.4253	2236.0894	5829.05	4940.35
952.559	2237.5632	5822.7	4936.8
952.6927	2239.0362	5803.85	4919.25
952.8263	2240.5085	5784.3	4897.3
952.9599	2241.9801	5765.7	4877.9
953.0935	2243.4509	5744.35	4856.85
953.2271	2244.921	5723.55	4833.2
953.3606	2246.3904	5710.05	4819.5
953.4941	2247.8591	5680.7	4792.45
953.6276	2249.3271	5661.9	4772.9
953.7611	2250.7943	5640	4746.5
953.8945	2252.2608	5617.15	4729.45
954.0279	2253.7266	5619.1	4730.95
954.1612	2255.1917	5610.45	4720.95
954.2946	2256.656	5577.65	4692.1
954.4279	2258.1197	5584	4698.45
954.5612	2259.5826	5561.65	4674.4
954.6944	2261.0447	5555.55	4668.25
954.8276	2262.5062	5535.9	4643.9
954.9608	2263.9669	5508.45	4617.45
955.094	2265.4269	5499.35	4611.3
955.2271	2266.8862	5487.4	4600.5
955.3602	2268.3448	5465.15	4578.4
955.4933	2269.8026	5471.8	4584.15
955.6264	2271.2598	5446.4	4560.4
955.7594	2272.7162	5428.95	4542.3
955.8924	2274.1719	5418.6	4531.1
956.0253	2275.6268	5406	4517.8
956.1583	2277.0811	5400.25	4509.2
956.2912	2278.5346	5386.1	4499.05
956.4241	2279.9874	5368.25	4483.15
956.5569	2281.4395	5371.85	4487.5
956.6897	2282.8908	5368.9	4479
956.8225	2284.3414	5332.65	4442.85
956.9553	2285.7914	5331.9	4444.35
957.088	2287.2406	5300.75	4412.25
957.2207	2288.689	5301.95	4410.65
957.3534	2290.1368	5259.2	4367.1
957.486	2291.5838	5267.7	4373.1
957.6186	2293.0302	5246.9	4353.3
957.7512	2294.4758	5227.95	4336.65
957.8838	2295.9206	5188.2	4295.35
958.0163	2297.3648	5183.85	4296.1
958.1488	2298.8082	5171.6	4282.55
958.2813	2300.251	5175.9	4286.1
958.4137	2301.693	5154.35	4261.65
958.5461	2303.1343	5142.3	4251.05
958.6785	2304.5748	5144.45	4256.6
958.8108	2306.0147	5111.75	4224.65
958.9432	2307.4538	5104.75	4216.05
959.0754	2308.8922	5086.3	4203.85
959.2077	2310.3299	5071.3	4183.45
959.3399	2311.7669	5058.8	4171.35
959.4721	2313.2031	5032.9	4145.7
959.6043	2314.6387	5025.2	4138.1
959.7365	2316.0735	4998.45	4111.1
959.8686	2317.5076	5000.35	4111.35
960.0006	2318.941	4990.75	4101.2
960.1327	2320.3737	4975.75	4083.9
960.2647	2321.8056	4969.9	4076.8
960.3967	2323.2369	4944.4	4056.35
960.5287	2324.6674	4934.75	4042.35
960.6606	2326.0972	4914.6	4024.3
960.7925	2327.5263	4910.1	4022.5
960.9244	2328.9547	4902.45	4013.05
961.0562	2330.3823	4882.55	3991.2
961.1881	2331.8092	4900.7	4007.4
961.3198	2333.2355	4854.85	3963.8
961.4516	2334.661	4836.8	3946.85
961.5833	2336.0858	4835.15	3941.7
961.715	2337.5098	4820.55	3931.9
961.8467	2338.9332	4833.1	3943.7
961.9783	2340.3558	4805.15	3913.6
962.1099	2341.7778	4779.75	3892.5
962.2415	2343.199	4763.1	3872.7
962.373	2344.6195	4751.95	3866.6
962.5045	2346.0393	4746.3	3858.8
962.636	2347.4583	4761.7	3871.7
962.7675	2348.8767	4728.65	3839.9
962.8989	2350.2943	4712.55	3821.05
963.0303	2351.7113	4713.9	3820.9
963.1617	2353.1275	4695.55	3802.85
963.293	2354.543	4682.1	3765.2
963.4243	2355.9578	4690.4	3800.35
963.5556	2357.3718	4641.6	3755.95
963.6868	2358.7852	4618.85	3729.6
963.818	2360.1978	4599	3710.2
963.9492	2361.6098	4605.7	3716.35
964.0803	2363.021	4580.6	3688.45
964.2114	2364.4315	4578.2	3690.8
964.3425	2365.8413	4557.75	3662.8
964.4736	2367.2504	4555.1	3668.15
964.6046	2368.6587	4524.25	3638
964.7356	2370.0664	4500.4	3614.85
964.8666	2371.4733	4506.6	3617.95
964.9975	2372.8795	4480.25	3592.85
965.1284	2374.285	4468.3	3579.3
965.2593	2375.6899	4463	3574.5
965.3901	2377.0939	4438.55	3550.85
965.5209	2378.4973	4414.65	3529.4
965.6517	2379.9	4410.25	3521.95
965.7825	2381.3019	4405.35	3516.05
965.9132	2382.7032	4380.05	3495.1
966.0439	2384.1037	4373	3489.55
966.1745	2385.5035	4360.9	3476.5
966.3051	2386.9027	4327.65	3444.05
966.4357	2388.3011	4328.3	3440.9
966.5663	2389.6987	4325.2	3439.8
966.6968	2391.0957	4334.4	3450.45
966.8273	2392.492	4291.55	3406.9
966.9578	2393.8876	4277.3	3390.55
967.0882	2395.2824	4262.95	3376.5
967.2186	2396.6765	4234.55	3346.35
967.349	2398.07	4225.25	3339.3
967.4793	2399.4627	4223.45	3334.45
967.6097	2400.8547	4208.95	3319.6
967.7399	2402.246	4197.95	3306.35
967.8702	2403.6366	4189.95	3302.5
968.0004	2405.0265	4163.45	3279.25
968.1306	2406.4156	4156.2	3265.5
968.2607	2407.8041	4136.7	3246.8
968.3909	2409.1918	4136.6	3248.25
968.521	2410.5789	4110.4	3221.15
968.651	2411.9652	4120.85	3232.25
968.781	2413.3508	4101.5	3215.6
968.911	2414.7358	4075.95	3187.55
969.041	2416.12	4072.45	3187.45
969.1709	2417.5035	4065.4	3178.95
969.3008	2418.8863	4037.15	3149.45
969.4307	2420.2684	4028.2	3142.4
969.5606	2421.6497	4019.9	3134.55
969.6904	2423.0304	3999.95	3113.75
969.8201	2424.4104	3997.4	3109.25
969.9499	2425.7896	3996.05	3106.4
970.0796	2427.1682	3984.65	3098.5
970.2093	2428.546	3967.25	3079.1
970.3389	2429.9232	3946.3	3057
970.4685	2431.2996	3942.3	3054.35
970.5981	2432.6753	3939.35	3052.5
970.7277	2434.0503	3920	3032.3
970.8572	2435.4246	3917.5	3031
970.9867	2436.7982	3901.25	3010.5
971.1161	2438.1711	3893	3004.65
971.2456	2439.5433	3880.6	2991.7
971.375	2440.9148	3877.9	2985.4
971.5043	2442.2856	3856.4	2969.1
971.6336	2443.6557	3839.75	2952.2
971.7629	2445.025	3838.75	2950.75
971.8922	2446.3937	3824.7	2939.05
972.0214	2447.7617	3815.25	2926.85
972.1506	2449.1289	3811.3	2924.25
972.2798	2450.4955	3803.35	2911.15
972.4089	2451.8613	3798.25	2910.2
972.538	2453.2265	3775.8	2887.65
972.6671	2454.5909	3774.35	2885
972.7961	2455.9546	3785.4	2896.65
972.9251	2457.3177	3758.4	2871.7
973.0541	2458.68	3760.25	2872.2
973.1831	2460.0416	3742.65	2856.35
973.312	2461.4025	3734.45	2845.75
973.4408	2462.7627	3738.85	2842.1
973.5697	2464.1222	3711.8	2828
973.6985	2465.4811	3708.3	2820.25
973.8273	2466.8392	3691.3	2803.5
973.956	2468.1966	3686	2795.7
974.0847	2469.5533	3689	2799.5
974.2134	2470.9093	3677.6	2791.55
974.3421	2472.2645	3676.6	2788.7
974.4707	2473.6191	3669.5	2781.55
974.5993	2474.973	3645.45	2760.65
974.7278	2476.3262	3637.75	2748.05
974.8563	2477.6787	3623.5	2736
974.9848	2479.0305	3602.05	2714.2
975.1132	2480.3816	3590.3	2701.7
975.2417	2481.7319	3588.95	2701.2
975.37	2483.0816	3588.35	2698.4
975.4984	2484.4306	3556.8	2670.2
975.6267	2485.7789	3553.6	2668.15
975.755	2487.1264	3545.05	2656.3
975.8833	2488.4733	3539.1	2655.3
976.0115	2489.8195	3535.2	2641.2
976.1397	2491.165	3530.45	2641.55
976.2678	2492.5097	3503.9	2615.25
976.3959	2493.8538	3501.5	2616.6
976.524	2495.1972	3484.45	2595.7
976.6521	2496.5398	3474.95	2587.5
976.7801	2497.8818	3462.65	2573.35
976.9081	2499.2231	3461.35	2573
977.036	2500.5637	3446.1	2555.15
977.164	2501.9035	3430.85	2540.85
977.2918	2503.2427	3450.05	2557.5
977.4197	2504.5812	3418.15	2530.35
977.5475	2505.919	3421.65	2531.65
977.6753	2507.256	3422.9	2537.3
977.8031	2508.5924	3405.4	2517.6
977.9308	2509.9281	3388.6	2495.5
978.0585	2511.2631	3386.15	2500.1
978.1861	2512.5974	3366.25	2478.95
978.3137	2513.9309	3365.7	2479.1
978.4413	2515.2638	3371.95	2459.9
978.5689	2516.596	3344.55	2457.6
978.6964	2517.9275	3332.4	2443.8
978.8239	2519.2583	3337.25	2449.4
978.9513	2520.5884	3309.55	2419.55
979.0788	2521.9178	3297.6	2411
979.2062	2523.2465	3297.1	2410.9
979.3335	2524.5745	3273.7	2388.25
979.4608	2525.9018	3263.7	2376.75
979.5881	2527.2284	3268.25	2384.1
979.7154	2528.5543	3254.75	2369.35
979.8426	2529.8796	3251.45	2365
979.9698	2531.2041	3252.4	2366.25
980.0969	2532.5279	3246.65	2361.25
980.224	2533.851	3234.45	2347.95
980.3511	2535.1735	3220.45	2332.45
980.4781	2536.4952	3222.5	2336.6
980.6052	2537.8163	3220.05	2330.25
980.7321	2539.1366	3211.8	2325.2
980.8591	2540.4562	3196.95	2309.1
980.986	2541.7752	3197.5	2309.15
981.1129	2543.0935	3197	2308.3
981.2397	2544.411	3178.3	2288.25
981.3665	2545.7279	3186.15	2297.9
981.4933	2547.0441	3181.5	2293.45
981.62	2548.3596	3179.35	2291.25
981.7467	2549.6744	3170.6	2280.5
981.8734	2550.9885	3154.8	2258.2
982.0001	2552.3019	3155.9	2267.35
982.1267	2553.6146	3137.3	2249.2
982.2532	2554.9266	3124.1	2233.95
982.3798	2556.2379	3117.75	2230.45
982.5063	2557.5485	3117.1	2231
982.6327	2558.8585	3120.35	2228.1
982.7592	2560.1677	3119.35	2227.15
982.8856	2561.4762	3096.35	2209.1
983.0119	2562.7841	3093.85	2204.05
983.1383	2564.0913	3096.7	2211.2
983.2646	2565.3977	3084.65	2199.8
983.3908	2566.7035	3091.1	2203.15
983.517	2568.0086	3077	2186.75
983.6432	2569.313	3068.75	2179.9
983.7694	2570.6167	3061.7	2169.7
983.8955	2571.9197	3052	2165.55
984.0216	2573.222	3061.2	2170.15
984.1476	2574.5236	3052.9	2163.55
984.2737	2575.8246	3027.75	2138.3
984.3996	2577.1248	3035.1	2143.6
984.5256	2578.4244	3033.1	2145.35
984.6515	2579.7232	3029	2143.2
984.7774	2581.0214	3052.65	2134.35
984.9032	2582.3189	3016.05	2129.2
985.029	2583.6157	3019.95	2127
985.1548	2584.9118	3019.4	2132.4
985.2806	2586.2072	3004.3	2114.15
985.4063	2587.5019	3004.4	2116.1
985.5319	2588.7959	2998.55	2110.1
985.6576	2590.0893	2995.85	2103.95
985.7832	2591.3819	2995.7	2109.15
985.9087	2592.6739	2979.6	2093.05
986.0343	2593.9652	2977.9	2085.5
986.1597	2595.2557	2960.15	2072.25
986.2852	2596.5456	2962.2	2072.55
986.4106	2597.8348	2962.1	2073.55
986.536	2599.1234	2957.65	2069.45
986.6614	2600.4112	2951.9	2062.95
986.7867	2601.6983	2949.3	2056.1
986.912	2602.9848	2937.3	2047.35
987.0372	2604.2705	2934.45	2038.25
987.1624	2605.5556	2933.5	2046.35
987.2876	2606.84	2928.25	2041.25
987.4128	2608.1237	2913.8	2027.85
987.5379	2609.4067	2901.4	2011.2
987.6629	2610.689	2899.9	2004.2
987.788	2611.9707	2882.4	1988.45
987.913	2613.2516	2874.05	1984.5
988.0379	2614.5319	2858.35	1971.6
988.1629	2615.8115	2858.6	1966.45
988.2878	2617.0903	2852.9	1960.55
988.4126	2618.3685	2847.15	1958.55
988.5375	2619.6461	2840.2	1950.85
988.6622	2620.9229	2843.2	1955.85
988.787	2622.199	2823.8	1934.1
988.9117	2623.4745	2814.3	1924.95
989.0364	2624.7493	2831.5	1943.1
989.161	2626.0234	2813.45	1925.3
989.2857	2627.2968	2805.35	1917.25
989.4102	2628.5695	2800.95	1911.8
989.5348	2629.8415	2786.55	1899.25
989.6593	2631.1128	2789.75	1900.45
989.7837	2632.3835	2770.55	1882.15
989.9082	2633.6535	2772.95	1885.45
990.0326	2634.9228	2765.45	1880.3
990.1569	2636.1914	2755.95	1867
990.2812	2637.4593	2757.85	1870.25
990.4055	2638.7265	2754.55	1866.5
990.5298	2639.9931	2739.9	1853
990.654	2641.259	2736.75	1847.6
990.7782	2642.5242	2734.35	1845.45
990.9023	2643.7887	2720.4	1833.05
991.0264	2645.0525	2721.5	1831.7
991.1505	2646.3156	2716.05	1825.5
991.2745	2647.5781	2701.4	1814.65
991.3985	2648.8398	2695.6	1806.9
991.5225	2650.1009	2700.2	1786.6
991.6464	2651.3613	2684.8	1796.75
991.7703	2652.6211	2686	1800.15
991.8942	2653.8801	2658.1	1771.35
992.018	2655.1385	2674.65	1784.2
992.1418	2656.3961	2671.15	1783.7
992.2655	2657.6531	2665.7	1776.85
992.3892	2658.9094	2652.85	1766.7
992.5129	2660.1651	2650.8	1763.6
992.6366	2661.42	2633.05	1746.8
992.7602	2662.6743	2643.05	1756
992.8837	2663.9279	2647.95	1760.8
993.0073	2665.1808	2632.65	1743.45
993.1307	2666.433	2648.15	1758.3
993.2542	2667.6846	2638.05	1751.25
993.3776	2668.9354	2633.25	1744.15
993.501	2670.1856	2621	1733.5
993.6244	2671.4351	2617.5	1730.4
993.7477	2672.6839	2619.1	1730.35
993.8709	2673.9321	2616.5	1728.65
993.9942	2675.1795	2619.1	1730.7
994.1174	2676.4263	2619.4	1732.25
994.2405	2677.6724	2605.3	1719.75
994.3637	2678.9179	2612.55	1724.7
994.4868	2680.1626	2601.45	1714.65
994.6098	2681.4067	2607.4	1719.2
994.7328	2682.6501	2592.95	1703.75
994.8558	2683.8928	2589.8	1701.5
994.9788	2685.1348	2587.85	1703.9
995.1017	2686.3761	2561.85	1675.15
995.2245	2687.6168	2571.95	1687.9
995.3474	2688.8568	2554.65	1669.4
995.4702	2690.0961	2547.7	1661.7
995.5929	2691.3348	2549.35	1659.15
995.7156	2692.5727	2539.55	1650.35
995.8383	2693.81	2528.7	1641.85
995.961	2695.0466	2528.3	1643.6
996.0836	2696.2826	2515.2	1625.95
996.2062	2697.5178	2525.1	1636.3
996.3287	2698.7524	2506.75	1618.95
996.4512	2699.9863	2515.9	1627.25
996.5737	2701.2195	2507.55	1623.6
996.6961	2702.452	2496.7	1607.6
996.8185	2703.6839	2513.55	1625.65
996.9408	2704.9151	2510.15	1624.2
997.0631	2706.1456	2509.5	1623.3
997.1854	2707.3755	2503.8	1617.3
997.3077	2708.6046	2508.9	1619.45
997.4299	2709.8331	2514.8	1628.7
997.552	2711.0609	2502.7	1616.35
997.6742	2712.2881	2523.25	1634.9
997.7963	2713.5145	2510.85	1622.3
997.9183	2714.7403	2520.25	1635.4
998.0403	2715.9654	2532.45	1645
998.1623	2717.1899	2552.9	1650.35
998.2842	2718.4136	2542.25	1655
998.4062	2719.6367	2541.15	1655.35
998.528	2720.8591	2554.75	1661.25
998.6498	2722.0809	2558.65	1671.75
998.7716	2723.3019	2566.85	1677.15
998.8934	2724.5223	2563.75	1677.4
999.0151	2725.7421	2564.1	1677.4
999.1368	2726.9611	2565.45	1678.8
999.2584	2728.1795	2551.4	1660.1
999.38	2729.3972	2549.25	1664.6
999.5016	2730.6142	2545.95	1646.4
999.6231	2731.8306	2514.75	1627.05
999.7446	2733.0462	2494.55	1604.9
999.8661	2734.2612	2473.5	1582.7
999.9875	2735.4756	2448.1	1559.85
1000.1089	2736.6892	2429.7	1542.85
1000.2302	2737.9022	2408.5	1524.2
1000.3515	2739.1145	2390.8	1505
1000.4728	2740.3262	2398.9	1503.7
1000.594	2741.5372	2363.3	1477.7
1000.7152	2742.7475	2341.6	1454.4
1000.8363	2743.9571	2339.55	1452.5
1000.9575	2745.1661	2330.3	1440.5
1001.0785	2746.3744	2311.1	1424.4
1001.1996	2747.582	2298.35	1411.8
1001.3206	2748.7889	2295.45	1409.65
1001.4415	2749.9952	2287.5	1401.55
1001.5625	2751.2008	2270.05	1382.25
1001.6833	2752.4057	2275.45	1386.95
1001.8042	2753.61	2267.1	1381
1001.925	2754.8136	2262.25	1375.3
1002.0458	2756.0165	2253.9	1368.7
1002.1665	2757.2188	2241.35	1358.9
1002.2872	2758.4204	2241.3	1357.15
1002.4078	2759.6213	2229.7	1343.35
1002.5285	2760.8215	2231.7	1340.15
1002.649	2762.0211	2232.85	1345.35
1002.7696	2763.22	2215.3	1326.65
1002.8901	2764.4182	2215.5	1328.7
1003.0106	2765.6158	2207.8	1321.6
1003.131	2766.8127	2200.2	1314.65
1003.2514	2768.009	2199.3	1315.3
1003.3717	2769.2045	2197.6	1312.55
1003.492	2770.3994	2189.8	1302.95
1003.6123	2771.5936	2185.05	1302.75
1003.7325	2772.7872	2182.1	1297.25
1003.8527	2773.9801	2170.35	1283.1
1003.9729	2775.1723	2177.6	1277.3
1004.093	2776.3639	2161.25	1276.3
1004.2131	2777.5548	2168.65	1281.1
1004.3331	2778.745	2161.95	1276.2
1004.4531	2779.9346	2160.25	1275.35
1004.5731	2781.1235	2159.1	1272.95
1004.693	2782.3117	2163.8	1278.6
1004.8129	2783.4992	2160	1275.95
1004.9328	2784.6861	2159.45	1274.8
1005.0526	2785.8723	2161.25	1274.55
1005.1723	2787.0579	2174.05	1288.55
1005.2921	2788.2428	2169	1284.15
1005.4118	2789.427	2175.65	1290.6
1005.5314	2790.6106	2179.25	1294.55
1005.651	2791.7935	2196.5	1309.3
1005.7706	2792.9757	2187.1	1303.75
1005.8902	2794.1573	2206.75	1321.5
1006.0097	2795.3382	2223.75	1337.55
1006.1291	2796.5184	2226.65	1341.35
1006.2485	2797.698	2239.9	1353.9
1006.3679	2798.8769	2256.8	1372
1006.4873	2800.0551	2262.5	1378.05
1006.6066	2801.2327	2282	1392.85
1006.7258	2802.4096	2296.95	1412.4
1006.8451	2803.5859	2311.4	1426.45
1006.9642	2804.7615	2330.2	1444.5
1007.0834	2805.9364	2362.7	1479.35
1007.2025	2807.1106	2388.4	1506.2
1007.3216	2808.2842	2416.25	1529.6
1007.4406	2809.4572	2431.2	1546.8
1007.5596	2810.6294	2488.1	1604
1007.6785	2811.801	2511.35	1626.6
1007.7975	2812.972	2565.55	1682.7
1007.9163	2814.1423	2590.4	1705.65
1008.0352	2815.3119	2644.3	1761.35
1008.154	2816.4808	2699	1815.3
1008.2727	2817.6491	2745.9	1860.5
1008.3914	2818.8167	2793.65	1911.05
1008.5101	2819.9837	2829.75	1939.55
1008.6288	2821.15	2874.55	1990.75
1008.7474	2822.3157	2897.1	2013.9
1008.8659	2823.4807	2951.3	2065.85
1008.9844	2824.645	2999.05	2113.35
1009.1029	2825.8086	3032.5	2148.3
1009.2214	2826.9716	3081	2200.65
1009.3398	2828.134	3122.5	2239.15
1009.4581	2829.2957	3137.05	2253
1009.5764	2830.4567	3172.45	2290.25
1009.6947	2831.617	3188.4	2304.6
1009.813	2832.7767	3200.2	2317.55
1009.9312	2833.9358	3192.6	2308.9
1010.0493	2835.0941	3177.35	2291.8
1010.1675	2836.2519	3162.05	2279.25
1010.2855	2837.4089	3157.9	2270.95
1010.4036	2838.5653	3143.05	2259.9
1010.5216	2839.7211	3143.25	2261.6
1010.6396	2840.8761	3157.65	2272.4
1010.7575	2842.0306	3186.5	2303.6
1010.8754	2843.1843	3215.55	2334
1010.9932	2844.3374	3261.8	2378.85
1011.111	2845.4899	3332.6	2448.45
1011.2288	2846.6417	3397.3	2515.15
1011.3465	2847.7928	3485.65	2604.2
1011.4642	2848.9433	3560.9	2679.75
1011.5818	2850.0931	3638.65	2755.1
1011.6995	2851.2422	3720.7	2833.95
1011.817	2852.3907	3777.65	2893.7
1011.9345	2853.5385	3847.05	2961.65
1012.052	2854.6857	3920.25	3027.95
1012.1695	2855.8323	3950.1	3066.15
1012.2869	2856.9781	4002.7	3118.6
1012.4042	2858.1233	4050.05	3167.05
1012.5216	2859.2679	4081.5	3195.15
1012.6389	2860.4118	4113.85	3231.15
1012.7561	2861.555	4178.35	3288.65
1012.8733	2862.6976	4213.55	3328.95
1012.9905	2863.8395	4215.2	3331.85
1013.1076	2864.9808	4261.95	3377
1013.2247	2866.1214	4275.8	3392.95
1013.3417	2867.2614	4268.45	3385.7
1013.4587	2868.4007	4280.75	3394.4
1013.5757	2869.5393	4297.5	3412.5
1013.6926	2870.6773	4307.45	3421.6
1013.8095	2871.8146	4320.8	3433.3
1013.9263	2872.9513	4323.9	3437.8
1014.0431	2874.0874	4301.5	3417.15
1014.1599	2875.2227	4301.3	3415.4
1014.2766	2876.3574	4275.65	3393.65
1014.3933	2877.4915	4247.2	3364.65
1014.51	2878.6249	4215.6	3332.75
1014.6266	2879.7577	4203.95	3318.75
1014.7431	2880.8898	4176.2	3280
1014.8596	2882.0212	4142.45	3261.05
1014.9761	2883.152	4136.45	3252.2
1015.0925	2884.2821	4121	3236.05
1015.2089	2885.4116	4092.55	3208.95
1015.3253	2886.5405	4117.35	3234.45
1015.4416	2887.6686	4118.2	3231.25
1015.5579	2888.7962	4131.65	3251.5
1015.6741	2889.923	4144.85	3260.75
1015.7903	2891.0493	4135.5	3252
1015.9065	2892.1748	4138.25	3256.3
1016.0226	2893.2997	4141.65	3257.7
1016.1387	2894.424	4177.65	3296.1
1016.2547	2895.5476	4184	3299
1016.3707	2896.6706	4196.2	3314.25
1016.4866	2897.7929	4225.8	3342
1016.6025	2898.9145	4252.6	3370
1016.7184	2900.0355	4281.8	3398.05
1016.8342	2901.1559	4303.7	3420.8
1016.95	2902.2756	4342.95	3458.55
1017.0658	2903.3946	4385.15	3503.7
1017.1815	2904.513	4415.75	3529.15
1017.2971	2905.6308	4432.2	3550.35
1017.4127	2906.7479	4449.95	3569.1
1017.5283	2907.8643	4465.3	3581.6
1017.6439	2908.9801	4467.95	3584.8
1017.7594	2910.0953	4481.6	3600.1
1017.8748	2911.2098	4482.4	3597.5
1017.9902	2912.3236	4466.05	3573.55
1018.1056	2913.4368	4449.5	3562.1
1018.2209	2914.5494	4433.15	3551.15
1018.3362	2915.6613	4428.2	3539.35
1018.4515	2916.7725	4372.35	3486.4
1018.5667	2917.8831	4337.35	3453.85
1018.6819	2918.9931	4311.85	3425.5
1018.797	2920.1024	4289.85	3407.55
1018.9121	2921.211	4265.7	3383.65
1019.0271	2922.319	4262.75	3379.15
1019.1421	2923.4264	4239.1	3358.1
1019.2571	2924.5331	4202.75	3321.85
1019.372	2925.6391	4189.6	3308.4
1019.4869	2926.7445	4186.55	3304.75
1019.6017	2927.8493	4173.95	3292.35
1019.7165	2928.9534	4153.1	3271.45
1019.8313	2930.0569	4150.8	3265.15
1019.946	2931.1597	4138.6	3255.15
1020.0606	2932.2619	4133.35	3252.65
1020.1753	2933.3634	4128.3	3245.7
1020.2899	2934.4643	4116.45	3229.3
1020.4044	2935.5645	4081.5	3194.55
1020.5189	2936.6641	4035.75	3147.15
1020.6334	2937.763	4000.1	3118.05
1020.7478	2938.8613	3943.65	3060.45
1020.8622	2939.959	3902.45	3016.4
1020.9765	2941.056	3807.45	2924.15
1021.0908	2942.1523	3702.35	2818.65
1021.2051	2943.248	3613.8	2731.6
1021.3193	2944.3431	3527.35	2644
1021.4334	2945.4375	3425.6	2543.4
1021.5476	2946.5313	3310.55	2429.75
1021.6617	2947.6244	3213.35	2329.7
1021.7757	2948.7169	3108.15	2226.15
1021.8897	2949.8087	3017.2	2134.6
1022.0037	2950.8999	2919.75	2037.3
1022.1176	2951.9904	2826.8	1946.2
1022.2315	2953.0803	2768.6	1886.05
1022.3453	2954.1696	2701.95	1819.4
1022.4591	2955.2582	2643.85	1762.05
1022.5728	2956.3462	2592.55	1710.15
1022.6865	2957.4335	2548.35	1664.75
1022.8002	2958.5202	2514.7	1632.2
1022.9138	2959.6062	2488.5	1607.35
1023.0274	2960.6916	2465.75	1584.7
1023.141	2961.7764	2440.7	1555.45
1023.2545	2962.8605	2423.2	1541.5
1023.3679	2963.9439	2419.5	1537.5
1023.4813	2965.0267	2410.35	1527.8
1023.5947	2966.1089	2405.75	1501.3
1023.708	2967.1905	2384.15	1503.8
1023.8213	2968.2714	2377.85	1495.75
1023.9346	2969.3516	2378.4	1497.6
1024.0478	2970.4312	2379.5	1490.5
1024.1609	2971.5102	2386.75	1507
1024.274	2972.5885	2383.75	1502.75
1024.3871	2973.6662	2382.3	1494.55
1024.5002	2974.7432	2361.7	1481.55
1024.6132	2975.8196	2356.8	1477.15
1024.7261	2976.8954	2344.25	1463.25
1024.839	2977.9705	2328.45	1447
1024.9519	2979.045	2321.2	1440.6
1025.0647	2980.1188	2302.8	1421.75
1025.1775	2981.192	2263.45	1383
1025.2902	2982.2645	2252.55	1369.15
1025.4029	2983.3364	2227.4	1345.8
1025.5156	2984.4077	2182.75	1301.95
1025.6282	2985.4783	2171.35	1285.05
1025.7407	2986.5483	2142.45	1260.15
1025.8532	2987.6177	2107.1	1223.4
1025.9657	2988.6864	2062.95	1181.1
1026.0782	2989.7545	2025.05	1142.4
1026.1906	2990.8219	1990.75	1110.25
1026.3029	2991.8887	1958	1074.65
1026.4152	2992.9548	1931.7	1049.3
1026.5275	2994.0204	1894.5	1014
1026.6397	2995.0852	1870.3	990.15
1026.7519	2996.1495	1833.15	950.2
1026.864	2997.2131	1817.2	935.65
1026.9761	2998.276	1786.05	904.15
1027.0882	2999.3383	1764.95	884.15
1027.2002	3000.4	1752	869.7
1027.3122	3001.4611	1739.85	858
1027.4241	3002.5215	1714.9	831.4
1027.536	3003.5812	1702.5	820.45
1027.6478	3004.6404	1693.85	814.2
1027.7596	3005.6989	1678.35	794.65
1027.8714	3006.7567	1674.4	792
1027.9831	3007.8139	1684.7	787.05
1028.0947	3008.8705	1654.55	774.65
1028.2064	3009.9264	1672.5	773.25
1028.3179	3010.9818	1646.55	765.05
1028.4295	3012.0364	1648.05	766.95
1028.541	3013.0905	1635.45	755.5
1028.6524	3014.1439	1629.3	748.1
1028.7638	3015.1966	1627.65	745.55
1028.8752	3016.2487	1622.1	740.95
1028.9865	3017.3002	1631.95	743.7
1029.0978	3018.3511	1631.15	750.55
1029.209	3019.4013	1616.8	736.7
1029.3202	3020.4509	1624	743.1
1029.4314	3021.4998	1623.5	742
1029.5425	3022.5481	1624.7	743.85
1029.6535	3023.5958	1616.35	734.7
1029.7645	3024.6428	1628.05	744.7
1029.8755	3025.6892	1628.2	746.1
1029.9864	3026.735	1632	752.85
1030.0973	3027.7802	1628.5	746.45
1030.2082	3028.8247	1631.2	753.55
1030.319	3029.8685	1633.25	750.55
1030.4297	3030.9118	1629.6	748.4
1030.5404	3031.9544	1637.4	757.45
1030.6511	3032.9963	1633.8	754.2
1030.7617	3034.0376	1638.4	756.15
1030.8723	3035.0783	1642.85	758.2
1030.9829	3036.1184	1647.45	765.95
1031.0934	3037.1578	1650.25	768.95
1031.2038	3038.1966	1657.45	775.25
1031.3142	3039.2348	1646.15	766
1031.4246	3040.2723	1646.95	758.35
1031.5349	3041.3092	1639.85	758.3
1031.6452	3042.3455	1647.3	765.6
1031.7554	3043.3811	1641	759.35
1031.8656	3044.4161	1635.95	754.25
1031.9758	3045.4505	1624.95	746.95
1032.0859	3046.4842	1625.85	742.15
1032.1959	3047.5173	1603.85	722.55
1032.3059	3048.5498	1605.9	724.55
1032.4159	3049.5816	1597.15	716.05
1032.5258	3050.6128	1588.1	706.6
1032.6357	3051.6434	1579.35	698.05
1032.7455	3052.6734	1576.8	693.3
1032.8553	3053.7027	1571.85	693.25
1032.9651	3054.7314	1555.8	674.45
1033.0748	3055.7594	1551.4	673.6
1033.1845	3056.7868	1549	666.2
1033.2941	3057.8136	1536.4	656.6
1033.4037	3058.8398	1529.1	648.35
1033.5132	3059.8653	1528.85	646.7
1033.6227	3060.8902	1515.15	634.05
1033.7321	3061.9145	1508.6	629.35
1033.8415	3062.9381	1511.45	630.55
1033.9509	3063.9612	1512.25	616.05
1034.0602	3064.9835	1487.4	607.35
1034.1694	3066.0053	1479.8	597.35
1034.2787	3067.0264	1473.05	594.05
1034.3878	3068.0469	1467.85	586.95
1034.497	3069.0668	1461.4	577.75
1034.6061	3070.086	1447.45	568.55
1034.7151	3071.1046	1443.5	561.6
1034.8241	3072.1226	1433.65	551.45
1034.9331	3073.1399	1418.4	536.25
1035.042	3074.1567	1412	530.75
1035.1508	3075.1727	1397.65	515.9
1035.2597	3076.1882	1394.55	513.55
1035.3684	3077.203	1382.7	503.8
1035.4772	3078.2173	1376.2	493.5
1035.5859	3079.2308	1371.3	487.8
1035.6945	3080.2438	1358.3	474.9
1035.8031	3081.2561	1352.4	471.3
1035.9117	3082.2678	1336.55	456.6
1036.0202	3083.2789	1332.15	452.05
1036.1286	3084.2893	1323.85	442.8
1036.2371	3085.2991	1318.7	437.4
1036.3454	3086.3083	1316.05	430.2
1036.4538	3087.3169	1305.3	424.6
1036.562	3088.3248	1296.3	413.65
1036.6703	3089.3321	1292.05	409.4
1036.7785	3090.3388	1289.6	409.45
1036.8866	3091.3449	1285.15	406.3
1036.9948	3092.3503	1285.9	402.25
1037.1028	3093.3551	1273.55	395.35
1037.2108	3094.3593	1273.75	393.55
1037.3188	3095.3629	1263.35	383.2
1037.4267	3096.3658	1258.15	376.6
1037.5346	3097.3681	1253.35	372.95
1037.6425	3098.3698	1258.9	376
1037.7503	3099.3708	1262	375
1037.858	3100.3713	1251.7	371.3
1037.9657	3101.3711	1246.25	364.5
1038.0734	3102.3702	1368.35	353.6
1038.181	3103.3688	1240.2	358.8
1038.2886	3104.3667	1232.8	352.65
1038.3961	3105.364	1231.6	351.5
1038.5036	3106.3607	1229.9	349.85
1038.611	3107.3568	1222.75	341.5
1038.7184	3108.3522	1226.5	347.05
1038.8257	3109.347	1220.65	339.75
1038.933	3110.3412	1222.65	340.5
1039.0403	3111.3348	1216.45	335.85
1039.1475	3112.3277	1212.6	332.65
1039.2547	3113.32	1208.3	328.85
1039.3618	3114.3117	1211.4	328.35
1039.4689	3115.3028	1205.55	324.1
1039.5759	3116.2932	1203.75	321.7
1039.6829	3117.2831	1206.7	319.95
1039.7898	3118.2723	1195.8	316.05
1039.8967	3119.2608	1198.25	318.9
1040.0035	3120.2488	1193.1	310.65
1040.1103	3121.2361	1193.1	313.45
1040.2171	3122.2229	1191.25	314.25
1040.3238	3123.209	1195.55	315.85
1040.4305	3124.1944	1187.2	308.85
1040.5371	3125.1793	1190.1	308.95
1040.6437	3126.1635	1181.95	302.65
1040.7502	3127.1471	1179.65	300.5
1040.8567	3128.1301	1176.8	296.2
1040.9631	3129.1125	1180	301.45
1041.0695	3130.0942	1176.7	295.75
1041.1759	3131.0753	1183.1	295.35
1041.2822	3132.0558	1179	296.45
1041.3884	3133.0357	1170.45	290.55
1041.4946	3134.015	1170	288.25
1041.6008	3134.9936	1164.95	283.5
1041.7069	3135.9716	1190.1	289.8
1041.813	3136.949	1167.25	288.45
1041.919	3137.9258	1180.65	283.55
1042.025	3138.902	1164.25	277.6
1042.1309	3139.8775	1163	285.3
1042.2368	3140.8524	1158.05	278.3
1042.3427	3141.8267	1158.5	276.6
1042.4485	3142.8004	1153.9	273.2
1042.5542	3143.7735	1160.35	272.6
1042.6599	3144.7459	1156.3	274.9
1042.7656	3145.7178	1145	264.1
1042.8712	3146.689	1144.45	266.35
1042.9768	3147.6596	1150.05	269.65
1043.0823	3148.6295	1143.55	262
1043.1878	3149.5989	1136.25	255.45
1043.2932	3150.5676	1135.4	257.3
1043.3986	3151.5357	1135.6	256.05
1043.5039	3152.5032	1134.15	254.2
1043.6092	3153.4701	1136	254
1043.7145	3154.4364	1136.5	255.7
1043.8197	3155.402	1133.95	255.35
1043.9248	3156.367	1131.75	250.55
1044.03	3157.3315	1155.45	249.75
1044.135	3158.2952	1124.55	243.7
1044.24	3159.2584	1127.45	248.5
1044.345	3160.221	1124.75	245.55
1044.4499	3161.1829	1125.25	244.5
1044.5548	3162.1442	1116.55	238.7
1044.6596	3163.105	1117.9	238.15
1044.7644	3164.065	1121	240.5
1044.8692	3165.0245	1115.4	232.55
1044.9739	3165.9834	1110	230.3
1045.0785	3166.9416	1112.65	233.7
1045.1831	3167.8993	1112.25	232.9
1045.2877	3168.8563	1105.85	224.3
1045.3922	3169.8127	1107.1	227.15
1045.4966	3170.7684	1106.5	227.8
1045.6011	3171.7236	1108.65	228.1
1045.7054	3172.6782	1105.3	226.2
1045.8098	3173.6321	1107.35	226.3
1045.914	3174.5854	1107.85	225.3
1046.0183	3175.5381	1102.35	222.3
1046.1224	3176.4902	1103.4	223.75
1046.2266	3177.4417	1098.2	217.45
1046.3307	3178.3926	1097.1	218.3
1046.4347	3179.3428	1098.15	219.75
1046.5387	3180.2924	1094.65	215.5
1046.6427	3181.2415	1093.45	213.15
1046.7466	3182.1899	1093.25	214.25
1046.8504	3183.1377	1085.45	206.7
1046.9542	3184.0848	1092.55	209.4
1047.058	3185.0314	1084.9	204.3
1047.1617	3185.9773	1093	211.2
1047.2654	3186.9227	1088.2	207.1
1047.369	3187.8674	1084.55	203.35
1047.4726	3188.8115	1086.6	204.4
1047.5761	3189.755	1083.4	204.25
1047.6796	3190.6979	1084.6	206.3
1047.783	3191.6402	1080.8	203.5
1047.8864	3192.5818	1082.4	202.5
1047.9898	3193.5229	1092.95	200.8
1048.0931	3194.4633	1080.85	202.5
1048.1963	3195.4031	1078.3	197.85
1048.2995	3196.3423	1076.9	198.05
1048.4027	3197.2809	1073.7	192.65
1048.5058	3198.2189	1077.95	198.45
1048.6089	3199.1563	1081.3	195.2
1048.7119	3200.0931	1074.65	196.5
1048.8148	3201.0292	1066.35	190.45
1048.9178	3201.9648	1064.15	185.55
1049.0206	3202.8997	1071.7	190.35
1049.1235	3203.834	1066.3	187.25
1049.2262	3204.7677	1062.65	184.25
1049.329	3205.7008	1068.9	188.75
1049.4317	3206.6333	1064.8	185.95
1049.5343	3207.5652	1066.65	185.15
1049.6369	3208.4964	1069.05	188.95
1049.7394	3209.4271	1059.6	179.8
1049.8419	3210.3571	1058.7	182.55
1049.9444	3211.2865	1058.65	179.75
1050.0468	3212.2154	1057.95	178.8
1050.1491	3213.1436	1063.25	181
1050.2514	3214.0712	1068.25	182.3
1050.3537	3214.9982	1059.1	180.55
1050.4559	3215.9246	1054.4	173.4
1050.5581	3216.8503	1053.45	174.6
1050.6602	3217.7755	1057.9	176.9
1050.7623	3218.7001	1054.1	175.35
1050.8643	3219.624	1052.3	172.1
1050.9663	3220.5473	1050.3	172
1051.0682	3221.4701	1049.1	165.55
1051.1701	3222.3922	1051.75	173.1
1051.2719	3223.3137	1052.9	175
1051.3737	3224.2346	1044.2	165.55
1051.4754	3225.1549	1046.2	168
1051.5771	3226.0746	1043.4	164.15
1051.6788	3226.9937	1045.85	167.7
1051.7804	3227.9121	1043.4	165.65
1051.8819	3228.83	1040.8	161.55
1051.9834	3229.7473	1044.1	165.5
1052.0849	3230.6639	1044.25	165.1
1052.1863	3231.5799	1041.25	164.55
1052.2876	3232.4954	1039.55	159.75
1052.3889	3233.4102	1040.15	162
1052.4902	3234.3244	1038	158.1
1052.5914	3235.238	1037.15	157.9
1052.6926	3236.151	1063.65	159.05
1052.7937	3237.0634	1034.15	156.5
1052.8948	3237.9752	1030.6	150.85
1052.9958	3238.8864	1033.85	154
1053.0968	3239.797	1032	154
1053.1977	3240.7069	1032.25	152.15
1053.2986	3241.6163	1030.85	151.75
1053.3994	3242.5251	1027.6	148.9
1053.5002	3243.4332	1027.25	151.3
1053.6009	3244.3408	1027.85	147.5
1053.7016	3245.2477	1028.45	149.9
1053.8022	3246.154	1025.7	146.6
1053.9028	3247.0598	1026.75	146.45
1054.0034	3247.9649	1024.05	145.8
1054.1039	3248.8694	1023.8	143.05
1054.2043	3249.7733	1022.8	144.05
1054.3047	3250.6766	1023.4	143.1
1054.4051	3251.5793	1020.8	140.35
1054.5054	3252.4814	1016.2	138.1
1054.6056	3253.3829	1014.7	134.75
1054.7058	3254.2838	1014	134.85
1054.806	3255.1841	1013.9	136.9
1054.9061	3256.0838	1014.55	136.2
1055.0061	3256.9829	1015.15	134.5
1055.1062	3257.8814	1015.8	135
1055.2061	3258.7792	1011.8	129.1
1055.306	3259.6765	1015.45	137.2
1055.4059	3260.5731	1009.05	129.65
1055.5057	3261.4692	1004.95	126.55
1055.6055	3262.3647	1006	125.8
1055.7052	3263.2595	997	116.9
1055.8049	3264.1538	1000.95	122.3
1055.9045	3265.0474	997.4	117.5
1056.0041	3265.9404	1002.85	125.1
1056.1036	3266.8329	998.8	120.35
1056.2031	3267.7247	1001.4	112.75
1056.3025	3268.616	989.3	109.85
1056.4019	3269.5066	990.95	111.85
1056.5013	3270.3966	988.3	107.75
1056.6005	3271.286	983.05	105.5
