Software Version:	3.9.2.0
Unit SN:	10000200
Spectrometer SN:	6960
Date:	3/26/2024 2:10:28 PM
Data Line Index:	25
Spectral Points:	2048
Integration time (ms):	125
Averages:	20
Delay (ms):	30000
Sequence Number:	1
Processing:	dark subtract
Laser Power (mW):	300
Laser Current (mA):	819
Laser Diode Temp (C):	25.1
Laser Case Temp (C):	27.5
System Temp (C):	27.5
Spectrometer Temp (C):	25.5
CCD Temp (C):	0.005
Secondary Temp (C):	20.006
Heatsink Temp (C):	22.923
CCDPCB Temp (C):	36.952
SecondaryPCB Temp (C):	34.584

Wavelength	RamanShift	Raw Counts	Dark Subtracted
787.061	30.1047	678.25	267.2
787.2016	32.3739	690.35	281.05
787.3422	34.6426	707.5	295.7
787.4828	36.9109	730.1	316.6
787.6235	39.1787	749	332.65
787.7642	41.4461	782.05	360.3
787.9049	43.7131	808.05	383.5
788.0456	45.9796	834.65	407.5
788.1863	48.2456	862.85	431.3
788.3271	50.5112	897.4	462.55
788.4679	52.7764	921.45	482.7
788.6087	55.0411	957.6	516.8
788.7496	57.3054	991.9	546.35
788.8904	59.5692	1029.55	580.6
789.0313	61.8326	1067.8	617.35
789.1722	64.0955	1118.35	660.15
789.3132	66.3579	1173.75	711.75
789.4541	68.6199	1236.35	771.3
789.5951	70.8815	1346.85	879.8
789.7361	73.1426	1569.65	1098.5
789.8771	75.4032	2136.3	1659.45
790.0181	77.6634	3570.7	3085.3
790.1592	79.9231	7137.9	6642.25
790.3003	82.1824	15410.25	14895.85
790.4414	84.4412	37238.45	36688.65
790.5825	86.6995	63689.3	63087.1
790.7237	88.9574	65535	64884.15
790.8648	91.2148	65535	64852.9
791.006	93.4717	65535	64833.2
791.1472	95.7282	65535	64821.2
791.2885	97.9842	65535	64813
791.4297	100.2398	65535	64810.65
791.571	102.4949	65535	64808.65
791.7123	104.7495	65535	64804.95
791.8536	107.0036	65535	64804.45
791.9949	109.2573	65535	64803.25
792.1363	111.5105	65535	64804.9
792.2777	113.7632	65535	64800.95
792.4191	116.0154	65535	64788.05
792.5605	118.2672	65535	64796.4
792.7019	120.5185	65535	64793.65
792.8434	122.7693	65535	64793.55
792.9849	125.0197	65535	64791.75
793.1264	127.2696	65535	64786
793.2679	129.519	65535	64782.25
793.4094	131.7679	65535	64774.1
793.551	134.0163	65535	64775.15
793.6926	136.2642	65535	64773.35
793.8342	138.5117	65535	64770.7
793.9758	140.7587	65535	64764.3
794.1175	143.0052	65535	64764.85
794.2591	145.2512	65535	64767.55
794.4008	147.4967	65535	64769.45
794.5425	149.7417	65535	64761.95
794.6842	151.9863	65535	64758.1
794.826	154.2304	65535	64753.7
794.9677	156.4739	65535	64751.55
795.1095	158.717	65535	64748.4
795.2513	160.9596	65535	64741.85
795.3931	163.2017	65535	64745.4
795.535	165.4433	65535	64741.3
795.6768	167.6844	65535	64742.05
795.8187	169.925	65535	64739
795.9606	172.1651	65535	64740.05
796.1025	174.4047	65535	64738.6
796.2445	176.6439	65535	64734.5
796.3864	178.8825	65535	64733.55
796.5284	181.1206	65535	64728.35
796.6704	183.3582	65535	64723.3
796.8124	185.5954	65535	64721.85
796.9544	187.832	65535	64716.7
797.0965	190.0681	65535	64711.55
797.2386	192.3037	65535	64712.4
797.3806	194.5388	65535	64708.8
797.5228	196.7734	65535	64700.45
797.6649	199.0075	65535	64699.9
797.807	201.2411	65535	64699.75
797.9492	203.4742	65535	64695.7
798.0914	205.7068	65535	64696.8
798.2336	207.9389	65535	64698.15
798.3758	210.1704	65535	64695.25
798.518	212.4015	65535	64691
798.6603	214.632	65535	64695.75
798.8025	216.862	65535	64705.4
798.9448	219.0915	65535	64708.4
799.0871	221.3205	65535	64704.3
799.2294	223.549	65535	64709.05
799.3718	225.777	65535	64706.9
799.5141	228.0044	65535	64709
799.6565	230.2314	65535	64709.95
799.7989	232.4578	65535	64716.35
799.9413	234.6837	65535	64709.4
800.0837	236.909	65535	64703.95
800.2262	239.1339	65535	64675.15
800.3687	241.3582	65535	64688.9
800.5111	243.582	65535	64659.45
800.6536	245.8053	65535	64668.5
800.7961	248.0281	65535	64680.9
800.9387	250.2503	65535	64672.3
801.0812	252.472	65535	64666.25
801.2238	254.6932	65535	64667.45
801.3664	256.9139	65535	64668.95
801.509	259.134	65535	64663.5
801.6516	261.3536	65535	64664.2
801.7942	263.5727	65535	64654.9
801.9369	265.7912	65535	64661.55
802.0795	268.0092	65535	64666.55
802.2222	270.2267	65535	64661.7
802.3649	272.4436	65535	64664.8
802.5076	274.6601	65535	64656.05
802.6504	276.8759	65535	64660.2
802.7931	279.0913	65535	64658.8
802.9359	281.3061	65535	64654.75
803.0787	283.5204	65535	64654.25
803.2215	285.7341	65535	64651.55
803.3643	287.9473	65535	64639.3
803.5071	290.16	65535	64644.25
803.6499	292.3721	65535	64651.75
803.7928	294.5837	65535	64646.1
803.9357	296.7947	65535	64651.75
804.0786	299.0052	65535	64644.7
804.2215	301.2152	65535	64649.55
804.3644	303.4246	65535	64652.5
804.5074	305.6334	65535	64650.45
804.6503	307.8418	65535	64652.55
804.7933	310.0495	65535	64645.9
804.9363	312.2568	65535	64645.7
805.0793	314.4635	65535	64644
805.2223	316.6696	65535	64641.9
805.3653	318.8752	65535	64630.05
805.5084	321.0802	65535	64640.9
805.6514	323.2847	65535	64633.75
805.7945	325.4887	65535	64637.7
805.9376	327.692	65535	64637.05
806.0807	329.8949	65535	64638.6
806.2238	332.0972	65535	64641.9
806.367	334.2989	65535	64630.8
806.5101	336.5001	65535	64629.75
806.6533	338.7007	65535	64629.8
806.7965	340.9008	65535	64627.5
806.9397	343.1003	65535	64629.05
807.0829	345.2992	65535	64630.05
807.2261	347.4976	65535	64626.5
807.3693	349.6955	65535	64622.2
807.5126	351.8927	65535	64616.05
807.6559	354.0895	65535	64610.05
807.7991	356.2856	65535	64613.55
807.9424	358.4812	65535	64620
808.0857	360.6763	65535	64621
808.2291	362.8707	65535	64621.15
808.3724	365.0646	65535	64614.15
808.5158	367.258	65535	64620.3
808.6591	369.4508	65535	64612.85
808.8025	371.643	65535	64614.05
808.9459	373.8346	65535	64609.85
809.0893	376.0257	65535	64606.35
809.2327	378.2162	65535	64612.8
809.3762	380.4062	65535	64607.75
809.5196	382.5956	65535	64606.2
809.6631	384.7844	65535	64611.7
809.8066	386.9726	65535	64610.4
809.9501	389.1603	65535	64603.95
810.0936	391.3474	65535	64585.1
810.2371	393.5339	65535	64605.2
810.3806	395.7199	65535	64612.25
810.5241	397.9052	65535	64617.3
810.6677	400.09	65535	64620.85
810.8113	402.2743	65535	64623.25
810.9548	404.4579	65535	64620.7
811.0984	406.641	65535	64622.65
811.2421	408.8235	65535	64620.4
811.3857	411.0054	65535	64619.8
811.5293	413.1868	65535	64607.25
811.673	415.3675	65535	64610.5
811.8166	417.5477	65535	64609.4
811.9603	419.7273	65535	64609.05
812.104	421.9064	65535	64606.6
812.2477	424.0848	65535	64611.15
812.3914	426.2627	65535	64605.25
812.5351	428.4399	65535	64605.75
812.6788	430.6166	65535	64602.6
812.8226	432.7928	65535	64602
812.9663	434.9683	65535	64606.15
813.1101	437.1432	65535	64611.95
813.2539	439.3176	65535	64606.95
813.3977	441.4914	65535	64613.1
813.5415	443.6645	65535	64607.2
813.6853	445.8371	65535	64600.45
813.8291	448.0091	65535	64603.6
813.973	450.1806	65535	64606.6
814.1168	452.3514	65535	64612.3
814.2607	454.5216	65535	64597.15
814.4046	456.6913	65535	64609.6
814.5485	458.8603	65535	64609.05
814.6924	461.0288	65535	64611.65
814.8363	463.1967	65535	64616.3
814.9802	465.3639	65535	64607.6
815.1241	467.5306	65535	64605.5
815.2681	469.6967	65535	64611.7
815.412	471.8622	65535	64617.55
815.556	474.0271	65535	64605.55
815.7	476.1914	65535	64599.5
815.844	478.3551	65535	64604.45
815.988	480.5182	65535	64609.8
816.132	482.6807	65535	64620.2
816.276	484.8426	65535	64626.1
816.4201	487.0039	65535	64616.25
816.5641	489.1647	65535	64609.55
816.7082	491.3248	65535	64603.2
816.8522	493.4843	65535	64610.25
816.9963	495.6432	65535	64608.35
817.1404	497.8015	65535	64598.7
817.2845	499.9592	65535	64592.85
817.4286	502.1163	65535	64590.1
817.5727	504.2728	65535	64605.65
817.7168	506.4287	65535	64616.6
817.861	508.5839	65535	64612.1
818.0051	510.7386	65535	64609.1
818.1493	512.8927	65535	64592.9
818.2935	515.0461	65535	64602.4
818.4377	517.199	65535	64595
818.5818	519.3512	65535	64595.35
818.726	521.5029	65535	64594.25
818.8703	523.6539	65535	64597
819.0145	525.8043	65535	64596.9
819.1587	527.9541	65535	64590.45
819.303	530.1033	65535	64596.8
819.4472	532.2519	65535	64596.65
819.5915	534.3999	65535	64595.05
819.7357	536.5472	65535	64597.15
819.88	538.694	65535	64603.75
820.0243	540.8401	65535	64598.2
820.1686	542.9856	65535	64583.95
820.3129	545.1305	65535	64578.15
820.4572	547.2748	65535	64574.45
820.6016	549.4185	65535	64573.1
820.7459	551.5615	65535	64577.85
820.8902	553.704	65535	64577.35
821.0346	555.8458	65535	64586.1
821.1789	557.987	65535	64583.8
821.3233	560.1276	65535	64580.9
821.4677	562.2675	65535	64579.9
821.6121	564.4069	65535	64583.5
821.7565	566.5456	65535	64586.5
821.9009	568.6837	65535	64586.15
822.0453	570.8212	65535	64592.05
822.1897	572.958	65535	64585
822.3342	575.0942	65535	64594.2
822.4786	577.2299	65535	64598.8
822.6231	579.3648	65535	64613.7
822.7675	581.4992	65535	64618.15
822.912	583.6329	65535	64620.6
823.0565	585.766	65535	64613.2
823.201	587.8985	65535	64607.3
823.3454	590.0304	65535	64586.4
823.4899	592.1616	65535	64585.95
823.6345	594.2922	65535	64585.1
823.779	596.4222	65535	64579.55
823.9235	598.5515	65535	64579.2
824.068	600.6802	65535	64582.3
824.2126	602.8083	65535	64583.15
824.3571	604.9358	65535	64585
824.5017	607.0626	65535	64582.55
824.6462	609.1888	65535	64575.6
824.7908	611.3144	65535	64578.9
824.9354	613.4393	65535	64573.25
825.08	615.5636	65535	64575.05
825.2246	617.6873	65535	64578.55
825.3692	619.8103	65535	64571.15
825.5138	621.9327	65535	64578.25
825.6584	624.0544	65535	64586.85
825.803	626.1756	65535	64586.8
825.9477	628.2961	65535	64576.2
826.0923	630.4159	65535	64580
826.237	632.5351	65535	64578.5
826.3816	634.6537	65535	64573.45
826.5263	636.7716	65535	64570.1
826.6709	638.8889	65535	64568.3
826.8156	641.0056	65535	64572.1
826.9603	643.1216	65535	64571.8
827.105	645.237	65535	64576.35
827.2497	647.3518	65535	64583.4
827.3944	649.4659	65535	64589
827.5391	651.5793	65535	64586.5
827.6838	653.6922	65535	64584.05
827.8285	655.8043	65535	64578.45
827.9733	657.9159	65535	64579.5
828.118	660.0268	65535	64580.4
828.2627	662.137	65535	64576.55
828.4075	664.2466	65535	64572.25
828.5522	666.3556	65535	64573.45
828.697	668.4639	65535	64579.25
828.8418	670.5716	65535	64585.3
828.9865	672.6786	65535	64579.05
829.1313	674.785	65535	64573.55
829.2761	676.8907	65535	64577.55
829.4209	678.9958	65535	64586.05
829.5657	681.1002	65535	64579.3
829.7105	683.204	65535	64567.85
829.8553	685.3072	65535	64573.05
830.0001	687.4097	65535	64576.25
830.1449	689.5115	65535	64571
830.2898	691.6127	65535	64574
830.4346	693.7132	65535	64578.75
830.5794	695.8131	65535	64556.3
830.7243	697.9123	65535	64564.2
830.8691	700.0109	65535	64563.4
831.014	702.1089	65535	64567.25
831.1588	704.2061	65535	64573.1
831.3037	706.3028	65535	64566.55
831.4486	708.3987	65535	64567.35
831.5935	710.4941	65535	64576.45
831.7383	712.5887	65535	64573.85
831.8832	714.6827	65535	64572.7
832.0281	716.7761	65535	64578.95
832.173	718.8688	65535	64574.2
832.3179	720.9608	65535	64561.7
832.4628	723.0522	65535	64555.25
832.6077	725.1429	65535	64565.4
832.7527	727.233	65535	64574.15
832.8976	729.3224	65535	64566.9
833.0425	731.4112	65535	64569.5
833.1874	733.4993	65535	64566.1
833.3324	735.5867	65535	64568.8
833.4773	737.6735	65535	64566.4
833.6222	739.7596	65535	64567.8
833.7672	741.845	65535	64571.55
833.9122	743.9298	65535	64564.7
834.0571	746.014	65535	64567.3
834.2021	748.0974	65535	64566.75
834.347	750.1802	65535	64558.4
834.492	752.2624	65535	64567.2
834.637	754.3439	65535	64558.75
834.782	756.4247	65535	64555.6
834.9269	758.5048	65535	64568.35
835.0719	760.5843	65535	64564.3
835.2169	762.6631	65535	64562.45
835.3619	764.7413	65535	64564.25
835.5069	766.8188	65535	64564.9
835.6519	768.8956	65535	64561.9
835.7969	770.9718	65535	64561.15
835.9419	773.0473	65535	64567.2
836.0869	775.1221	65535	64564.7
836.232	777.1962	65535	64565.1
836.377	779.2697	65535	64559.85
836.522	781.3426	65535	64544.9
836.667	783.4147	65535	64562.45
836.8121	785.4862	65535	64565.7
836.9571	787.557	65535	64562.05
837.1021	789.6271	65535	64558.75
837.2472	791.6966	65535	64562.15
837.3922	793.7654	65535	64564.2
837.5373	795.8335	65535	64567.65
837.6823	797.901	65535	64562.65
837.8274	799.9678	65535	64560.4
837.9724	802.0339	65535	64561.5
838.1175	804.0993	65535	64547.95
838.2626	806.1641	65535	64560.9
838.4076	808.2282	65535	64562.8
838.5527	810.2916	65535	64563.65
838.6978	812.3544	65535	64567
838.8428	814.4164	65535	64568.2
838.9879	816.4778	65535	64559.75
839.133	818.5385	65535	64554.7
839.2781	820.5986	65535	64562.6
839.4232	822.658	65535	64553.35
839.5682	824.7166	65535	64563.9
839.7133	826.7747	65535	64561.85
839.8584	828.832	65535	64561.2
840.0035	830.8886	65535	64556.4
840.1486	832.9446	65535	64557.15
840.2937	834.9999	65535	64562.95
840.4388	837.0545	65535	64559.15
840.5839	839.1085	65535	64560
840.729	841.1618	65535	64558.1
840.8741	843.2143	65535	64560.25
841.0192	845.2662	65535	64557.5
841.1643	847.3175	65535	64562.8
841.3095	849.368	65526.7	64552.1
841.4546	851.4179	65535	64559.25
841.5997	853.467	65534.2	64558.55
841.7448	855.5155	65535	64558.35
841.8899	857.5633	65525.25	64547.45
842.0351	859.6105	65518.15	64538.35
842.1802	861.6569	65531.5	64552.55
842.3253	863.7027	65501.05	64522.9
842.4704	865.7478	65513.75	64535.6
842.6156	867.7922	65506.15	64525.45
842.7607	869.8359	65526.6	64551.15
842.9058	871.8789	65498.35	64522.05
843.0509	873.9212	65508.65	64503.85
843.1961	875.9629	65517.95	64535.9
843.3412	878.0039	65511.45	64533.75
843.4863	880.0441	65502.35	64527.95
843.6315	882.0837	65503.75	64527.8
843.7766	884.1226	65495.7	64520.6
843.9218	886.1609	65479.6	64503.4
844.0669	888.1984	65426.7	64451.65
844.212	890.2352	65500.65	64524.6
844.3572	892.2714	65425.35	64446.45
844.5023	894.3069	65480.75	64500.2
844.6475	896.3416	65424.55	64443.85
844.7926	898.3757	65408	64427
844.9377	900.4091	65276.8	64297.45
845.0829	902.4418	65445.6	64459.3
845.228	904.4739	65341.1	64359.7
845.3732	906.5052	65356.9	64373.7
845.5183	908.5358	65300.75	64316.3
845.6635	910.5658	65271.95	64293
845.8086	912.595	65279.15	64301.45
845.9538	914.6236	65153.35	64175.35
846.0989	916.6515	65332.25	64353.2
846.2441	918.6786	65159	64182.7
846.3892	920.7051	65200.1	64222.05
846.5344	922.7309	65168.75	64188.8
846.6795	924.756	65183.45	64205.8
846.8246	926.7804	65154.5	64175.4
846.9698	928.8041	65007.05	64028.75
847.1149	930.8272	65112.65	64130
847.2601	932.8495	65119.25	64140.15
847.4052	934.8711	65020.6	64039.2
847.5504	936.892	64937	63957.85
847.6955	938.9123	64988.2	64008.05
847.8407	940.9318	64897	63915.35
847.9858	942.9506	64865.4	63883.4
848.131	944.9688	64897.4	63920.2
848.2761	946.9862	64674.7	63697
848.4213	949.003	64791.05	63814.75
848.5664	951.019	64567.9	63588.7
848.7115	953.0344	64628.5	63651.05
848.8567	955.0491	64592.95	63612.95
849.0018	957.063	64650.3	63673.8
849.147	959.0763	64665.9	63679.8
849.2921	961.0888	64516.55	63540.8
849.4373	963.1007	64628.2	63654
849.5824	965.1119	64618.4	63650.4
849.7275	967.1223	64511	63551.55
849.8727	969.1321	64639.3	63680.95
850.0178	971.1412	64459.2	63491.75
850.1629	973.1495	64388.9	63417.45
850.3081	975.1572	64489.4	63461.9
850.4532	977.1641	64397.5	63422.45
850.5983	979.1704	64366.25	63389.35
850.7435	981.1759	64395.5	63413.6
850.8886	983.1808	64282.8	63305.45
851.0337	985.1849	64280.55	63292.75
851.1788	987.1884	64319.1	63341.45
851.324	989.1911	64420.65	63442.45
851.4691	991.1932	64105.6	63131.7
851.6142	993.1945	64194.6	63220.45
851.7593	995.1951	64271	63293.05
851.9045	997.1951	64103.35	63117.35
852.0496	999.1943	64044	63069.55
852.1947	1001.1928	63963.5	62987.05
852.3398	1003.1906	63994.9	63017.55
852.4849	1005.1877	63681.7	62705.55
852.63	1007.1841	63641.75	62665.1
852.7751	1009.1798	63644.75	62672.65
852.9202	1011.1748	63605.8	62632.55
853.0653	1013.1691	63483.25	62506.4
853.2104	1015.1627	62249.15	61272.4
853.3555	1017.1556	62937.15	61966.2
853.5006	1019.1477	63050.1	62081.35
853.6457	1021.1392	62531	61566.75
853.7908	1023.1299	61599.65	60637.2
853.9359	1025.12	62287.9	61334.85
854.081	1027.1093	61809.95	60867.8
854.2261	1029.0979	61824.35	60884.25
854.3712	1031.0859	61723.45	60773.9
854.5163	1033.0731	60954.85	59998.05
854.6613	1035.0596	61368.75	60407.05
854.8064	1037.0454	61094.4	60126.8
854.9515	1039.0304	60680.5	59708.85
855.0965	1041.0148	59672.2	58702.7
855.2416	1042.9985	59885.8	58916.1
855.3867	1044.9814	60540.65	59572.7
855.5317	1046.9636	59428.6	58458.7
855.6768	1048.9452	59597.5	58630.4
855.8219	1050.926	59372.1	58402.7
855.9669	1052.9061	59283.9	58311.35
856.112	1054.8855	59364.65	58391.6
856.257	1056.8642	58957.2	57983.35
856.4021	1058.8421	58560.9	57582.35
856.5471	1060.8194	58636.75	57663.2
856.6921	1062.7959	58156.6	57183.65
856.8372	1064.7717	58704.1	57732
856.9822	1066.7469	58371.6	57399.45
857.1272	1068.7213	58336.2	57364.1
857.2723	1070.695	57884.25	56913.9
857.4173	1072.6679	57314.85	56345.9
857.5623	1074.6402	57678.45	56705.3
857.7073	1076.6117	57189.4	56210.3
857.8523	1078.5826	57128.1	56156.3
857.9973	1080.5527	57281.6	56309.15
858.1423	1082.5221	56971.2	55999.2
858.2873	1084.4908	57216.05	56246.6
858.4323	1086.4587	57071.45	56100.5
858.5773	1088.426	57130.7	56157.7
858.7223	1090.3925	57027.25	56050.85
858.8673	1092.3584	56841.85	55875.4
859.0123	1094.3235	56179.2	55208.4
859.1573	1096.2879	56056.85	55088.55
859.3022	1098.2515	56123.7	55155.25
859.4472	1100.2145	55805.5	54837.15
859.5922	1102.1767	55684.2	54710.4
859.7371	1104.1382	55898.05	54930.65
859.8821	1106.099	55755.2	54784.4
860.027	1108.0591	55770.35	54799.35
860.172	1110.0185	55161	54189.6
860.3169	1111.9771	55740.4	54772.55
860.4619	1113.9351	55153.6	54185.6
860.6068	1115.8923	54598.5	53628.35
860.7517	1117.8488	54064.25	53096.6
860.8967	1119.8045	53433.15	52465.9
861.0416	1121.7596	53455.85	52489.85
861.1865	1123.7139	53185.5	52218
861.3314	1125.6675	53061.65	52093.55
861.4763	1127.6204	52979.15	52011.05
861.6212	1129.5726	52674.25	51702.8
861.7661	1131.524	52849.5	51878.2
861.911	1133.4748	52858.9	51890
862.0559	1135.4248	52546.1	51579.75
862.2008	1137.3741	52452.85	51483.95
862.3457	1139.3226	52291.1	51321.85
862.4905	1141.2705	52158.3	51193.05
862.6354	1143.2176	51915.5	50944.2
862.7803	1145.164	51663.6	50691
862.9251	1147.1097	51692.85	50724.25
863.07	1149.0546	51501.55	50531.3
863.2148	1150.9989	51465.75	50498.55
863.3597	1152.9424	51086.55	50119.3
863.5045	1154.8852	50952.1	49984.3
863.6493	1156.8272	50599.25	49632.05
863.7942	1158.7686	50724.3	49748.6
863.939	1160.7092	50189.5	49218.8
864.0838	1162.6491	50033.4	49062.75
864.2286	1164.5883	50136.35	49167.7
864.3734	1166.5267	49894.85	48926.45
864.5182	1168.4644	50044	49077.95
864.663	1170.4014	50006.45	49038.45
864.8078	1172.3377	50274.25	49309.5
864.9526	1174.2732	50483.25	49517.6
865.0974	1176.2081	50314.15	49347.2
865.2421	1178.1421	50325.8	49354.5
865.3869	1180.0755	50573.45	49606.85
865.5317	1182.0082	50273.9	49310.45
865.6764	1183.9401	50195.1	49231.4
865.8212	1185.8713	49723.35	48767.8
865.9659	1187.8017	49453.95	48504.15
866.1106	1189.7315	49185.5	48243.4
866.2554	1191.6605	48728.95	47787.05
866.4001	1193.5888	48320.45	47373.75
866.5448	1195.5163	48076.1	47123.05
866.6895	1197.4432	47873.4	46910.9
866.8342	1199.3693	47683.4	46724.9
866.9789	1201.2947	47452.75	46484.1
867.1236	1203.2193	47311.4	46347.95
867.2683	1205.1432	47193.4	46230.3
867.413	1207.0664	47053.85	46093.65
867.5576	1208.9889	46927.75	45963.05
867.7023	1210.9106	46841.7	45880.2
867.847	1212.8316	46676.55	45712.5
867.9916	1214.7519	46684.45	45710.7
868.1363	1216.6715	46489.3	45524.75
868.2809	1218.5903	46357.8	45396.2
868.4255	1220.5084	46209.55	45244.95
868.5701	1222.4257	46119.7	45159.7
868.7148	1224.3424	45729.75	44771.8
868.8594	1226.2583	45714.95	44750.65
869.004	1228.1735	45690.95	44727.5
869.1486	1230.0879	45573.1	44612.1
869.2932	1232.0016	45584.1	44621.3
869.4377	1233.9146	45516.95	44552.8
869.5823	1235.8269	45237.1	44273.05
869.7269	1237.7384	45094.8	44134.05
869.8715	1239.6492	44714.9	43756.55
870.016	1241.5592	44504.9	43542.5
870.1606	1243.4686	44312	43350.65
870.3051	1245.3772	44111.45	43150
870.4496	1247.285	43886.95	42927.6
870.5941	1249.1922	43687.65	42727.4
870.7387	1251.0986	43560.15	42598.85
870.8832	1253.0042	43391.5	42429.25
871.0277	1254.9092	43387.6	42429.2
871.1722	1256.8134	43295.65	42337.8
871.3167	1258.7169	43429.2	42470.85
871.4611	1260.6196	43433.95	42477.15
871.6056	1262.5216	43534.05	42570.55
871.7501	1264.4229	43501.5	42544.4
871.8945	1266.3234	43574.6	42617.7
872.039	1268.2232	43563.5	42603.8
872.1834	1270.1223	43354.75	42394.5
872.3278	1272.0207	43236.1	42275.85
872.4723	1273.9183	43085.7	42120.5
872.6167	1275.8151	42952	41989.3
872.7611	1277.7113	42774.7	41817.05
872.9055	1279.6067	42500.05	41541.5
873.0499	1281.5014	42180.75	41218.45
873.1943	1283.3953	42004.65	41041
873.3386	1285.2885	41844.5	40889.85
873.483	1287.181	41687.3	40727
873.6274	1289.0727	41697.3	40743.5
873.7717	1290.9637	41617.2	40660.3
873.9161	1292.854	41653.65	40695.25
874.0604	1294.7435	41642.5	40686.15
874.2047	1296.6323	41773.75	40815.05
874.349	1298.5204	41910.6	40951.35
874.4933	1300.4077	42087.45	41133.6
874.6376	1302.2943	42223.15	41268.1
874.7819	1304.1802	42211.25	41255.4
874.9262	1306.0653	41996.25	41039.45
875.0705	1307.9497	41755.15	40797.3
875.2147	1309.8333	41661.2	40703.8
875.359	1311.7162	41532.75	40581.4
875.5032	1313.5984	41573.5	40613.25
875.6475	1315.4798	41502.35	40531.6
875.7917	1317.3605	41575.55	40613.6
875.9359	1319.2405	41655.1	40694.1
876.0801	1321.1197	41592.45	40633.05
876.2243	1322.9982	41430.3	40472.35
876.3685	1324.876	41456.1	40499.5
876.5127	1326.753	41246.9	40289.4
876.6569	1328.6293	41285.35	40326.75
876.801	1330.5048	41252.15	40293.15
876.9452	1332.3796	41107.55	40151.9
877.0893	1334.2537	41014.65	40035.75
877.2335	1336.127	40876.2	39920.1
877.3776	1337.9996	40712.4	39759.25
877.5217	1339.8714	40574.6	39615.95
877.6658	1341.7426	40476.55	39475.2
877.8099	1343.6129	40394.85	39437.15
877.954	1345.4826	40162.9	39205.95
878.0981	1347.3515	40156.65	39196.95
878.2422	1349.2196	40047	39085.85
878.3862	1351.087	39917.3	38962.85
878.5303	1352.9537	39939.05	38983.1
878.6743	1354.8197	39976.6	39020.1
878.8184	1356.6849	40112.35	39155.15
878.9624	1358.5493	40020.75	39066.1
879.1064	1360.4131	39963.05	39007.15
879.2504	1362.276	39779.15	38824.1
879.3944	1364.1383	39507.75	38550.4
879.5384	1365.9998	39220.4	38262.65
879.6823	1367.8606	38807	37851.2
879.8263	1369.7206	38476.85	37519.05
879.9702	1371.5799	38232	37275.35
880.1142	1373.4384	37988.55	37032.7
880.2581	1375.2962	37810.25	36851.25
880.402	1377.1533	37422.3	36470.75
880.5459	1379.0096	36991.15	36043.2
880.6898	1380.8652	36715.5	35768.5
880.8337	1382.7201	36335	35385.25
880.9776	1384.5742	35983.85	35031.95
881.1215	1386.4275	35758.35	34803.1
881.2653	1388.2802	35515.5	34561.85
881.4092	1390.132	35309.4	34356.65
881.553	1391.9832	35234.6	34282.25
881.6968	1393.8336	34958.7	34006.1
881.8406	1395.6832	34828	33870.8
881.9844	1397.5322	34666.05	33713.85
882.1282	1399.3803	34567.95	33613.35
882.272	1401.2278	34338.05	33388.15
882.4158	1403.0745	34311.55	33357.4
882.5595	1404.9204	34073.75	33122.9
882.7033	1406.7656	34040.2	33088.85
882.847	1408.6101	33913.7	32962.35
882.9908	1410.4538	33851.05	32899.8
883.1345	1412.2968	33725.1	32772.75
883.2782	1414.139	33588.5	32637.25
883.4219	1415.9805	33649.85	32698
883.5656	1417.8213	33524.3	32553.3
883.7092	1419.6613	33605.1	32653.6
883.8529	1421.5006	33705.1	32752.9
883.9965	1423.3391	33892.8	32939.4
884.1402	1425.1769	34018.35	33066.25
884.2838	1427.0139	34445.95	33495.6
884.4274	1428.8502	34994.3	34041.9
884.571	1430.6858	35410.45	34460.6
884.7146	1432.5206	35632.9	34684
884.8582	1434.3547	35877.65	34928.95
885.0018	1436.188	35882.2	34932.7
885.1453	1438.0206	35751.2	34799
885.2889	1439.8524	35544.5	34596.1
885.4324	1441.6835	35375.5	34423.9
885.5759	1443.5139	35213.55	34261.4
885.7194	1445.3435	35011.65	34065.7
885.8629	1447.1724	34932.85	33983.35
886.0064	1449.0005	34793.8	33843.95
886.1499	1450.8279	34598.65	33650.3
886.2933	1452.6545	34541.65	33594.7
886.4368	1454.4804	34528.9	33581.3
886.5802	1456.3056	34442.45	33486.9
886.7237	1458.13	34310.8	33364.8
886.8671	1459.9536	34119.7	33173.2
887.0105	1461.7766	33692.95	32744.7
887.1539	1463.5987	33190.85	32241.9
887.2972	1465.4202	32753.1	31804.95
887.4406	1467.2409	32359.3	31409.7
887.584	1469.0608	32089.1	31140.05
887.7273	1470.88	31783.95	30833.9
887.8706	1472.6984	31506.65	30559.7
888.0139	1474.5161	31147.45	30198.15
888.1572	1476.3331	30957.8	30006.75
888.3005	1478.1493	30790.3	29841.85
888.4438	1479.9648	30718.5	29773.15
888.5871	1481.7795	30514.85	29568.2
888.7303	1483.5935	30455.3	29504.55
888.8736	1485.4067	30340.05	29390.45
889.0168	1487.2192	30246.45	29297.4
889.16	1489.031	30089.65	29139
889.3032	1490.842	29975.65	29027.3
889.4464	1492.6522	30011.8	29063.95
889.5896	1494.4618	29842.45	28896.8
889.7327	1496.2705	29795.25	28848.1
889.8759	1498.0785	29708.5	28763.9
890.019	1499.8858	29630.05	28683.1
890.1622	1501.6924	29490.55	28540.6
890.3053	1503.4981	29478.6	28535.5
890.4484	1505.3032	29411.15	28464.15
890.5914	1507.1075	29286.85	28339.15
890.7345	1508.911	29265.5	28320
890.8776	1510.7138	29152.65	28202.45
891.0206	1512.5159	29010.1	28064.65
891.1637	1514.3172	28926.05	27979.7
891.3067	1516.1178	28773.85	27832.15
891.4497	1517.9176	28704	27753.1
891.5927	1519.7166	28612.9	27669.3
891.7357	1521.515	28504.45	27553.4
891.8786	1523.3126	28444.3	27500.05
892.0216	1525.1094	28329.5	27383.7
892.1645	1526.9055	28224.25	27279.15
892.3074	1528.7008	28108.9	27165.3
892.4503	1530.4954	27940.95	26992
892.5932	1532.2893	27929.05	26990
892.7361	1534.0824	27702.85	26758.4
892.879	1535.8747	27715.45	26777.65
893.0218	1537.6663	27566.7	26628.45
893.1647	1539.4572	27491.9	26551.85
893.3075	1541.2473	27458.45	26518.55
893.4503	1543.0367	27363.2	26422.85
893.5931	1544.8253	27234.55	26291.15
893.7359	1546.6132	27238.35	26294.55
893.8787	1548.4003	27081.65	26133.95
894.0214	1550.1867	27039.7	26094.45
894.1642	1551.9723	26960.2	26017.55
894.3069	1553.7572	26931.35	25995.35
894.4496	1555.5414	26870.75	25933.05
894.5923	1557.3247	26818.7	25885.2
894.735	1559.1074	26816.55	25883.85
894.8777	1560.8893	26781.7	25849.85
895.0204	1562.6705	26739.8	25809.4
895.163	1564.4509	26785.1	25854.75
895.3056	1566.2305	26738.9	25811.85
895.4482	1568.0094	26791.5	25863.05
895.5908	1569.7876	26812.6	25883.55
895.7334	1571.565	26862.1	25930.45
895.876	1573.3417	26815.95	25885.1
896.0186	1575.1176	26805.1	25874.95
896.1611	1576.8928	26696.2	25769.5
896.3036	1578.6672	26520.1	25597.1
896.4461	1580.4409	26328.6	25406.95
896.5886	1582.2138	26103.75	25177.9
896.7311	1583.986	25936.9	25007.25
896.8736	1585.7575	25851.4	24923.7
897.0161	1587.5282	25713.45	24791.85
897.1585	1589.2981	25607.85	24687.15
897.3009	1591.0673	25468.9	24549.4
897.4433	1592.8358	25402.8	24480.95
897.5857	1594.6035	25337.55	24410.55
897.7281	1596.3704	25264.3	24333.9
897.8705	1598.1366	25197.45	24271.75
898.0128	1599.9021	25150.5	24225.7
898.1551	1601.6668	25098.8	24174.55
898.2975	1603.4308	25080.85	24154.7
898.4398	1605.194	25142.05	24213.15
898.5821	1606.9564	25084.4	24169.15
898.7243	1608.7182	25159.05	24243.55
898.8666	1610.4791	25187.3	24280.35
899.0088	1612.2394	25205.5	24298.6
899.1511	1613.9988	25368.05	24457.15
899.2933	1615.7576	25511.9	24596.1
899.4355	1617.5156	25691.6	24763.4
899.5776	1619.2728	25883.3	24956.95
899.7198	1621.0293	26042.85	25118.15
899.862	1622.785	25992.05	25071.05
900.0041	1624.54	25834.2	24916.85
900.1462	1626.2942	25664.4	24746.05
900.2883	1628.0477	25336.45	24419.3
900.4304	1629.8005	25090.05	24170.15
900.5725	1631.5525	24760.15	23842.65
900.7145	1633.3037	24549	23634.1
900.8566	1635.0542	24336.55	23421.8
900.9986	1636.804	24206.15	23289.1
901.1406	1638.553	24112.35	23151.25
901.2826	1640.3013	23921.35	23005.8
901.4245	1642.0488	23836.15	22920.15
901.5665	1643.7955	23769.85	22857.6
901.7085	1645.5416	23731.7	22817
901.8504	1647.2868	23764.9	22849.3
901.9923	1649.0313	23765.55	22847.9
902.1342	1650.7751	23826.45	22906.55
902.2761	1652.5181	23953.65	23040.7
902.4179	1654.2604	24068.95	23154.9
902.5598	1656.0019	24299.8	23385.55
902.7016	1657.7427	24595.45	23682.65
902.8434	1659.4828	24867.2	23948.05
902.9852	1661.222	25046.2	24127.25
903.127	1662.9606	25039.55	24123
903.2687	1664.6984	24847.45	23925.85
903.4105	1666.4354	24513.8	23590.25
903.5522	1668.1717	24012.3	23093.75
903.6939	1669.9072	23492.7	22568.9
903.8356	1671.642	23121.2	22198.8
903.9773	1673.3761	22798	21880.85
904.119	1675.1094	22462.05	21544.9
904.2606	1676.8419	22251.75	21334.9
904.4022	1678.5737	22008.75	21090.65
904.5439	1680.3048	21876.9	20954.3
904.6855	1682.0351	21717.6	20797.25
904.827	1683.7646	21559.95	20637.65
904.9686	1685.4934	21421.2	20505.95
905.1101	1687.2215	21345.1	20427.75
905.2517	1688.9488	21220.55	20304.45
905.3932	1690.6754	21133.05	20218.1
905.5347	1692.4012	21048.95	20132.35
905.6761	1694.1263	20991.9	20074.95
905.8176	1695.8506	20944.85	20030.15
905.9591	1697.5742	20863.65	19950
906.1005	1699.297	20754.65	19843.5
906.2419	1701.0191	20613.45	19703.95
906.3833	1702.7404	20527	19616.2
906.5246	1704.461	20415.35	19501.6
906.666	1706.1808	20342.9	19428.85
906.8073	1707.8999	20286.5	19376.35
906.9487	1709.6182	20237.75	19330.55
907.09	1711.3358	20148.9	19242.95
907.2313	1713.0527	20088.15	19184.65
907.3725	1714.7688	19996.4	19085.05
907.5138	1716.4841	19933.9	19021.6
907.655	1718.1987	19921.4	19005.75
907.7962	1719.9126	19810.2	18904.45
907.9374	1721.6257	19733.5	18828.8
908.0786	1723.338	19695.45	18791.7
908.2198	1725.0496	19570.25	18660.45
908.3609	1726.7605	19544.95	18634.75
908.502	1728.4706	19469.2	18559.95
908.6431	1730.18	19332.4	18427.6
908.7842	1731.8886	19300.35	18397.5
908.9253	1733.5964	19275.45	18350.6
909.0664	1735.3036	19196.5	18289.35
909.2074	1737.0099	19190.6	18285.55
909.3484	1738.7156	19144.2	18239.3
909.4894	1740.4204	19048	18138.25
909.6304	1742.1246	19005.15	18096
909.7714	1743.8279	18948.45	18042.4
909.9123	1745.5306	18912.05	18009.4
910.0532	1747.2325	18813.6	17912.05
910.1941	1748.9336	18776.1	17869.65
910.335	1750.634	18674.35	17763.45
910.4759	1752.3336	18629.6	17722.6
910.6168	1754.0325	18637.3	17734.35
910.7576	1755.7307	18569.7	17666.5
910.8984	1757.4281	18558.35	17652.5
911.0392	1759.1247	18500.6	17583.5
911.18	1760.8206	18460	17544.5
911.3208	1762.5158	18402	17489.6
911.4615	1764.2102	18352.6	17446.05
911.6022	1765.9039	18252.65	17349.55
911.7429	1767.5968	18258.6	17356.15
911.8836	1769.289	18179.45	17276.2
912.0243	1770.9804	18144.35	17238.3
912.1649	1772.6711	18150.85	17239.85
912.3056	1774.361	18071.4	17162.55
912.4462	1776.0502	18047.9	17137.5
912.5868	1777.7386	17996.05	17086.3
912.7274	1779.4263	17907.3	17002.15
912.8679	1781.1132	17867.7	16964.45
913.0084	1782.7994	17834.7	16933.6
913.149	1784.4849	17809.3	16908.85
913.2895	1786.1696	17750.2	16831.55
913.4299	1787.8535	17704.3	16803.05
913.5704	1789.5367	17651.4	16751
913.7108	1791.2192	17630.05	16726.5
913.8513	1792.9009	17574.1	16645.65
913.9917	1794.5818	17522.25	16613.5
914.132	1796.2621	17471	16564.9
914.2724	1797.9415	17407.2	16499.3
914.4128	1799.6202	17380.2	16475.5
914.5531	1801.2982	17338.8	16433.4
914.6934	1802.9755	17310.2	16402.15
914.8337	1804.6519	17273.15	16367.5
914.9739	1806.3277	17179.8	16276.95
915.1142	1808.0027	17120.35	16222
915.2544	1809.6769	17105	16206
915.3946	1811.3504	17029.15	16129.65
915.5348	1813.0231	17044.3	16143.7
915.675	1814.6951	17010.4	16110.25
915.8151	1816.3664	17025	16120.45
915.9553	1818.0369	16939.45	16035.9
916.0954	1819.7067	16882.7	15978.5
916.2355	1821.3757	16839.25	15931.2
916.3755	1823.044	16797.1	15890.8
916.5156	1824.7115	16765.9	15859.45
916.6556	1826.3783	16679.8	15774.3
916.7956	1828.0443	16640.5	15739.15
916.9356	1829.7096	16617.95	15712.3
917.0756	1831.3741	16600.5	15693.8
917.2155	1833.0379	16534	15635.35
917.3555	1834.701	16456.4	15557.9
917.4954	1836.3633	16456.9	15559.75
917.6353	1838.0248	16458.6	15559.2
917.7751	1839.6856	16392.05	15489.55
917.915	1841.3457	16343.05	15440.9
918.0548	1843.005	16286.75	15382.2
918.1946	1844.6636	16296.45	15392.1
918.3344	1846.3214	16223.05	15318.75
918.4742	1847.9785	16249.65	15347.45
918.6139	1849.6349	16156.15	15253.3
918.7537	1851.2904	16166.3	15251.2
918.8934	1852.9453	16122.6	15214.25
919.0331	1854.5994	16034.6	15125.45
919.1727	1856.2528	16085.7	15177
919.3124	1857.9054	16008.85	15103.85
919.452	1859.5572	15998.45	15099.05
919.5916	1861.2083	15947	15043.45
919.7312	1862.8587	15923.8	15016.95
919.8708	1864.5084	15913.45	15004.6
920.0103	1866.1572	15833.6	14928.3
920.1498	1867.8054	15758.75	14850.95
920.2893	1869.4528	15740.1	14831.95
920.4288	1871.0994	15714.95	14806
920.5683	1872.7453	15672.2	14767
920.7077	1874.3905	15644.35	14734
920.8471	1876.0349	15568.35	14663.65
920.9865	1877.6786	15577.3	14671.4
921.1259	1879.3215	15581.55	14676.55
921.2653	1880.9637	15524.6	14619.6
921.4046	1882.6051	15474.2	14571.7
921.5439	1884.2458	15446.6	14543.75
921.6832	1885.8858	15374.8	14471.9
921.8225	1887.525	15351.35	14445.55
921.9617	1889.1634	15245	14339.95
922.101	1890.8011	15212.55	14307.25
922.2402	1892.4381	15184.9	14281.6
922.3794	1894.0743	15179.4	14275.6
922.5185	1895.7098	15119.25	14216.05
922.6577	1897.3446	15084.8	14181.9
922.7968	1898.9786	15041.4	14136.15
922.9359	1900.6118	15013.65	14112.55
923.075	1902.2443	14918.2	14012.05
923.214	1903.8761	14915.45	14012.2
923.3531	1905.5071	14844.1	13939.05
923.4921	1907.1374	14815.7	13912.3
923.6311	1908.7669	14796	13894.2
923.77	1910.3957	14750.05	13849.4
923.909	1912.0237	14647.4	13746.1
924.0479	1913.651	14635.5	13734.1
924.1868	1915.2776	14609.55	13710.45
924.3257	1916.9034	14543.95	13644.65
924.4646	1918.5285	14496.85	13598.9
924.6034	1920.1528	14412.45	13510.2
924.7422	1921.7764	14422.8	13521.75
924.881	1923.3992	14329.8	13427.6
925.0198	1925.0213	14251.2	13348.05
925.1586	1926.6427	14220.9	13321.95
925.2973	1928.2633	14253.3	13281.45
925.436	1929.8832	14178.35	13276.3
925.5747	1931.5023	14088.25	13185.35
925.7134	1933.1207	14056.85	13153.8
925.852	1934.7383	14032.75	13130.3
925.9906	1936.3552	13974.65	13074.8
926.1292	1937.9714	13957.4	13057.75
926.2678	1939.5868	13899.15	12995.65
926.4064	1941.2015	13822.3	12918.45
926.5449	1942.8154	13747.9	12845.45
926.6834	1944.4286	13691.9	12788.55
926.8219	1946.041	13647.25	12727.5
926.9604	1947.6528	13601.05	12694.45
927.0988	1949.2637	13555.6	12655.25
927.2372	1950.8739	13508.55	12606.45
927.3756	1952.4834	13497.4	12597.15
927.514	1954.0921	13483	12583.4
927.6523	1955.7001	13405	12501.55
927.7907	1957.3074	13367.5	12468.95
927.929	1958.9139	13314.9	12418.3
928.0673	1960.5197	13276.05	12378.95
928.2055	1962.1247	13228.4	12330.65
928.3438	1963.729	13151.25	12254.9
928.482	1965.3325	13124.25	12205.05
928.6202	1966.9353	13067.6	12173.85
928.7584	1968.5374	13021.65	12125.15
928.8965	1970.1387	13009.2	12112.35
929.0346	1971.7393	12936.5	12038.3
929.1727	1973.3392	12890.2	11994.2
929.3108	1974.9383	12824.9	11930.5
929.4489	1976.5366	12788.9	11894.45
929.5869	1978.1342	12784.05	11890.35
929.7249	1979.7311	12770.55	11876.15
929.8629	1981.3273	12702.6	11810.3
930.0009	1982.9227	12684	11789
930.1388	1984.5173	12612.5	11719.95
930.2767	1986.1112	12551.65	11660.35
930.4146	1987.7044	12541.2	11647.85
930.5525	1989.2968	12495.4	11601.6
930.6904	1990.8885	12450.55	11555.95
930.8282	1992.4795	12430.3	11535.7
930.966	1994.0697	12402.9	11513.3
931.1038	1995.6592	12344.2	11453.2
931.2415	1997.2479	12297.8	11404.1
931.3793	1998.8359	12261.55	11368.45
931.517	2000.4232	12206.85	11317.15
931.6547	2002.0097	12199.1	11313.2
931.7923	2003.5955	12139.5	11252.2
931.93	2005.1805	12139.8	11249.8
932.0676	2006.7648	12100.9	11211.2
932.2052	2008.3484	12039.15	11150
932.3427	2009.9312	12077.25	11188.05
932.4803	2011.5133	11997.75	11110.35
932.6178	2013.0946	11982	11094.45
932.7553	2014.6752	11931	11043.3
932.8928	2016.2551	11887.95	10998.6
933.0302	2017.8342	11868.6	10977.65
933.1676	2019.4126	11817.6	10928.95
933.305	2020.9902	11730.35	10843.1
933.4424	2022.5672	11732.8	10843.3
933.5798	2024.1433	11715.1	10821.1
933.7171	2025.7188	11684.95	10801.55
933.8544	2027.2935	11641.7	10755.2
933.9917	2028.8674	11623.85	10739.05
934.129	2030.4406	11600.1	10716.05
934.2662	2032.0131	11527.25	10641.5
934.4034	2033.5849	11464.2	10572.25
934.5406	2035.1559	11426.55	10538.95
934.6778	2036.7261	11435.7	10547.5
934.8149	2038.2957	11420.4	10529.1
934.952	2039.8645	11396.85	10506.3
935.0891	2041.4325	11383.45	10490.15
935.2262	2042.9998	11302.3	10413.95
935.3632	2044.5664	11303.45	10416.15
935.5002	2046.1323	11257.6	10372.35
935.6372	2047.6974	11235.55	10350
935.7742	2049.2617	11182.3	10295.55
935.9111	2050.8254	11194.85	10301.65
936.048	2052.3883	11156.4	10265.65
936.1849	2053.9504	11113.5	10222.45
936.3218	2055.5118	11094.95	10204.75
936.4586	2057.0725	11014.75	10123.1
936.5955	2058.6325	11025.25	10137.5
936.7323	2060.1917	10977	10091.45
936.869	2061.7502	10965.25	10075.55
937.0058	2063.3079	10918.8	10035.85
937.1425	2064.8649	10882.8	9992.6
937.2792	2066.4212	10821.35	9934.25
937.4159	2067.9767	10813.45	9926.7
937.5525	2069.5315	10737.4	9847.55
937.6891	2071.0856	10697.65	9809.3
937.8257	2072.6389	10705.35	9817.4
937.9623	2074.1915	10625.3	9738.4
938.0989	2075.7433	10574	9686.75
938.2354	2077.2945	10554.6	9667.2
938.3719	2078.8448	10542.8	9651
938.5084	2080.3945	10504.65	9612.95
938.6448	2081.9434	10491.25	9601.6
938.7812	2083.4916	10445.1	9550.4
938.9176	2085.039	10411.05	9514.55
939.054	2086.5857	10380.4	9482.45
939.1903	2088.1317	10395.35	9496.6
939.3267	2089.677	10356.1	9460.35
939.463	2091.2215	10315.75	9418
939.5992	2092.7652	10283.45	9385.7
939.7355	2094.3083	10258.4	9359.9
939.8717	2095.8506	10252.9	9360.7
940.0079	2097.3921	10224.45	9333.85
940.1441	2098.933	10212.15	9320.95
940.2802	2100.4731	10172.05	9279.6
940.4163	2102.0124	10170.4	9272.8
940.5524	2103.5511	10118.25	9223.85
940.6885	2105.089	10133.85	9238.6
940.8245	2106.6261	10095.25	9203.85
940.9606	2108.1626	10042.45	9149.65
941.0965	2109.6983	10062.95	9142.15
941.2325	2111.2332	10020.55	9126.7
941.3684	2112.7675	9994.05	9099.45
941.5044	2114.301	9943	9047.35
941.6403	2115.8337	9942.4	9048.2
941.7761	2117.3657	9884.8	8990.4
941.912	2118.897	9869.15	8975.4
942.0478	2120.4276	9843.1	8943.15
942.1835	2121.9575	9807.7	8911.45
942.3193	2123.4866	9815.85	8920.45
942.455	2125.0149	9784.3	8888.15
942.5907	2126.5426	9740	8849.6
942.7264	2128.0695	9696.3	8806
942.8621	2129.5956	9689.55	8804.85
942.9977	2131.1211	9657.85	8766.8
943.1333	2132.6458	9634.15	8743.35
943.2689	2134.1698	9622.3	8728.05
943.4044	2135.693	9574.65	8675.95
943.54	2137.2155	9574.55	8674.4
943.6755	2138.7373	9538.25	8644.65
943.8109	2140.2584	9514.5	8625.75
943.9464	2141.7787	9477.45	8583.85
944.0818	2143.2983	9438.45	8553.05
944.2172	2144.8171	9374.9	8489.5
944.3526	2146.3353	9386.6	8497.15
944.4879	2147.8527	9335.5	8446.2
944.6232	2149.3693	9324.2	8429.7
944.7585	2150.8853	9272.25	8379.05
944.8938	2152.4005	9257.2	8361.75
945.029	2153.9149	9254.45	8359
945.1642	2155.4287	9311.1	8302.85
945.2994	2156.9417	9253.4	8358.35
945.4346	2158.454	9185.6	8292.7
945.5697	2159.9655	9161.3	8275.45
945.7048	2161.4764	9139.75	8247.45
945.8399	2162.9865	9094.75	8205.1
945.9749	2164.4958	9071.85	8180.15
946.1099	2166.0045	9052.05	8160.4
946.2449	2167.5124	9026.45	8134.55
946.3799	2169.0195	8987	8094.65
946.5148	2170.526	8984.5	8089.05
946.6498	2172.0317	8975.85	8082.45
946.7846	2173.5367	8921.3	8029.55
946.9195	2175.0409	8897.2	8005.5
947.0543	2176.5445	8904.9	8011
947.1891	2178.0473	8881.2	7984.65
947.3239	2179.5494	8840.65	7942.95
947.4587	2181.0507	8819.45	7925.05
947.5934	2182.5513	8772.45	7878.3
947.7281	2184.0512	8773.35	7877.5
947.8628	2185.5504	8720.6	7830.05
947.9974	2187.0488	8671.45	7780.45
948.132	2188.5465	8676.2	7787.05
948.2666	2190.0435	8628.65	7736.85
948.4012	2191.5397	8603.8	7712.85
948.5357	2193.0353	8575.35	7681.65
948.6702	2194.5301	8545.1	7648.15
948.8047	2196.0241	8526.4	7625.75
948.9392	2197.5175	8501.65	7601.65
949.0736	2199.0101	8455.9	7555.35
949.208	2200.502	8428.2	7533.6
949.3424	2201.9931	8389.35	7497.25
949.4767	2203.4835	8369.55	7477.15
949.611	2204.9733	8349.55	7445.4
949.7453	2206.4622	8325.5	7439.35
949.8796	2207.9505	8278.8	7387.3
950.0138	2209.438	8268.2	7381.55
950.148	2210.9248	8228.1	7338.3
950.2822	2212.4109	8193.9	7301.95
950.4164	2213.8962	8184.05	7285.35
950.5505	2215.3809	8195.75	7295.95
950.6846	2216.8648	8172.05	7271.5
950.8186	2218.3479	8145.4	7241.9
950.9527	2219.8304	8108.3	7207.35
951.0867	2221.3121	8086.2	7187.15
951.2207	2222.7931	8053.85	7158.8
951.3546	2224.2733	8019.6	7124.95
951.4886	2225.7529	8010.25	7116.65
951.6225	2227.2317	7982.6	7088.45
951.7563	2228.7098	7944.2	7055.05
951.8902	2230.1872	7911.95	7022
952.024	2231.6638	7909.5	7020.35
952.1578	2233.1397	7857.2	6963.4
952.2916	2234.6149	7863.9	6972.35
952.4253	2236.0894	7815.15	6922.6
952.559	2237.5632	7794.45	6900.05
952.6927	2239.0362	7740.25	6848.8
952.8263	2240.5085	7737.55	6845.4
952.9599	2241.9801	7704.8	6810.05
953.0935	2243.4509	7701.3	6809.05
953.2271	2244.921	7672	6776.65
953.3606	2246.3904	7645	6746.65
953.4941	2247.8591	7618.55	6724.45
953.6276	2249.3271	7598	6701.7
953.7611	2250.7943	7580.1	6683.65
953.8945	2252.2608	7540.25	6644.95
954.0279	2253.7266	7524.6	6631.45
954.1612	2255.1917	7503.85	6610.15
954.2946	2256.656	7486.8	6595
954.4279	2258.1197	7449.7	6559.75
954.5612	2259.5826	7417.15	6523.15
954.6944	2261.0447	7436.95	6541.9
954.8276	2262.5062	7403.2	6504.45
954.9608	2263.9669	7399.8	6502.55
955.094	2265.4269	7362.05	6467.95
955.2271	2266.8862	7330.7	6438.05
955.3602	2268.3448	7319.4	6427.3
955.4933	2269.8026	7296.2	6404.1
955.6264	2271.2598	7279.15	6388
955.7594	2272.7162	7271.35	6380.35
955.8924	2274.1719	7269.55	6374.5
956.0253	2275.6268	7229.75	6333.9
956.1583	2277.0811	7231.3	6334.65
956.2912	2278.5346	7208.8	6316.05
956.4241	2279.9874	7178.25	6287.3
956.5569	2281.4395	7151.95	6265.35
956.6897	2282.8908	7138.3	6241.25
956.8225	2284.3414	7135.5	6242.3
956.9553	2285.7914	7104.6	6211.75
957.088	2287.2406	7066.9	6170.25
957.2207	2288.689	7069.4	6174.35
957.3534	2290.1368	7050.65	6151.45
957.486	2291.5838	7024.25	6122.2
957.6186	2293.0302	7014.45	6111.05
957.7512	2294.4758	6980.3	6082.05
957.8838	2295.9206	6959.05	6063.5
958.0163	2297.3648	6943.35	6053.95
958.1488	2298.8082	6919.05	6024.75
958.2813	2300.251	6892.95	5996.7
958.4137	2301.693	6904.15	6002.8
958.5461	2303.1343	6892.8	5997.45
958.6785	2304.5748	6852.7	5957.95
958.8108	2306.0147	6793.5	5901.65
958.9432	2307.4538	6810.6	5917.95
959.0754	2308.8922	6773.05	5883.35
959.2077	2310.3299	6741.55	5851.4
959.3399	2311.7669	6732.05	5840
959.4721	2313.2031	6712.25	5818.05
959.6043	2314.6387	6684.9	5789.35
959.7365	2316.0735	6675.4	5781.05
959.8686	2317.5076	6664.1	5771.1
960.0006	2318.941	6661.85	5766.2
960.1327	2320.3737	6652.55	5754.85
960.2647	2321.8056	6601.85	5703.5
960.3967	2323.2369	6577.95	5684
960.5287	2324.6674	6580.9	5683.2
960.6606	2326.0972	6551	5655.95
960.7925	2327.5263	6518.6	5625.35
960.9244	2328.9547	6492.8	5596.4
961.0562	2330.3823	6498	5599.8
961.1881	2331.8092	6494.45	5593.75
961.3198	2333.2355	6455.65	5558.85
961.4516	2334.661	6446.85	5550.35
961.5833	2336.0858	6428.3	5527.85
961.715	2337.5098	6415.25	5517.8
961.8467	2338.9332	6397.15	5502.35
961.9783	2340.3558	6362.5	5463.95
962.1099	2341.7778	6340.35	5447.4
962.2415	2343.199	6318.6	5423.8
962.373	2344.6195	6295.6	5401.7
962.5045	2346.0393	6302.95	5409.85
962.636	2347.4583	6286.5	5393.6
962.7675	2348.8767	6272.6	5375.75
962.8989	2350.2943	6246.05	5348.3
963.0303	2351.7113	6225.85	5325.75
963.1617	2353.1275	6234	5334.2
963.293	2354.543	6223.45	5318.8
963.4243	2355.9578	6192.3	5296.3
963.5556	2357.3718	6161.45	5268.5
963.6868	2358.7852	6131.1	5235.75
963.818	2360.1978	6115.2	5221.05
963.9492	2361.6098	6101.25	5207.9
964.0803	2363.021	6087.5	5189.1
964.2114	2364.4315	6067.8	5171.15
964.3425	2365.8413	6035.55	5139.8
964.4736	2367.2504	6000.1	5108.7
964.6046	2368.6587	6006.35	5113.15
964.7356	2370.0664	5976.3	5083.2
964.8666	2371.4733	5947	5053.6
964.9975	2372.8795	5928.3	5035.35
965.1284	2374.285	5927.75	5034.8
965.2593	2375.6899	5890.65	4998.65
965.3901	2377.0939	5870.45	4976.7
965.5209	2378.4973	5841.05	4950.9
965.6517	2379.9	5833.2	4939.65
965.7825	2381.3019	5806.15	4912.4
965.9132	2382.7032	5789.5	4899.9
966.0439	2384.1037	5775.05	4887.55
966.1745	2385.5035	5769.55	4880.3
966.3051	2386.9027	5736.15	4845.7
966.4357	2388.3011	5730.6	4836.6
966.5663	2389.6987	5704.05	4813.15
966.6968	2391.0957	5697.35	4806.4
966.8273	2392.492	5645.15	4756.7
966.9578	2393.8876	5640.8	4749.3
967.0882	2395.2824	5636.2	4743.45
967.2186	2396.6765	5598.25	4707.1
967.349	2398.07	5572.15	4679.1
967.4793	2399.4627	5570.4	4676.1
967.6097	2400.8547	5544.75	4650.75
967.7399	2402.246	5547.8	4648.05
967.8702	2403.6366	5507.85	4615.45
968.0004	2405.0265	5501.25	4610.15
968.1306	2406.4156	5472.9	4578.2
968.2607	2407.8041	5453.15	4559.05
968.3909	2409.1918	5432.5	4537.8
968.521	2410.5789	5420.85	4528.1
968.651	2411.9652	5415.45	4520.4
968.781	2413.3508	5381.45	4489.6
968.911	2414.7358	5372.3	4479.1
969.041	2416.12	5343.05	4450.3
969.1709	2417.5035	5349.7	4456.75
969.3008	2418.8863	5315.45	4419.9
969.4307	2420.2684	5303.4	4409.4
969.5606	2421.6497	5279.85	4384.25
969.6904	2423.0304	5250.85	4357.7
969.8201	2424.4104	5254.35	4360
969.9499	2425.7896	5211.65	4316
970.0796	2427.1682	5225.65	4333.3
970.2093	2428.546	5177.45	4283.25
970.3389	2429.9232	5203.55	4309.6
970.4685	2431.2996	5179.9	4287.25
970.5981	2432.6753	5158.25	4264.15
970.7277	2434.0503	5163.15	4268.85
970.8572	2435.4246	5134.95	4239.65
970.9867	2436.7982	5078.75	4181
971.1161	2438.1711	5105.85	4212.4
971.2456	2439.5433	5084.95	4189.9
971.375	2440.9148	5056.65	4156.5
971.5043	2442.2856	5038.65	4147.15
971.6336	2443.6557	5029.35	4135.05
971.7629	2445.025	5010.25	4116.25
971.8922	2446.3937	5017.15	4122.7
972.0214	2447.7617	4975.2	4080.25
972.1506	2449.1289	4981.9	4089.35
972.2798	2450.4955	4978.35	4083.25
972.4089	2451.8613	4951.15	4058.2
972.538	2453.2265	4933.4	4040.9
972.6671	2454.5909	4929.45	4035.45
972.7961	2455.9546	4926.55	4033.5
972.9251	2457.3177	4902.5	4008.55
973.0541	2458.68	4886.9	3993.05
973.1831	2460.0416	4873.95	3981.15
973.312	2461.4025	4897.2	4002.25
973.4408	2462.7627	4857.35	3955.15
973.5697	2464.1222	4836	3944.95
973.6985	2465.4811	4828.5	3938.35
973.8273	2466.8392	4808.9	3916.8
973.956	2468.1966	4812.4	3917
974.0847	2469.5533	4811	3915.85
974.2134	2470.9093	4797.55	3904.15
974.3421	2472.2645	4769.45	3874.95
974.4707	2473.6191	4766.65	3873.25
974.5993	2474.973	4742.25	3849.75
974.7278	2476.3262	4732.2	3838.55
974.8563	2477.6787	4718.05	3824.7
974.9848	2479.0305	4678.65	3785.35
975.1132	2480.3816	4667.4	3775
975.2417	2481.7319	4675.55	3783.65
975.37	2483.0816	4651.55	3756.9
975.4984	2484.4306	4633.8	3741.45
975.6267	2485.7789	4619.4	3730.35
975.755	2487.1264	4601.05	3706.9
975.8833	2488.4733	4581.4	3691.55
976.0115	2489.8195	4599.45	3691.8
976.1397	2491.165	4566.3	3671
976.2678	2492.5097	4556	3660
976.3959	2493.8538	4535.15	3643.7
976.524	2495.1972	4515.05	3622.65
976.6521	2496.5398	4499.3	3604.3
976.7801	2497.8818	4482.55	3585.1
976.9081	2499.2231	4472.8	3578.35
977.036	2500.5637	4455.6	3559.1
977.164	2501.9035	4442	3546.35
977.2918	2503.2427	4437.35	3537.2
977.4197	2504.5812	4420.7	3525.1
977.5475	2505.919	4410.2	3515.95
977.6753	2507.256	4406.6	3513.05
977.8031	2508.5924	4394.8	3503.75
977.9308	2509.9281	4368.3	3469
978.0585	2511.2631	4374.75	3480.9
978.1861	2512.5974	4339.25	3448.05
978.3137	2513.9309	4330.15	3436.6
978.4413	2515.2638	4333.9	3414.35
978.5689	2516.596	4311.95	3419.45
978.6964	2517.9275	4317.2	3422.45
978.8239	2519.2583	4291.9	3397.45
978.9513	2520.5884	4274.45	3379.7
979.0788	2521.9178	4263.9	3371
979.2062	2523.2465	4239.95	3349.1
979.3335	2524.5745	4236	3345.6
979.4608	2525.9018	4218.95	3324.15
979.5881	2527.2284	4215.7	3323.3
979.7154	2528.5543	4197.75	3306.9
979.8426	2529.8796	4177	3284.15
979.9698	2531.2041	4188.9	3297.55
980.0969	2532.5279	4182.4	3289.15
980.224	2533.851	4165.55	3270.3
980.3511	2535.1735	4141.05	3248.2
980.4781	2536.4952	4142.15	3247.3
980.6052	2537.8163	4126.95	3232.8
980.7321	2539.1366	4123.2	3227.55
980.8591	2540.4562	4112.8	3216.85
980.986	2541.7752	4098.7	3203.95
981.1129	2543.0935	4090	3193.65
981.2397	2544.411	4086.05	3191.9
981.3665	2545.7279	4071.5	3178.35
981.4933	2547.0441	4082.5	3187.45
981.62	2548.3596	4069.15	3172.65
981.7467	2549.6744	4058.2	3163.8
981.8734	2550.9885	4055.2	3157.35
982.0001	2552.3019	4048.2	3155.4
982.1267	2553.6146	4039.8	3143.85
982.2532	2554.9266	4019.6	3125.2
982.3798	2556.2379	4016.8	3120.65
982.5063	2557.5485	3998.3	3107.05
982.6327	2558.8585	4000.15	3099.5
982.7592	2560.1677	3991.05	3095.75
982.8856	2561.4762	3983.5	3088.4
983.0119	2562.7841	3982.5	3087.8
983.1383	2564.0913	3952.9	3060
983.2646	2565.3977	3962.9	3069.25
983.3908	2566.7035	3934	3040.65
983.517	2568.0086	3940.9	3044.65
983.6432	2569.313	3933.6	3037.35
983.7694	2570.6167	3909.45	3010.6
983.8955	2571.9197	3909.35	3013
984.0216	2573.222	3899.6	3001.15
984.1476	2574.5236	3890	2993.45
984.2737	2575.8246	3895.4	2999.1
984.3996	2577.1248	3887.6	2991.35
984.5256	2578.4244	3878.45	2984.1
984.6515	2579.7232	3859	2966.15
984.7774	2581.0214	3878.25	2954.05
984.9032	2582.3189	3858.85	2965.4
985.029	2583.6157	3855.35	2957.2
985.1548	2584.9118	3840.5	2946.9
985.2806	2586.2072	3848.3	2954.35
985.4063	2587.5019	3825.8	2933.1
985.5319	2588.7959	3811.2	2914.7
985.6576	2590.0893	3815.05	2918.6
985.7832	2591.3819	3805	2910.25
985.9087	2592.6739	3791.2	2896.1
986.0343	2593.9652	3793.1	2897.75
986.1597	2595.2557	3785.9	2890.5
986.2852	2596.5456	3756.9	2861.75
986.4106	2597.8348	3773.4	2879.35
986.536	2599.1234	3746.6	2853.35
986.6614	2600.4112	3733.95	2839.55
986.7867	2601.6983	3722.85	2822
986.912	2602.9848	3719.65	2824.1
987.0372	2604.2705	3720.15	2819
987.1624	2605.5556	3708.05	2814.7
987.2876	2606.84	3699.55	2807.8
987.4128	2608.1237	3672.5	2776.45
987.5379	2609.4067	3662.25	2768
987.6629	2610.689	3660.8	2758.65
987.788	2611.9707	3657.5	2757.8
987.913	2613.2516	3649.2	2748.35
988.0379	2614.5319	3625.9	2733.05
988.1629	2615.8115	3618.55	2724.45
988.2878	2617.0903	3609.7	2714.6
988.4126	2618.3685	3599.2	2704.95
988.5375	2619.6461	3590.9	2694.95
988.6622	2620.9229	3576.65	2682.15
988.787	2622.199	3562.85	2668.65
988.9117	2623.4745	3552.7	2656.5
989.0364	2624.7493	3540.7	2647.5
989.161	2626.0234	3538.95	2647.3
989.2857	2627.2968	3516.45	2623.55
989.4102	2628.5695	3520.15	2625.5
989.5348	2629.8415	3500.55	2609.6
989.6593	2631.1128	3495.85	2602.55
989.7837	2632.3835	3487.95	2596.1
989.9082	2633.6535	3461.8	2569.5
990.0326	2634.9228	3458.85	2565.6
990.1569	2636.1914	3467.15	2574.7
990.2812	2637.4593	3465.65	2566.3
990.4055	2638.7265	3448.05	2555.05
990.5298	2639.9931	3434	2540.7
990.654	2641.259	3427.35	2532.55
990.7782	2642.5242	3410	2515.35
990.9023	2643.7887	3403.2	2507.9
991.0264	2645.0525	3394.35	2501.65
991.1505	2646.3156	3401.5	2492.75
991.2745	2647.5781	3387.3	2493.9
991.3985	2648.8398	3359.6	2467.6
991.5225	2650.1009	3354.6	2457.75
991.6464	2651.3613	3359.4	2467.55
991.7703	2652.6211	3356.2	2461.75
991.8942	2653.8801	3330.1	2438
992.018	2655.1385	3326.8	2429.55
992.1418	2656.3961	3325.55	2431.4
992.2655	2657.6531	3315.15	2421.3
992.3892	2658.9094	3317.2	2421.7
992.5129	2660.1651	3309.5	2417.95
992.6366	2661.42	3320.1	2427.2
992.7602	2662.6743	3300.95	2405.5
992.8837	2663.9279	3292.75	2400.25
993.0073	2665.1808	3278.4	2385.7
993.1307	2666.433	3279.45	2384.75
993.2542	2667.6846	3276.85	2382.75
993.3776	2668.9354	3270.8	2375.55
993.501	2670.1856	3265.85	2370.35
993.6244	2671.4351	3248.05	2354.8
993.7477	2672.6839	3256.8	2362.3
993.8709	2673.9321	3244.8	2351.35
993.9942	2675.1795	3246.6	2354.6
994.1174	2676.4263	3231.85	2340.15
994.2405	2677.6724	3235.45	2341.35
994.3637	2678.9179	3223.85	2328.95
994.4868	2680.1626	3215.1	2323.5
994.6098	2681.4067	3213.35	2322.05
994.7328	2682.6501	3212.3	2318.95
994.8558	2683.8928	3208.55	2313.9
994.9788	2685.1348	3184.7	2292.7
995.1017	2686.3761	3173.5	2283.25
995.2245	2687.6168	3167.25	2276.1
995.3474	2688.8568	3158.25	2265.1
995.4702	2690.0961	3152.85	2264.35
995.5929	2691.3348	3138.3	2244.2
995.7156	2692.5727	3130.75	2238
995.8383	2693.81	3117.35	2223.05
995.961	2695.0466	3104	2212.75
996.0836	2696.2826	3108.95	2214.05
996.2062	2697.5178	3109.05	2212.55
996.3287	2698.7524	3083	2188.85
996.4512	2699.9863	3095.6	2201.95
996.5737	2701.2195	3078.55	2188
996.6961	2702.452	3086.8	2191.65
996.8185	2703.6839	3087.7	2192.55
996.9408	2704.9151	3076.1	2186.25
997.0631	2706.1456	3057.35	2166.85
997.1854	2707.3755	3072.5	2179.9
997.3077	2708.6046	3072	2176
997.4299	2709.8331	3062.5	2170.2
997.552	2711.0609	3051.25	2159.55
997.6742	2712.2881	3075.15	2184.35
997.7963	2713.5145	3085.25	2190.2
997.9183	2714.7403	3066.6	2177.1
998.0403	2715.9654	3074.5	2182.25
998.1623	2717.1899	3097.4	2193.3
998.2842	2718.4136	3085.45	2192.4
998.4062	2719.6367	3078.35	2184.2
998.528	2720.8591	3088.35	2189.2
998.6498	2722.0809	3082.1	2189.85
998.7716	2723.3019	3085.85	2192.3
998.8934	2724.5223	3079.65	2187
999.0151	2725.7421	3079.9	2187.95
999.1368	2726.9611	3085.75	2193.55
999.2584	2728.1795	3077.2	2180.65
999.38	2729.3972	3057.2	2166.25
999.5016	2730.6142	3042.55	2143.5
999.6231	2731.8306	3020.2	2128.6
999.7446	2733.0462	3006.2	2114.2
999.8661	2734.2612	2979.2	2083.5
999.9875	2735.4756	2956.45	2061.45
1000.1089	2736.6892	2933.05	2040.45
1000.2302	2737.9022	2927.7	2037.45
1000.3515	2739.1145	2896.65	2003.9
1000.4728	2740.3262	2886.55	1985.15
1000.594	2741.5372	2872.9	1981.95
1000.7152	2742.7475	2842.75	1951.2
1000.8363	2743.9571	2833.65	1942.4
1000.9575	2745.1661	2815.9	1921.2
1001.0785	2746.3744	2810.5	1918.8
1001.1996	2747.582	2803.2	1912.45
1001.3206	2748.7889	2777.1	1882.25
1001.4415	2749.9952	2765.5	1876.45
1001.5625	2751.2008	2757.45	1867.25
1001.6833	2752.4057	2753.2	1860.75
1001.8042	2753.61	2736.25	1845.55
1001.925	2754.8136	2728	1836.95
1002.0458	2756.0165	2722.6	1831.4
1002.1665	2757.2188	2713.5	1823.4
1002.2872	2758.4204	2702.6	1811.35
1002.4078	2759.6213	2706.95	1812.35
1002.5285	2760.8215	2710.25	1816.75
1002.649	2762.0211	2692	1797.8
1002.7696	2763.22	2683.65	1790.55
1002.8901	2764.4182	2675.45	1782.5
1003.0106	2765.6158	2675.6	1786.05
1003.131	2766.8127	2665.35	1775.05
1003.2514	2768.009	2655.9	1765.45
1003.3717	2769.2045	2657.15	1766.55
1003.492	2770.3994	2647.1	1755.9
1003.6123	2771.5936	2638.35	1746.1
1003.7325	2772.7872	2629.1	1740.15
1003.8527	2773.9801	2621.65	1730.35
1003.9729	2775.1723	2628.75	1721.35
1004.093	2776.3639	2603.15	1715.5
1004.2131	2777.5548	2599	1707.55
1004.3331	2778.745	2602.05	1711.75
1004.4531	2779.9346	2606.5	1716.95
1004.5731	2781.1235	2592.2	1702.35
1004.693	2782.3117	2588.25	1700.7
1004.8129	2783.4992	2588.45	1699.4
1004.9328	2784.6861	2588.95	1698.55
1005.0526	2785.8723	2586.55	1695.45
1005.1723	2787.0579	2589.1	1698.7
1005.2921	2788.2428	2588.9	1701.4
1005.4118	2789.427	2585	1695
1005.5314	2790.6106	2577.95	1689.1
1005.651	2791.7935	2595.1	1705.8
1005.7706	2792.9757	2611.55	1724.05
1005.8902	2794.1573	2598.55	1707.5
1006.0097	2795.3382	2608	1717.5
1006.1291	2796.5184	2618	1732.4
1006.2485	2797.698	2630.9	1739.15
1006.3679	2798.8769	2642.5	1751.95
1006.4873	2800.0551	2654.95	1764.9
1006.6066	2801.2327	2672.15	1778.75
1006.7258	2802.4096	2674.9	1788.05
1006.8451	2803.5859	2687.6	1797.8
1006.9642	2804.7615	2712.5	1820.95
1007.0834	2805.9364	2712.9	1825.25
1007.2025	2807.1106	2733.65	1844.15
1007.3216	2808.2842	2768.6	1877.45
1007.4406	2809.4572	2797.95	1907.2
1007.5596	2810.6294	2824.9	1934.35
1007.6785	2811.801	2862.9	1975.6
1007.7975	2812.972	2881.4	1992.35
1007.9163	2814.1423	2926.6	2038.8
1008.0352	2815.3119	2976.5	2086.15
1008.154	2816.4808	3013.35	2125
1008.2727	2817.6491	3068.1	2179.35
1008.3914	2818.8167	3099.25	2210.65
1008.5101	2819.9837	3143.55	2249.8
1008.6288	2821.15	3164	2275.5
1008.7474	2822.3157	3210.2	2322.2
1008.8659	2823.4807	3248.5	2359.95
1008.9844	2824.645	3304.75	2414.85
1009.1029	2825.8086	3335.05	2447.5
1009.2214	2826.9716	3373.45	2488
1009.3398	2828.134	3403.4	2516.55
1009.4581	2829.2957	3440.25	2551.4
1009.5764	2830.4567	3463.4	2575.3
1009.6947	2831.617	3465.25	2577.15
1009.813	2832.7767	3483.15	2595.8
1009.9312	2833.9358	3475.9	2587.85
1010.0493	2835.0941	3469.45	2580
1010.1675	2836.2519	3450.5	2559.9
1010.2855	2837.4089	3444.25	2555.7
1010.4036	2838.5653	3430	2541.95
1010.5216	2839.7211	3417.05	2530.85
1010.6396	2840.8761	3427.25	2539.35
1010.7575	2842.0306	3448.65	2560.95
1010.8754	2843.1843	3493.05	2603.25
1010.9932	2844.3374	3531.4	2642.85
1011.111	2845.4899	3583.9	2695.7
1011.2288	2846.6417	3646.45	2757.4
1011.3465	2847.7928	3724.35	2836.95
1011.4642	2848.9433	3797.9	2907.3
1011.5818	2850.0931	3869.15	2983.35
1011.6995	2851.2422	3934.1	3043.5
1011.817	2852.3907	4002.75	3114.15
1011.9345	2853.5385	4054.75	3164.6
1012.052	2854.6857	4105.75	3209.7
1012.1695	2855.8323	4167.15	3280.05
1012.2869	2856.9781	4189.45	3301.95
1012.4042	2858.1233	4237.7	3350.5
1012.5216	2859.2679	4278.65	3392.15
1012.6389	2860.4118	4312.15	3424.65
1012.7561	2861.555	4356.8	3462.85
1012.8733	2862.6976	4375.6	3486.2
1012.9905	2863.8395	4394.45	3506.55
1013.1076	2864.9808	4406.15	3518.55
1013.2247	2866.1214	4419.35	3534.7
1013.3417	2867.2614	4446.65	3559.9
1013.4587	2868.4007	4434.9	3546.95
1013.5757	2869.5393	4463.1	3572.4
1013.6926	2870.6773	4461.7	3571.35
1013.8095	2871.8146	4468.55	3575.85
1013.9263	2872.9513	4451.2	3560.15
1014.0431	2874.0874	4460.05	3572.5
1014.1599	2875.2227	4439.95	3552.6
1014.2766	2876.3574	4433.1	3547.1
1014.3933	2877.4915	4391	3502.65
1014.51	2878.6249	4367.5	3482.3
1014.6266	2879.7577	4354.25	3464.2
1014.7431	2880.8898	4327.8	3428.2
1014.8596	2882.0212	4290.65	3402.85
1014.9761	2883.152	4282.55	3394.05
1015.0925	2884.2821	4272.45	3386.8
1015.2089	2885.4116	4259.6	3374.05
1015.3253	2886.5405	4248.7	3362.55
1015.4416	2887.6686	4261.65	3373.9
1015.5579	2888.7962	4254.85	3367.95
1015.6741	2889.923	4258.35	3374.8
1015.7903	2891.0493	4272.7	3387.55
1015.9065	2892.1748	4270.4	3382.55
1016.0226	2893.2997	4292	3405.35
1016.1387	2894.424	4297.5	3411.3
1016.2547	2895.5476	4313.55	3426.4
1016.3707	2896.6706	4334.75	3449.9
1016.4866	2897.7929	4341.15	3452.85
1016.6025	2898.9145	4364.7	3479.2
1016.7184	2900.0355	4406.15	3518.6
1016.8342	2901.1559	4438.55	3550.95
1016.95	2902.2756	4457.9	3570.5
1017.0658	2903.3946	4482	3596.25
1017.1815	2904.513	4497.05	3608.05
1017.2971	2905.6308	4525.9	3640.45
1017.4127	2906.7479	4546.1	3657.55
1017.5283	2907.8643	4556.65	3668.6
1017.6439	2908.9801	4561.2	3672.25
1017.7594	2910.0953	4568.1	3682.9
1017.8748	2911.2098	4568.35	3677.85
1017.9902	2912.3236	4565	3672.9
1018.1056	2913.4368	4552.55	3663.75
1018.2209	2914.5494	4516.25	3629.65
1018.3362	2915.6613	4500.35	3608.3
1018.4515	2916.7725	4462.05	3572.2
1018.5667	2917.8831	4431.15	3543.3
1018.6819	2918.9931	4413.6	3524.5
1018.797	2920.1024	4379.3	3491.4
1018.9121	2921.211	4351.3	3466.55
1019.0271	2922.319	4336.35	3451.15
1019.1421	2923.4264	4309.1	3421.6
1019.2571	2924.5331	4297.85	3412.75
1019.372	2925.6391	4275.4	3388.6
1019.4869	2926.7445	4276.75	3392.2
1019.6017	2927.8493	4269.3	3381.6
1019.7165	2928.9534	4243.75	3357.25
1019.8313	2930.0569	4219.15	3329.35
1019.946	2931.1597	4231.9	3345.15
1020.0606	2932.2619	4215.55	3327.85
1020.1753	2933.3634	4204	3317.3
1020.2899	2934.4643	4216.5	3324.75
1020.4044	2935.5645	4166.8	3276.1
1020.5189	2936.6641	4148.45	3257.9
1020.6334	2937.763	4095.95	3211.05
1020.7478	2938.8613	4033.3	3147.2
1020.8622	2939.959	3995.95	3104.1
1020.9765	2941.056	3913.65	3029.05
1021.0908	2942.1523	3824.3	2937.4
1021.2051	2943.248	3752.1	2866.25
1021.3193	2944.3431	3646.85	2760.6
1021.4334	2945.4375	3561.3	2676.3
1021.5476	2946.5313	3465.1	2582.6
1021.6617	2947.6244	3361.15	2474.25
1021.7757	2948.7169	3258.3	2371.4
1021.8897	2949.8087	3158.5	2271
1022.0037	2950.8999	3084.75	2197.15
1022.1176	2951.9904	2984.05	2100
1022.2315	2953.0803	2922.05	2036.6
1022.3453	2954.1696	2854.95	1969.6
1022.4591	2955.2582	2812.5	1927.7
1022.5728	2956.3462	2763.95	1878.5
1022.6865	2957.4335	2709.4	1823.45
1022.8002	2958.5202	2680.65	1791.6
1022.9138	2959.6062	2649.95	1762.9
1023.0274	2960.6916	2631.55	1746.85
1023.141	2961.7764	2610.25	1722.7
1023.2545	2962.8605	2595.7	1711.3
1023.3679	2963.9439	2571.25	1684.6
1023.4813	2965.0267	2563.6	1676.8
1023.5947	2966.1089	2566.55	1658.6
1023.708	2967.1905	2541.15	1655.4
1023.8213	2968.2714	2538.85	1655.15
1023.9346	2969.3516	2535.3	1649.2
1024.0478	2970.4312	2546.1	1650.95
1024.1609	2971.5102	2533.45	1649.1
1024.274	2972.5885	2524.4	1639
1024.3871	2973.6662	2530.7	1640.55
1024.5002	2974.7432	2516.3	1633.35
1024.6132	2975.8196	2512.35	1628
1024.7261	2976.8954	2495.25	1612.2
1024.839	2977.9705	2487.15	1602.95
1024.9519	2979.045	2459.75	1577.05
1025.0647	2980.1188	2440.2	1557.8
1025.1775	2981.192	2433.1	1547.55
1025.2902	2982.2645	2406.6	1521.05
1025.4029	2983.3364	2385.35	1500.4
1025.5156	2984.4077	2361.3	1476.4
1025.6282	2985.4783	2322.95	1431.9
1025.7407	2986.5483	2283.95	1399
1025.8532	2987.6177	2260.65	1377.65
1025.9657	2988.6864	2225	1341.1
1026.0782	2989.7545	2196.65	1310.15
1026.1906	2990.8219	2148	1263.25
1026.3029	2991.8887	2127.5	1238.75
1026.4152	2992.9548	2087.5	1202.2
1026.5275	2994.0204	2048.8	1163.8
1026.6397	2995.0852	2029.8	1145.75
1026.7519	2996.1495	1997.65	1111.25
1026.864	2997.2131	1986.9	1101.85
1026.9761	2998.276	1961.75	1076.85
1027.0882	2999.3383	1933	1045.8
1027.2002	3000.4	1922.5	1034.85
1027.3122	3001.4611	1904.9	1020.65
1027.4241	3002.5215	1885.1	999.4
1027.536	3003.5812	1868.35	984.9
1027.6478	3004.6404	1859.55	975.05
1027.7596	3005.6989	1850.35	962.5
1027.8714	3006.7567	1838.6	954.9
1027.9831	3007.8139	1848.1	943.65
1028.0947	3008.8705	1815.6	928.15
1028.2064	3009.9264	1830.2	928.45
1028.3179	3010.9818	1804.35	919.75
1028.4295	3012.0364	1799.15	914
1028.541	3013.0905	1801.7	915.65
1028.6524	3014.1439	1795.8	913.25
1028.7638	3015.1966	1784.6	899.9
1028.8752	3016.2487	1776.5	889.85
1028.9865	3017.3002	1792.2	901
1029.0978	3018.3511	1779.05	895.1
1029.209	3019.4013	1779.7	895.45
1029.3202	3020.4509	1777.1	892.65
1029.4314	3021.4998	1779.3	893.95
1029.5425	3022.5481	1782.65	897
1029.6535	3023.5958	1767.85	883.9
1029.7645	3024.6428	1781.15	896.65
1029.8755	3025.6892	1778.75	895.9
1029.9864	3026.735	1772.85	887.8
1030.0973	3027.7802	1778.45	894.3
1030.2082	3028.8247	1772.9	888.35
1030.319	3029.8685	1774.5	889.45
1030.4297	3030.9118	1774.45	891.3
1030.5404	3031.9544	1781.05	898.2
1030.6511	3032.9963	1770.6	885.75
1030.7617	3034.0376	1782.15	897.55
1030.8723	3035.0783	1781.2	893.3
1030.9829	3036.1184	1778.1	893.7
1031.0934	3037.1578	1782.1	899.4
1031.2038	3038.1966	1787.95	902.4
1031.3142	3039.2348	1783.4	902.1
1031.4246	3040.2723	1790.85	896.75
1031.5349	3041.3092	1782.4	902.2
1031.6452	3042.3455	1778.55	894.85
1031.7554	3043.3811	1773.2	889.85
1031.8656	3044.4161	1762.05	875.65
1031.9758	3045.4505	1753.15	869.8
1032.0859	3046.4842	1754.15	868.1
1032.1959	3047.5173	1735.85	852.7
1032.3059	3048.5498	1737.85	852.3
1032.4159	3049.5816	1724.35	839.7
1032.5258	3050.6128	1725.95	842.35
1032.6357	3051.6434	1712.95	828.55
1032.7455	3052.6734	1705.6	821.8
1032.8553	3053.7027	1696.7	813.65
1032.9651	3054.7314	1692.4	808.55
1033.0748	3055.7594	1686.6	802.2
1033.1845	3056.7868	1678.2	794.05
1033.2941	3057.8136	1669.05	784.35
1033.4037	3058.8398	1650.2	767.25
1033.5132	3059.8653	1658.25	774.6
1033.6227	3060.8902	1652.4	767.6
1033.7321	3061.9145	1638.05	753.5
1033.8415	3062.9381	1633.85	749.55
1033.9509	3063.9612	1646.35	745.95
1034.0602	3064.9835	1631.2	747.35
1034.1694	3066.0053	1613	728.15
1034.2787	3067.0264	1609.5	725.9
1034.3878	3068.0469	1597.55	713.7
1034.497	3069.0668	1590.55	704.75
1034.6061	3070.086	1576.65	693.8
1034.7151	3071.1046	1575.15	691.65
1034.8241	3072.1226	1564.25	680
1034.9331	3073.1399	1545.1	661.2
1035.042	3074.1567	1541.25	657.45
1035.1508	3075.1727	1527.45	640.7
1035.2597	3076.1882	1521.4	638.95
1035.3684	3077.203	1506.15	623.5
1035.4772	3078.2173	1512.95	625.55
1035.5859	3079.2308	1497.35	610.05
1035.6945	3080.2438	1488.85	603.5
1035.8031	3081.2561	1475.7	591.55
1035.9117	3082.2678	1470.15	588.45
1036.0202	3083.2789	1455.15	571.25
1036.1286	3084.2893	1453.25	568.3
1036.2371	3085.2991	1449.7	564.3
1036.3454	3086.3083	1445.45	557.65
1036.4538	3087.3169	1436.65	553.15
1036.562	3088.3248	1426.85	540.95
1036.6703	3089.3321	1426.05	542.3
1036.7785	3090.3388	1418.75	535.2
1036.8866	3091.3449	1411.65	528.7
1036.9948	3092.3503	1404.95	520.3
1037.1028	3093.3551	1406.8	526.2
1037.2108	3094.3593	1396.4	514.4
1037.3188	3095.3629	1383.45	499.8
1037.4267	3096.3658	1388.05	503.95
1037.5346	3097.3681	1387.85	505.15
1037.6425	3098.3698	1380.55	495.7
1037.7503	3099.3708	1383.3	492.75
1037.858	3100.3713	1368.3	484.35
1037.9657	3101.3711	1367.45	484.35
1038.0734	3102.3702	1498.5	480.9
1038.181	3103.3688	1364.9	479.35
1038.2886	3104.3667	1357.85	475.4
1038.3961	3105.364	1355.35	473.9
1038.5036	3106.3607	1351.3	465.25
1038.611	3107.3568	1350.85	466.85
1038.7184	3108.3522	1340.4	458.55
1038.8257	3109.347	1339.25	455.75
1038.933	3110.3412	1337.65	451.75
1039.0403	3111.3348	1340.6	459.45
1039.1475	3112.3277	1334.1	450.35
1039.2547	3113.32	1328.4	446
1039.3618	3114.3117	1328	444.3
1039.4689	3115.3028	1318.6	436.9
1039.5759	3116.2932	1315.65	430.5
1039.6829	3117.2831	1319.05	431.2
1039.7898	3118.2723	1307.8	425.05
1039.8967	3119.2608	1311.75	430.35
1040.0035	3120.2488	1311.5	428.7
1040.1103	3121.2361	1302.2	419.15
1040.2171	3122.2229	1300.85	418.65
1040.3238	3123.209	1307	422
1040.4305	3124.1944	1297.75	413.85
1040.5371	3125.1793	1294.3	409.45
1040.6437	3126.1635	1298.05	417.3
1040.7502	3127.1471	1284.45	403
1040.8567	3128.1301	1285.85	404.4
1040.9631	3129.1125	1283.75	401.8
1041.0695	3130.0942	1286.7	403.3
1041.1759	3131.0753	1288.8	396.15
1041.2822	3132.0558	1284.95	399.8
1041.3884	3133.0357	1276.35	395.9
1041.4946	3134.015	1276.05	392.85
1041.6008	3134.9936	1276.05	390.05
1041.7069	3135.9716	1289.7	385.7
1041.813	3136.949	1270.35	387.35
1041.919	3137.9258	1283.3	384
1042.025	3138.902	1272.1	381.5
1042.1309	3139.8775	1258.25	378.65
1042.2368	3140.8524	1258.05	375.8
1042.3427	3141.8267	1256.05	374.4
1042.4485	3142.8004	1255.2	373.1
1042.5542	3143.7735	1258.9	370.35
1042.6599	3144.7459	1252.2	368.2
1042.7656	3145.7178	1249.95	366.7
1042.8712	3146.689	1249.65	369.9
1042.9768	3147.6596	1242.7	359.9
1043.0823	3148.6295	1243.25	359.8
1043.1878	3149.5989	1242.2	360.05
1043.2932	3150.5676	1239.55	358.6
1043.3986	3151.5357	1232.1	350
1043.5039	3152.5032	1227.7	345.8
1043.6092	3153.4701	1228.2	345.1
1043.7145	3154.4364	1228.9	345.1
1043.8197	3155.402	1222.05	340.55
1043.9248	3156.367	1224.3	339
1044.03	3157.3315	1265.85	341.15
1044.135	3158.2952	1222.75	339.5
1044.24	3159.2584	1225.2	342.75
1044.345	3160.221	1217.05	332.7
1044.4499	3161.1829	1212.2	328.15
1044.5548	3162.1442	1211.05	328.1
1044.6596	3163.105	1207.35	324.15
1044.7644	3164.065	1208.7	326
1044.8692	3165.0245	1211.3	328.1
1044.9739	3165.9834	1203	320.7
1045.0785	3166.9416	1201.1	318.95
1045.1831	3167.8993	1193.55	310.65
1045.2877	3168.8563	1196.7	312.6
1045.3922	3169.8127	1193.7	313.15
1045.4966	3170.7684	1195.35	313.2
1045.6011	3171.7236	1193.25	310.95
1045.7054	3172.6782	1195.15	310.1
1045.8098	3173.6321	1192.3	309.75
1045.914	3174.5854	1186.15	301.8
1046.0183	3175.5381	1184.45	302.55
1046.1224	3176.4902	1184.85	305.55
1046.2266	3177.4417	1178.85	296.15
1046.3307	3178.3926	1182.35	300.6
1046.4347	3179.3428	1175.15	293.7
1046.5387	3180.2924	1180.15	299.95
1046.6427	3181.2415	1174.5	292.25
1046.7466	3182.1899	1175.5	293.05
1046.8504	3183.1377	1170.75	288.55
1046.9542	3184.0848	1180.95	296.35
1047.058	3185.0314	1173.1	291.3
1047.1617	3185.9773	1164.8	282.85
1047.2654	3186.9227	1160.9	276.35
1047.369	3187.8674	1163.7	279.35
1047.4726	3188.8115	1162.85	277.8
1047.5761	3189.755	1164.55	283.35
1047.6796	3190.6979	1159.5	278.1
1047.783	3191.6402	1159.5	278.75
1047.8864	3192.5818	1155.05	271.65
1047.9898	3193.5229	1161.25	273.05
1048.0931	3194.4633	1151.7	268.45
1048.1963	3195.4031	1154.9	272.95
1048.2995	3196.3423	1153.55	271.6
1048.4027	3197.2809	1151	268.3
1048.5058	3198.2189	1153.05	269.4
1048.6089	3199.1563	1148.65	259.3
1048.7119	3200.0931	1147.05	264.15
1048.8148	3201.0292	1139.8	258.9
1048.9178	3201.9648	1143.1	259.9
1049.0206	3202.8997	1143.15	260.2
1049.1235	3203.834	1134.05	251.95
1049.2262	3204.7677	1132.7	250.1
1049.329	3205.7008	1136.45	253.45
1049.4317	3206.6333	1134.7	255.15
1049.5343	3207.5652	1133.7	249.05
1049.6369	3208.4964	1133.15	251.15
1049.7394	3209.4271	1137.1	256.7
1049.8419	3210.3571	1126.9	246.6
1049.9444	3211.2865	1130.9	249.4
1050.0468	3212.2154	1128.35	245.05
1050.1491	3213.1436	1129.9	245.5
1050.2514	3214.0712	1130.95	242.85
1050.3537	3214.9982	1121.4	242.25
1050.4559	3215.9246	1124.55	240.55
1050.5581	3216.8503	1117.15	236.8
1050.6602	3217.7755	1122.3	240.5
1050.7623	3218.7001	1120.7	239.25
1050.8643	3219.624	1121.75	241
1050.9663	3220.5473	1116.05	236.25
1051.0682	3221.4701	1117.75	233.75
1051.1701	3222.3922	1116.55	234.15
1051.2719	3223.3137	1108.75	226.75
1051.3737	3224.2346	1113.6	231.7
1051.4754	3225.1549	1108.7	227
1051.5771	3226.0746	1107.8	226.15
1051.6788	3226.9937	1102.6	219.45
1051.7804	3227.9121	1102.7	220.6
1051.8819	3228.83	1108.4	226.1
1051.9834	3229.7473	1100.35	218.45
1052.0849	3230.6639	1107.55	226
1052.1863	3231.5799	1101.2	220.55
1052.2876	3232.4954	1096.8	215.1
1052.3889	3233.4102	1102.25	222.3
1052.4902	3234.3244	1102	220.4
1052.5914	3235.238	1100.8	220.7
1052.6926	3236.151	1119.8	211.8
1052.7937	3237.0634	1096.3	215.7
1052.8948	3237.9752	1091.4	209.45
1052.9958	3238.8864	1093	212.25
1053.0968	3239.797	1094.4	211.75
1053.1977	3240.7069	1091.9	209.9
1053.2986	3241.6163	1086.35	203.15
1053.3994	3242.5251	1085.9	205.3
1053.5002	3243.4332	1080	200.4
1053.6009	3244.3408	1086.1	204.65
1053.7016	3245.2477	1085.95	205.15
1053.8022	3246.154	1084.75	201.25
1053.9028	3247.0598	1083.45	201.8
1054.0034	3247.9649	1082.4	200.8
1054.1039	3248.8694	1079.35	195.1
1054.2043	3249.7733	1076.3	194.3
1054.3047	3250.6766	1077.55	195.75
1054.4051	3251.5793	1074.4	192.55
1054.5054	3252.4814	1073.6	193.4
1054.6056	3253.3829	1070.1	187
1054.7058	3254.2838	1069.9	189.35
1054.806	3255.1841	1072.3	191.9
1054.9061	3256.0838	1066.15	186.25
1055.0061	3256.9829	1066.95	187.55
1055.1062	3257.8814	1068.7	184.65
1055.2061	3258.7792	1065.25	181.2
1055.306	3259.6765	1059.25	176.55
1055.4059	3260.5731	1056.3	174.15
1055.5057	3261.4692	1056.85	175.9
1055.6055	3262.3647	1057.2	175.2
1055.7052	3263.2595	1049.3	169.25
1055.8049	3264.1538	1046.9	165.1
1055.9045	3265.0474	1049.55	166.9
1056.0041	3265.9404	1044.9	165.15
1056.1036	3266.8329	1038.75	157.35
1056.2031	3267.7247	1046.1	153.7
1056.3025	3268.616	1032.8	151.35
1056.4019	3269.5066	1032.65	150.6
1056.5013	3270.3966	1028.85	143.95
1056.6005	3271.286	1022	142.9
