Software Version:	3.9.2.0
Unit SN:	10000200
Spectrometer SN:	6960
Date:	3/26/2024 2:03:22 PM
Data Line Index:	25
Spectral Points:	2048
Integration time (ms):	125
Averages:	20
Delay (ms):	30000
Sequence Number:	1
Processing:	dark subtract
Laser Power (mW):	300
Laser Current (mA):	820
Laser Diode Temp (C):	25
Laser Case Temp (C):	27.4
System Temp (C):	27.4
Spectrometer Temp (C):	25.3
CCD Temp (C):	-0.002
Secondary Temp (C):	20.013
Heatsink Temp (C):	22.869
CCDPCB Temp (C):	36.974
SecondaryPCB Temp (C):	34.462

Wavelength	RamanShift	Raw Counts	Dark Subtracted
787.061	30.1047	633.55	225.1
787.2016	32.3739	644.55	237.8
787.3422	34.6426	657.15	249.85
787.4828	36.9109	677.9	266.05
787.6235	39.1787	697.35	283.05
787.7642	41.4461	720.95	302.3
787.9049	43.7131	743.9	321.9
788.0456	45.9796	764.3	339.2
788.1863	48.2456	794.65	361.1
788.3271	50.5112	820	384.65
788.4679	52.7764	846.85	409.4
788.6087	55.0411	865.85	425.2
788.7496	57.3054	905.45	462.85
788.8904	59.5692	938.4	490.75
789.0313	61.8326	972.15	520.85
789.1722	64.0955	1011.9	554.65
789.3132	66.3579	1058.85	595.95
789.4541	68.6199	1116.9	653.95
789.5951	70.8815	1210.3	743.7
789.7361	73.1426	1400.65	929.7
789.8771	75.4032	1878.5	1400.75
790.0181	77.6634	3102.5	2619.55
790.1592	79.9231	6146.7	5652.3
790.3003	82.1824	13160.1	12645.95
790.4414	84.4412	28971.85	28425.45
790.5825	86.6995	55126	54532.7
790.7237	88.9574	64016.2	63371.2
790.8648	91.2148	65244.5	64569.25
791.006	93.4717	65426.4	64730
791.1472	95.7282	65487.3	64778.8
791.2885	97.9842	65522.9	64808.1
791.4297	100.2398	65498.45	64784.55
791.571	102.4949	65508.9	64790.15
791.7123	104.7495	65495.8	64775.45
791.8536	107.0036	65486.55	64761.5
791.9949	109.2573	65503.25	64780.8
792.1363	111.5105	65478.7	64752.9
792.2777	113.7632	65469.85	64745.65
792.4191	116.0154	65482.65	64746.95
792.5605	118.2672	65491.35	64757.35
792.7019	120.5185	65491.3	64767.15
792.8434	122.7693	65491.15	64760.95
792.9849	125.0197	65434.15	64694.85
793.1264	127.2696	65521.05	64783.05
793.2679	129.519	65506.3	64758.85
793.4094	131.7679	65521.45	64774.1
793.551	134.0163	65464.3	64715.5
793.6926	136.2642	65489.75	64741.2
793.8342	138.5117	65519	64757.2
793.9758	140.7587	65515.25	64756.6
794.1175	143.0052	65508.95	64744.4
794.2591	145.2512	65461.55	64698.6
794.4008	147.4967	65511.55	64750.15
794.5425	149.7417	65506.75	64742.3
794.6842	151.9863	65482.95	64718
794.826	154.2304	65465.55	64694
794.9677	156.4739	65475.75	64698.55
795.1095	158.717	65514.95	64735.65
795.2513	160.9596	65493.3	64709.75
795.3931	163.2017	65445.4	64666.25
795.535	165.4433	65483.25	64700.3
795.6768	167.6844	65453.55	64669.4
795.8187	169.925	65476.25	64688.85
795.9606	172.1651	65433.05	64647.25
796.1025	174.4047	65461.2	64676.4
796.2445	176.6439	65437	64644.7
796.3864	178.8825	65413	64620.05
796.5284	181.1206	65475.6	64675.9
796.6704	183.3582	65464.9	64662.1
796.8124	185.5954	65446.2	64637.5
796.9544	187.832	65443.25	64632.75
797.0965	190.0681	65405.4	64593.3
797.2386	192.3037	65458.4	64640.65
797.3806	194.5388	65518.05	64696.9
797.5228	196.7734	65359.25	64534.25
797.6649	199.0075	65513.65	64680.05
797.807	201.2411	65453.9	64622.2
797.9492	203.4742	65521.6	64690.15
798.0914	205.7068	65513.2	64682.75
798.2336	207.9389	65505.9	64671.5
798.3758	210.1704	65497.1	64663.9
798.518	212.4015	65526.8	64687.95
798.6603	214.632	65508.95	64674.35
798.8025	216.862	65530.7	64699.75
798.9448	219.0915	65514.1	64692.05
799.0871	221.3205	65517.6	64698.55
799.2294	223.549	65533.55	64721.05
799.3718	225.777	65532.4	64714.15
799.5141	228.0044	65535	64720.9
799.6565	230.2314	65535	64723.1
799.7989	232.4578	65535	64720.8
799.9413	234.6837	65535	64717.55
800.0837	236.909	65535	64714.15
800.2262	239.1339	65526.95	64677.15
800.3687	241.3582	65535	64704.85
800.5111	243.582	65535	64671.9
800.6536	245.8053	65535	64683.65
800.7961	248.0281	65535	64689.95
800.9387	250.2503	65535	64682.15
801.0812	252.472	65530.55	64671.25
801.2238	254.6932	65535	64679.15
801.3664	256.9139	65532.3	64672.4
801.509	259.134	65535	64670.1
801.6516	261.3536	65530.8	64666.6
801.7942	263.5727	65535	64665.15
801.9369	265.7912	65534.9	64671.3
802.0795	268.0092	65535	64675.5
802.2222	270.2267	65535	64665.9
802.3649	272.4436	65528.1	64660.15
802.5076	274.6601	65535	64665.05
802.6504	276.8759	65535	64668.65
802.7931	279.0913	65534.45	64663.75
802.9359	281.3061	65535	64665.05
803.0787	283.5204	65535	64660.65
803.2215	285.7341	65535	64654.7
803.3643	287.9473	65535	64646.65
803.5071	290.16	65535	64653.5
803.6499	292.3721	65535	64658.55
803.7928	294.5837	65535	64656.75
803.9357	296.7947	65535	64652.45
804.0786	299.0052	65535	64656.5
804.2215	301.2152	65535	64656.9
804.3644	303.4246	65535	64657.7
804.5074	305.6334	65535	64660.8
804.6503	307.8418	65535	64657.6
804.7933	310.0495	65527.45	64646.3
804.9363	312.2568	65531.9	64649.65
805.0793	314.4635	65531.7	64647
805.2223	316.6696	65535	64649.75
805.3653	318.8752	65535	64636.8
805.5084	321.0802	65514.8	64628.3
805.6514	323.2847	65532.4	64640.05
805.7945	325.4887	65528	64639.4
805.9376	327.692	65523.05	64629.7
806.0807	329.8949	65529.35	64635.85
806.2238	332.0972	65522.2	64629.25
806.367	334.2989	65528.1	64628
806.5101	336.5001	65534.35	64636.9
806.6533	338.7007	65502.5	64600.85
806.7965	340.9008	65524.3	64629.3
806.9397	343.1003	65524.95	64620.15
807.0829	345.2992	65531.1	64631.45
807.2261	347.4976	65518.8	64615.4
807.3693	349.6955	65527.3	64620.95
807.5126	351.8927	65511.9	64609.5
807.6559	354.0895	65526.95	64615.55
807.7991	356.2856	65528.5	64620.05
807.9424	358.4812	65534.5	64628.35
808.0857	360.6763	65510.65	64600.75
808.2291	362.8707	65535	64625.55
808.3724	365.0646	65522.8	64618.15
808.5158	367.258	65526.15	64616.05
808.6591	369.4508	65498.6	64584.6
808.8025	371.643	65531.05	64615.2
808.9459	373.8346	65519.8	64602.65
809.0893	376.0257	65525.15	64606.45
809.2327	378.2162	65522.8	64600.25
809.3762	380.4062	65473.95	64552.4
809.5196	382.5956	65520.35	64600.25
809.6631	384.7844	65515.85	64596.75
809.8066	386.9726	65523.75	64601.55
809.9501	389.1603	65520	64601.25
810.0936	391.3474	65493.05	64537.95
810.2371	393.5339	65517.4	64596.2
810.3806	395.7199	65469.05	64551.45
810.5241	397.9052	65476.1	64562.2
810.6677	400.09	65490.55	64579.2
810.8113	402.2743	65523.85	64610.25
810.9548	404.4579	65472.2	64564.1
811.0984	406.641	65486.45	64577.45
811.2421	408.8235	65495.2	64588.25
811.3857	411.0054	65517	64611.05
811.5293	413.1868	65523.85	64610.9
811.673	415.3675	65509.35	64593.3
811.8166	417.5477	65515.9	64602.75
811.9603	419.7273	65519	64601.45
812.104	421.9064	65517.7	64589.8
812.2477	424.0848	65515.1	64595.65
812.3914	426.2627	65525.15	64602.85
812.5351	428.4399	65484.4	64559.25
812.6788	430.6166	65424.95	64496.25
812.8226	432.7928	65494.75	64565.85
812.9663	434.9683	65443.15	64519.15
813.1101	437.1432	65426.55	64502.6
813.2539	439.3176	65475.8	64558.6
813.3977	441.4914	65396.15	64477.65
813.5415	443.6645	65412.45	64489.9
813.6853	445.8371	65428.2	64504.35
813.8291	448.0091	65391	64467.45
813.973	450.1806	65366.75	64441.75
814.1168	452.3514	65397.85	64478.9
814.2607	454.5216	65332.75	64402.35
814.4046	456.6913	65401.3	64474.8
814.5485	458.8603	65420.25	64497.2
814.6924	461.0288	65347.2	64432.4
814.8363	463.1967	65412.8	64497.05
814.9802	465.3639	65390.5	64467.05
815.1241	467.5306	65264.8	64342
815.2681	469.6967	65371.4	64454.65
815.412	471.8622	65419.45	64498.5
815.556	474.0271	65366.7	64444.45
815.7	476.1914	65385.15	64457.75
815.844	478.3551	65380.8	64453.2
815.988	480.5182	65455.5	64534.7
816.132	482.6807	65346.9	64437.9
816.276	484.8426	65358.25	64453.95
816.4201	487.0039	65436.4	64522.85
816.5641	489.1647	65439.5	64514.7
816.7082	491.3248	65354.7	64427.75
816.8522	493.4843	65454.2	64536.3
816.9963	495.6432	65454.75	64536.2
817.1404	497.8015	65373.15	64439.15
817.2845	499.9592	65429.25	64491.35
817.4286	502.1163	65409.25	64470.5
817.5727	504.2728	65407.25	64478.85
817.7168	506.4287	65383.55	64470.5
817.861	508.5839	65341.7	64424.1
818.0051	510.7386	65377.75	64459
818.1493	512.8927	65375.2	64441.75
818.2935	515.0461	65355.2	64423.25
818.4377	517.199	65399	64467.5
818.5818	519.3512	65322.15	64385.25
818.726	521.5029	65347.8	64412.7
818.8703	523.6539	65361.35	64435
819.0145	525.8043	65261.15	64328.5
819.1587	527.9541	65344.95	64406.75
819.303	530.1033	65343.5	64410
819.4472	532.2519	65307.35	64376.85
819.5915	534.3999	65376.4	64439.8
819.7357	536.5472	65409.2	64480.75
819.88	538.694	65311.95	64387
820.0243	540.8401	65380.55	64448.3
820.1686	542.9856	65398.65	64457.25
820.3129	545.1305	65438.3	64488.65
820.4572	547.2748	65366.95	64414.05
820.6016	549.4185	65360.85	64405.4
820.7459	551.5615	65412	64457.9
820.8902	553.704	65378.9	64430.6
821.0346	555.8458	65340	64395
821.1789	557.987	65363.45	64419.25
821.3233	560.1276	65374.2	64429.55
821.4677	562.2675	65339.15	64392.3
821.6121	564.4069	65352.7	64402
821.7565	566.5456	65382.75	64441.15
821.9009	568.6837	65293.15	64348.65
822.0453	570.8212	65342.8	64402.15
822.1897	572.958	65192	64250.65
822.3342	575.0942	65306.45	64369.2
822.4786	577.2299	65233.6	64299.55
822.6231	579.3648	65215.25	64295.75
822.7675	581.4992	65211.5	64299.45
822.912	583.6329	65198.25	64282.3
823.0565	585.766	65212.9	64296.95
823.201	587.8985	65249.9	64325.9
823.3454	590.0304	65125.3	64180.3
823.4899	592.1616	65233.8	64291.55
823.6345	594.2922	65171.95	64227.1
823.779	596.4222	65093.5	64147.4
823.9235	598.5515	65101.45	64153.1
824.068	600.6802	65175.45	64227.55
824.2126	602.8083	65066.95	64124
824.3571	604.9358	65050.25	64102.9
824.5017	607.0626	65143.35	64195.75
824.6462	609.1888	65000.55	64045.6
824.7908	611.3144	65068.65	64116.3
824.9354	613.4393	65025.05	64073.05
825.08	615.5636	64956.9	64005.3
825.2246	617.6873	65019.15	64063.4
825.3692	619.8103	64932	63981.25
825.5138	621.9327	65049.55	64096.8
825.6584	624.0544	65042.35	64097.8
825.803	626.1756	64981.65	64039.65
825.9477	628.2961	64995.15	64045.5
826.0923	630.4159	64950.5	64001.95
826.237	632.5351	64912.35	63959.4
826.3816	634.6537	65072.55	64116.7
826.5263	636.7716	64891.8	63935.9
826.6709	638.8889	64942.95	63979.8
826.8156	641.0056	64928.75	63970.15
826.9603	643.1216	64964.5	64006.55
827.105	645.237	64996.9	64045
827.2497	647.3518	64905.3	63953.25
827.3944	649.4659	64933.7	63991.55
827.5391	651.5793	64941.8	64002.05
827.6838	653.6922	64958.85	64010.9
827.8285	655.8043	64852.55	63905.1
827.9733	657.9159	65002.95	64052.85
828.118	660.0268	64703.85	63752.55
828.2627	662.137	64861.9	63909.55
828.4075	664.2466	64909.45	63947.2
828.5522	666.3556	64854.2	63897.4
828.697	668.4639	64892.55	63944.5
828.8418	670.5716	64825.85	63885
828.9865	672.6786	64885.25	63929.15
829.1313	674.785	64790.45	63827.95
829.2761	676.8907	64807.35	63856.7
829.4209	678.9958	64842.65	63894.65
829.5657	681.1002	64861.05	63910
829.7105	683.204	64766.35	63809.75
829.8553	685.3072	64702.95	63737.65
830.0001	687.4097	64757.6	63801.5
830.1449	689.5115	64690.2	63732.3
830.2898	691.6127	64806.1	63850.15
830.4346	693.7132	64704.6	63757.35
830.5794	695.8131	64709.15	63729.8
830.7243	697.9123	64731.15	63771.75
830.8691	700.0109	64747.95	63788.5
831.014	702.1089	64597.85	63639.4
831.1588	704.2061	64661.95	63704.85
831.3037	706.3028	64656.75	63695.75
831.4486	708.3987	64679.75	63717.1
831.5935	710.4941	64645.5	63690.9
831.7383	712.5887	64719.4	63763.35
831.8832	714.6827	64681.35	63719.85
832.0281	716.7761	64761.2	63804.6
832.173	718.8688	64783.1	63826.2
832.3179	720.9608	64704.55	63739.85
832.4628	723.0522	64713.15	63742
832.6077	725.1429	64615.65	63651.85
832.7527	727.233	64820.2	63860.6
832.8976	729.3224	64484.9	63525.4
833.0425	731.4112	64571.5	63607.45
833.1874	733.4993	64578.2	63616.45
833.3324	735.5867	64559.15	63597
833.4773	737.6735	64467.15	63500.15
833.6222	739.7596	64398	63440.5
833.7672	741.845	64420	63458.65
833.9122	743.9298	64494.4	63529.3
834.0571	746.014	64395.15	63432.75
834.2021	748.0974	64334.05	63367.2
834.347	750.1802	64481.85	63511.05
834.492	752.2624	64301.7	63335.75
834.637	754.3439	64313.35	63344.45
834.782	756.4247	64341.35	63371.7
834.9269	758.5048	64290.6	63325.75
835.0719	760.5843	64313.5	63347.85
835.2169	762.6631	64341.5	63378.45
835.3619	764.7413	64329.3	63362.45
835.5069	766.8188	64378	63410.75
835.6519	768.8956	64418.6	63449.6
835.7969	770.9718	64408.95	63444.95
835.9419	773.0473	64365.55	63401.7
836.0869	775.1221	64276.25	63314.15
836.232	777.1962	64229.15	63264.45
836.377	779.2697	64160.4	63195.25
836.522	781.3426	64206.6	63217.25
836.667	783.4147	64222.35	63251.8
836.8121	785.4862	64226.2	63264
836.9571	787.557	64163.7	63193.7
837.1021	789.6271	64198.35	63230.2
837.2472	791.6966	64119.95	63152.3
837.3922	793.7654	64015.75	63045.55
837.5373	795.8335	63989.8	63024.45
837.6823	797.901	63990.05	63026.3
837.8274	799.9678	63954.55	62982.65
837.9724	802.0339	63932.5	62959.8
838.1175	804.0993	63952.1	62968
838.2626	806.1641	63909.45	62940.25
838.4076	808.2282	63864	62897.15
838.5527	810.2916	63847.3	62881.35
838.6978	812.3544	63889	62921.5
838.8428	814.4164	63787.35	62822.2
838.9879	816.4778	63801.95	62832.7
839.133	818.5385	63784.55	62809.55
839.2781	820.5986	63775.4	62806.5
839.4232	822.658	63779.6	62809.7
839.5682	824.7166	63809.3	62839.3
839.7133	826.7747	63725.95	62755.1
839.8584	828.832	63774.9	62804.6
840.0035	830.8886	63819.8	62845.45
840.1486	832.9446	63807.35	62832.9
840.2937	834.9999	63587.5	62618.35
840.4388	837.0545	63712.25	62738.75
840.5839	839.1085	63760.15	62787.55
840.729	841.1618	63714.75	62740.2
840.8741	843.2143	63529.9	62561.75
841.0192	845.2662	63494.65	62523.75
841.1643	847.3175	63593.9	62622.3
841.3095	849.368	63249.6	62280.15
841.4546	851.4179	63505.55	62536.6
841.5997	853.467	63303.3	62333.85
841.7448	855.5155	63389.1	62416.5
841.8899	857.5633	63161.05	62190.85
842.0351	859.6105	63043.2	62073.1
842.1802	861.6569	63158.25	62181.85
842.3253	863.7027	62868.35	61894.3
842.4704	865.7478	62993.7	62019.65
842.6156	867.7922	62933.7	61963.25
842.7607	869.8359	63057.55	62083.95
842.9058	871.8789	62725.1	61752.3
843.0509	873.9212	62922.1	61915.9
843.1961	875.9629	62948.7	61970.8
843.3412	878.0039	62895.45	61920.75
843.4863	880.0441	62804.15	61833.8
843.6315	882.0837	62819.4	61847.4
843.7766	884.1226	62787.15	61812.7
843.9218	886.1609	62707.55	61738.1
844.0669	888.1984	62553.75	61581.7
844.212	890.2352	62806.45	61834.2
844.3572	892.2714	62461.9	61482.55
844.5023	894.3069	62605.7	61633.45
844.6475	896.3416	62409.1	61438.2
844.7926	898.3757	62363.8	61390.75
844.9377	900.4091	61836.25	60864.85
845.0829	902.4418	62455.55	61476.2
845.228	904.4739	62140.4	61163.55
845.3732	906.5052	62182.5	61205.1
845.5183	908.5358	61922.65	60945.55
845.6635	910.5658	61760	60783.95
845.8086	912.595	61790.1	60816.25
845.9538	914.6236	61202.85	60228.65
846.0989	916.6515	61958.75	60985.3
846.2441	918.6786	61106.4	60130.7
846.3892	920.7051	61369.2	60387.95
846.5344	922.7309	61230.45	60257.55
846.6795	924.756	61344.9	60371.5
846.8246	926.7804	61123.15	60146.85
846.9698	928.8041	60539.3	59568.3
847.1149	930.8272	60929.6	59953.8
847.2601	932.8495	60898.4	59924.3
847.4052	934.8711	60453.25	59481.3
847.5504	936.892	60124.95	59148.55
847.6955	938.9123	60332.4	59355.8
847.8407	940.9318	60001.75	59023.35
847.9858	942.9506	59909.15	58935.2
848.131	944.9688	59944.15	58969.45
848.2761	946.9862	59185.2	58209.6
848.4213	949.003	59478.95	58507.5
848.5664	951.019	58774.1	57796.2
848.7115	953.0344	58925.2	57951.6
848.8567	955.0491	58789.95	57816.95
849.0018	957.063	59028.3	58052.15
849.147	959.0763	59085.25	58105.95
849.2921	961.0888	58674.85	57702.55
849.4373	963.1007	59044.4	58073.9
849.5824	965.1119	58968.4	58004.05
849.7275	967.1223	58570.95	57613.45
849.8727	969.1321	58979.7	58024.5
850.0178	971.1412	58404.6	57438.8
850.1629	973.1495	58188.75	57221.1
850.3081	975.1572	58473.7	57448.65
850.4532	977.1641	58163.7	57190.15
850.5983	979.1704	58054.4	57081.8
850.7435	981.1759	58081	57105.6
850.8886	983.1808	57719.55	56743.1
851.0337	985.1849	57770.35	56784.35
851.1788	987.1884	57931.2	56959.8
851.324	989.1911	58206.65	57233.9
851.4691	991.1932	57266.95	56295.85
851.6142	993.1945	57555.1	56587.5
851.7593	995.1951	57709.75	56737.35
851.9045	997.1951	57142.05	56165
852.0496	999.1943	56985.15	56016.7
852.1947	1001.1928	56769.7	55797.2
852.3398	1003.1906	56867.35	55897.2
852.4849	1005.1877	56264.2	55292.75
852.63	1007.1841	55976.05	55006.4
852.7751	1009.1798	56006.35	55038.5
852.9202	1011.1748	55856	54890.2
853.0653	1013.1691	55621.35	54649.2
853.2104	1015.1627	54501.65	53531.3
853.3555	1017.1556	54629.1	53664.4
853.5006	1019.1477	54742.15	53773.1
853.6457	1021.1392	54109.15	53150
853.7908	1023.1299	53506.55	52548.4
853.9359	1025.12	53800.35	52852.6
854.081	1027.1093	53430.15	52491.4
854.2261	1029.0979	53405	52469.85
854.3712	1031.0859	53315.85	52370.4
854.5163	1033.0731	52777.2	51818.95
854.6613	1035.0596	52871.5	51912.55
854.8064	1037.0454	52658.4	51696.4
854.9515	1039.0304	52198.55	51229.95
855.0965	1041.0148	51629.35	50661.8
855.2416	1042.9985	51628.6	50658.55
855.3867	1044.9814	51809.15	50841.8
855.5317	1046.9636	51229.35	50261.5
855.6768	1048.9452	51151.95	50187.7
855.8219	1050.926	51062.5	50099.1
855.9669	1052.9061	50940.9	49976.75
856.112	1054.8855	50843.25	49874.9
856.257	1056.8642	50601.55	49633.8
856.4021	1058.8421	50477.45	49505.3
856.5471	1060.8194	50459.7	49488.25
856.6921	1062.7959	50203.65	49235.25
856.8372	1064.7717	50332.6	49365.35
856.9822	1066.7469	50149.65	49185
857.1272	1068.7213	50109.1	49143.4
857.2723	1070.695	49930.05	48962.6
857.4173	1072.6679	49518.25	48552.45
857.5623	1074.6402	49589.55	48624.3
857.7073	1076.6117	49348.7	48377.4
857.8523	1078.5826	49299.6	48329.8
857.9973	1080.5527	49246.55	48276.8
858.1423	1082.5221	49048.75	48084.3
858.2873	1084.4908	49182.05	48218.9
858.4323	1086.4587	49140.45	48175.3
858.5773	1088.426	49155.2	48186.2
858.7223	1090.3925	49037.6	48066.05
858.8673	1092.3584	48891.2	47924.75
859.0123	1094.3235	48439.5	47476.1
859.1573	1096.2879	48298.8	47331.05
859.3022	1098.2515	48247.45	47280.85
859.4472	1100.2145	48180.7	47217.25
859.5922	1102.1767	48081.4	47116.35
859.7371	1104.1382	48155.75	47188.55
859.8821	1106.099	48186.05	47219.8
860.027	1108.0591	48240.75	47275.7
860.172	1110.0185	47968.95	47002.2
860.3169	1111.9771	48118.2	47150.95
860.4619	1113.9351	47676.65	46709.7
860.6068	1115.8923	47258.9	46297.85
860.7517	1117.8488	46932.7	45965.9
860.8967	1119.8045	46475.45	45511.95
861.0416	1121.7596	46342.1	45377.05
861.1865	1123.7139	46123.05	45162.1
861.3314	1125.6675	46046.85	45080
861.4763	1127.6204	46062.9	45098.5
861.6212	1129.5726	45810.85	44846.05
861.7661	1131.524	45742.8	44774.3
861.911	1133.4748	45691.85	44723.1
862.0559	1135.4248	45520.95	44553.55
862.2008	1137.3741	45430.7	44468.75
862.3457	1139.3226	45191.75	44227.45
862.4905	1141.2705	45222.45	44257.7
862.6354	1143.2176	44864.4	43891.7
862.7803	1145.164	44801.65	43838.6
862.9251	1147.1097	44719.35	43753.7
863.07	1149.0546	44651.6	43686.9
863.2148	1150.9989	44472.65	43508.25
863.3597	1152.9424	44301.35	43334.1
863.5045	1154.8852	44115.05	43150.75
863.6493	1156.8272	43945.3	42976.75
863.7942	1158.7686	43839.5	42864.65
863.939	1160.7092	43602	42637.05
864.0838	1162.6491	43394.9	42430.45
864.2286	1164.5883	43493.6	42528.7
864.3734	1166.5267	43366.2	42401.1
864.5182	1168.4644	43449.1	42483.65
864.663	1170.4014	43478.9	42512.45
864.8078	1172.3377	43691.15	42729.15
864.9526	1174.2732	43778.35	42816.65
865.0974	1176.2081	43912.55	42949.65
865.2421	1178.1421	43938.1	42973.3
865.3869	1180.0755	44149.9	43189.85
865.5317	1182.0082	44003.85	43042.8
865.6764	1183.9401	43950.25	42988.95
865.8212	1185.8713	43728.1	42774.55
865.9659	1187.8017	43465	42516.6
866.1106	1189.7315	43145.9	42205.45
866.2554	1191.6605	42703.45	41764.4
866.4001	1193.5888	42343.75	41395.6
866.5448	1195.5163	42161.85	41210.65
866.6895	1197.4432	42004.95	41046.2
866.8342	1199.3693	41847.55	40887.15
866.9789	1201.2947	41638.1	40674
867.1236	1203.2193	41482.55	40520.7
867.2683	1205.1432	41448	40489.8
867.413	1207.0664	41318.6	40356.7
867.5576	1208.9889	41183.45	40225.95
867.7023	1210.9106	41087.65	40128.7
867.847	1212.8316	40936.15	39980.5
867.9916	1214.7519	40953.05	39985
868.1363	1216.6715	40806.6	39845.1
868.2809	1218.5903	40721.6	39761.35
868.4255	1220.5084	40528.8	39563.65
868.5701	1222.4257	40525.25	39566.25
868.7148	1224.3424	40328.7	39373.65
868.8594	1226.2583	40255.85	39294.95
869.004	1228.1735	40213	39256.85
869.1486	1230.0879	40062.9	39103.2
869.2932	1232.0016	40110.45	39152.3
869.4377	1233.9146	40037.4	39076.55
869.5823	1235.8269	39871.7	38913.5
869.7269	1237.7384	39714.15	38756.25
869.8715	1239.6492	39327.65	38373.25
870.016	1241.5592	39229.9	38272.65
870.1606	1243.4686	39013.2	38056.15
870.3051	1245.3772	38924.5	37965.45
870.4496	1247.285	38773.2	37816.6
870.5941	1249.1922	38628.7	37672.25
870.7387	1251.0986	38566.8	37612.9
870.8832	1253.0042	38419.85	37467.3
871.0277	1254.9092	38396.15	37440.85
871.1722	1256.8134	38334.75	37381.05
871.3167	1258.7169	38425.4	37470.5
871.4611	1260.6196	38481.9	37526
871.6056	1262.5216	38612.7	37652.75
871.7501	1264.4229	38624.5	37667.2
871.8945	1266.3234	38707.5	37752.55
872.039	1268.2232	38648.9	37687.65
872.1834	1270.1223	38547.9	37586.75
872.3278	1272.0207	38497.75	37538.35
872.4723	1273.9183	38359.45	37394.45
872.6167	1275.8151	38114.4	37158.35
872.7611	1277.7113	38008.4	37056.7
872.9055	1279.6067	37818.25	36863.95
873.0499	1281.5014	37627.3	36670.4
873.1943	1283.3953	37534.55	36579.1
873.3386	1285.2885	37491.35	36538.65
873.483	1287.181	37469.15	36515.3
873.6274	1289.0727	37531.55	36579.65
873.7717	1290.9637	37418.7	36466
873.9161	1292.854	37550.05	36596.4
874.0604	1294.7435	37493.8	36539.8
874.2047	1296.6323	37588.7	36632.1
874.349	1298.5204	37680.1	36721.55
874.4933	1300.4077	37790.75	36839.1
874.6376	1302.2943	37818.25	36863.95
874.7819	1304.1802	37777.55	36824.95
874.9262	1306.0653	37583.45	36626.05
875.0705	1307.9497	37341.25	36386.95
875.2147	1309.8333	37145.7	36192
875.359	1311.7162	37018	36061.6
875.5032	1313.5984	36996.2	36039.95
875.6475	1315.4798	36916.05	35958.95
875.7917	1317.3605	36949.1	35988.8
875.9359	1319.2405	37000.8	36040.8
876.0801	1321.1197	36868.25	35911.85
876.2243	1322.9982	36683.2	35724.25
876.3685	1324.876	36639.5	35684
876.5127	1326.753	36453.4	35498.25
876.6569	1328.6293	36470.6	35516.05
876.801	1330.5048	36394.85	35438.45
876.9452	1332.3796	36258.25	35306.9
877.0893	1334.2537	36204.35	35227.25
877.2335	1336.127	36055.35	35100.9
877.3776	1337.9996	35920.75	34970.15
877.5217	1339.8714	35875.35	34924.3
877.6658	1341.7426	35763.15	34760.15
877.8099	1343.6129	35724.9	34765.65
877.954	1345.4826	35595.2	34642.9
878.0981	1347.3515	35589.05	34637.5
878.2422	1349.2196	35416.8	34463.3
878.3862	1351.087	35431.7	34477.55
878.5303	1352.9537	35364.75	34405.75
878.6743	1354.8197	35467.9	34512.85
878.8184	1356.6849	35599.5	34642.35
878.9624	1358.5493	35576.55	34618.75
879.1064	1360.4131	35492.45	34541.4
879.2504	1362.276	35408.35	34456.25
879.3944	1364.1383	35229.6	34277.45
879.5384	1365.9998	34924.4	33965.55
879.6823	1367.8606	34547.15	33592
879.8263	1369.7206	34193.1	33237.35
879.9702	1371.5799	33970.9	33015.45
880.1142	1373.4384	33727.25	32771.85
880.2581	1375.2962	33561.3	32607.5
880.402	1377.1533	33166.65	32215
880.5459	1379.0096	32774.95	31827.65
880.6898	1380.8652	32479.3	31530.95
880.8337	1382.7201	32183.1	31235
880.9776	1384.5742	31873.5	30919.55
881.1215	1386.4275	31643.95	30688.3
881.2653	1388.2802	31439.65	30489.2
881.4092	1390.132	31190.45	30236.9
881.553	1391.9832	31176.5	30221.35
881.6968	1393.8336	30872.3	29921.4
881.8406	1395.6832	30789.6	29837.95
881.9844	1397.5322	30676.7	29727.8
882.1282	1399.3803	30616.95	29663.75
882.272	1401.2278	30373.9	29422.25
882.4158	1403.0745	30286.35	29335.15
882.5595	1404.9204	30189.4	29238.85
882.7033	1406.7656	30180.75	29230.6
882.847	1408.6101	30098.55	29147.8
882.9908	1410.4538	29984.45	29035.2
883.1345	1412.2968	29938.75	28988.5
883.2782	1414.139	29816.3	28868.6
883.4219	1415.9805	29848.9	28899.9
883.5656	1417.8213	29776.9	28804.75
883.7092	1419.6613	29790.4	28840.9
883.8529	1421.5006	29928.6	28979.45
883.9965	1423.3391	30022.65	29074.2
884.1402	1425.1769	30239.55	29291.6
884.2838	1427.0139	30602.35	29655
884.4274	1428.8502	31028.25	30077.85
884.571	1430.6858	31492	30545.35
884.7146	1432.5206	31678.6	30731.9
884.8582	1434.3547	31831.05	30880.95
885.0018	1436.188	31842.8	30897.25
885.1453	1438.0206	31744.3	30799.05
885.2889	1439.8524	31464.6	30515.8
885.4324	1441.6835	31354.05	30404.5
885.5759	1443.5139	31179.25	30226.45
885.7194	1445.3435	31032.25	30085.4
885.8629	1447.1724	31009.3	30063.1
886.0064	1449.0005	30879.8	29934.2
886.1499	1450.8279	30731.05	29785.45
886.2933	1452.6545	30588.1	29642.4
886.4368	1454.4804	30627.7	29682.55
886.5802	1456.3056	30581.25	29631.8
886.7237	1458.13	30431.7	29490.55
886.8671	1459.9536	30244.7	29296.6
887.0105	1461.7766	29915.9	28970.45
887.1539	1463.5987	29533.95	28587.7
887.2972	1465.4202	29110.55	28163.7
887.4406	1467.2409	28751.95	27806
887.584	1469.0608	28528.75	27583.4
887.7273	1470.88	28248.75	27303.2
887.8706	1472.6984	28001.3	27058.15
888.0139	1474.5161	27716.25	26768.9
888.1572	1476.3331	27542.15	26597
888.3005	1478.1493	27408.45	26462.85
888.4438	1479.9648	27312.35	26363.95
888.5871	1481.7795	27122	26176.1
888.7303	1483.5935	27067.4	26122.5
888.8736	1485.4067	26956.55	26011.45
889.0168	1487.2192	26899.6	25952.85
889.16	1489.031	26794.05	25844.6
889.3032	1490.842	26693.5	25747.2
889.4464	1492.6522	26655.4	25713
889.5896	1494.4618	26590	25643.25
889.7327	1496.2705	26501.7	25557.75
889.8759	1498.0785	26453.75	25506.6
890.019	1499.8858	26391.55	25445.3
890.1622	1501.6924	26284.8	25339.8
890.3053	1503.4981	26224.1	25279.6
890.4484	1505.3032	26148.75	25203.7
890.5914	1507.1075	26085.45	25139.15
890.7345	1508.911	26025.6	25080.65
890.8776	1510.7138	25938.65	24992.2
891.0206	1512.5159	25833.3	24887.9
891.1637	1514.3172	25738.9	24796.05
891.3067	1516.1178	25599	24658.2
891.4497	1517.9176	25553.65	24607.85
891.5927	1519.7166	25436.7	24496.85
891.7357	1521.515	25375.65	24426.45
891.8786	1523.3126	25328.25	24386
892.0216	1525.1094	25237.7	24296.3
892.1645	1526.9055	25147.9	24206.35
892.3074	1528.7008	25023.7	24085.55
892.4503	1530.4954	24864.9	23917.35
892.5932	1532.2893	24858.65	23921.2
892.7361	1534.0824	24663.45	23721
892.879	1535.8747	24735.1	23799
893.0218	1537.6663	24600.7	23665.75
893.1647	1539.4572	24533.7	23591.8
893.3075	1541.2473	24488.15	23549.7
893.4503	1543.0367	24371.95	23435.95
893.5931	1544.8253	24302.8	23359.55
893.7359	1546.6132	24277.15	23336.65
893.8787	1548.4003	24176.2	23231.25
894.0214	1550.1867	24150.35	23206.55
894.1642	1551.9723	24097.95	23159.45
894.3069	1553.7572	24074.9	23138.85
894.4496	1555.5414	24034.3	23099.55
894.5923	1557.3247	24006.3	23073.95
894.735	1559.1074	24048.05	23118.7
894.8777	1560.8893	24030.65	23101.75
895.0204	1562.6705	24016.6	23085.75
895.163	1564.4509	24030.55	23101.7
895.3056	1566.2305	23977.35	23052.3
895.4482	1568.0094	24087.65	23161.05
895.5908	1569.7876	24078.4	23152.6
895.7334	1571.565	24051.35	23118.4
895.876	1573.3417	24025.25	23094.4
896.0186	1575.1176	23966.45	23035.65
896.1611	1576.8928	23886.85	22963.1
896.3036	1578.6672	23785	22865.15
896.4461	1580.4409	23644.1	22727.05
896.5886	1582.2138	23459.75	22534.9
896.7311	1583.986	23345.95	22419.05
896.8736	1585.7575	23262.2	22336.1
897.0161	1587.5282	23097.5	22176.95
897.1585	1589.2981	23102.45	22182.7
897.3009	1591.0673	23014.05	22091.05
897.4433	1592.8358	22965.9	22044.9
897.5857	1594.6035	22911.3	21985.15
897.7281	1596.3704	22835.05	21910.35
897.8705	1598.1366	22819.8	21895.7
898.0128	1599.9021	22767.85	21844.35
898.1551	1601.6668	22713.55	21788.25
898.2975	1603.4308	22726.6	21797.1
898.4398	1605.194	22822.85	21894.8
898.5821	1606.9564	22860.8	21945
898.7243	1608.7182	22942.15	22030.2
898.8666	1610.4791	23010.95	22104.1
899.0088	1612.2394	23056.55	22153.55
899.1511	1613.9988	23185.35	22276.4
899.2933	1615.7576	23334.9	22421.3
899.4355	1617.5156	23502.5	22572.9
899.5776	1619.2728	23664.8	22740.05
899.7198	1621.0293	23700.95	22776.85
899.862	1622.785	23652.35	22733.9
900.0041	1624.54	23486.65	22569.55
900.1462	1626.2942	23332.65	22418.75
900.2883	1628.0477	23017.5	22099.25
900.4304	1629.8005	22790	21871.75
900.5725	1631.5525	22523.8	21609.5
900.7145	1633.3037	22324.25	21411.7
900.8566	1635.0542	22236.9	21322.35
900.9986	1636.804	22042.1	21126.95
901.1406	1638.553	21973.65	21004.95
901.2826	1640.3013	21842	20925
901.4245	1642.0488	21744.65	20827.55
901.5665	1643.7955	21716.45	20806.85
901.7085	1645.5416	21731.6	20816.7
901.8504	1647.2868	21749.85	20836.45
901.9923	1649.0313	21747.7	20830.8
902.1342	1650.7751	21887.2	20967.05
902.2761	1652.5181	21963.5	21048.7
902.4179	1654.2604	22081.95	21170.45
902.5598	1656.0019	22285.1	21374.65
902.7016	1657.7427	22506.6	21590.95
902.8434	1659.4828	22745.5	21826.55
902.9852	1661.222	22869	21948.85
903.127	1662.9606	22797.75	21881.85
903.2687	1664.6984	22619.55	21702.05
903.4105	1666.4354	22295.45	21371.5
903.5522	1668.1717	21817.05	20895.85
903.6939	1669.9072	21305.65	20385
903.8356	1671.642	20928.35	20006.65
903.9773	1673.3761	20602.25	19682.95
904.119	1675.1094	20314.55	19399.4
904.2606	1676.8419	20059.4	19144.95
904.4022	1678.5737	19875.7	18954.7
904.5439	1680.3048	19721.2	18801.15
904.6855	1682.0351	19554	18633.3
904.827	1683.7646	19447.45	18525.6
904.9686	1685.4934	19348.65	18430.2
905.1101	1687.2215	19216.75	18299.8
905.2517	1688.9488	19124.3	18210.35
905.3932	1690.6754	18986.55	18073
905.5347	1692.4012	18983.05	18067.35
905.6761	1694.1263	18915.85	17998.05
905.8176	1695.8506	18881.95	17966.05
905.9591	1697.5742	18739.15	17825.75
906.1005	1699.297	18678.7	17765.75
906.2419	1701.0191	18583.85	17675.35
906.3833	1702.7404	18528.35	17619.05
906.5246	1704.461	18421.7	17509.4
906.666	1706.1808	18326.75	17415.4
906.8073	1707.8999	18291.55	17382.2
906.9487	1709.6182	18230.45	17320.2
907.09	1711.3358	18156.55	17252.7
907.2313	1713.0527	18081.45	17177.9
907.3725	1714.7688	18051.05	17141.55
907.5138	1716.4841	17972.85	17062.5
907.655	1718.1987	17915.6	16998.75
907.7962	1719.9126	17893.8	16991.05
907.9374	1721.6257	17763.95	16855.6
908.0786	1723.338	17760.8	16856.4
908.2198	1725.0496	17648.8	16740.8
908.3609	1726.7605	17637.75	16725.75
908.502	1728.4706	17528.3	16622
908.6431	1730.18	17454.25	16548.4
908.7842	1731.8886	17397.25	16493.9
908.9253	1733.5964	17371.35	16446.3
909.0664	1735.3036	17337.9	16428.3
909.2074	1737.0099	17304	16396.4
909.3484	1738.7156	17247.8	16345.7
909.4894	1740.4204	17161.6	16252.35
909.6304	1742.1246	17093.65	16185.7
909.7714	1743.8279	17064.15	16158.8
909.9123	1745.5306	17042.15	16139.75
910.0532	1747.2325	16970.75	16067.35
910.1941	1748.9336	16902.4	15995.1
910.335	1750.634	16854.3	15942.4
910.4759	1752.3336	16807.55	15904.65
910.6168	1754.0325	16799	15897.9
910.7576	1755.7307	16734.25	15831.25
910.8984	1757.4281	16711.35	15805.9
911.0392	1759.1247	16694.35	15777.05
911.18	1760.8206	16644.65	15732.1
911.3208	1762.5158	16615.3	15703.7
911.4615	1764.2102	16552.3	15645
911.6022	1765.9039	16486.65	15585.8
911.7429	1767.5968	16438.95	15538.05
911.8836	1769.289	16394.2	15492.65
912.0243	1770.9804	16340.2	15434.75
912.1649	1772.6711	16359.9	15452.85
912.3056	1774.361	16283.65	15374.35
912.4462	1776.0502	16272.95	15365.7
912.5868	1777.7386	16235.8	15325.05
912.7274	1779.4263	16179.65	15275.55
912.8679	1781.1132	16153.7	15253.65
913.0084	1782.7994	16082.7	15181.6
913.149	1784.4849	16062.85	15163.8
913.2895	1786.1696	15989.25	15079.6
913.4299	1787.8535	16009.8	15112
913.5704	1789.5367	15922	15022.8
913.7108	1791.2192	15923.95	15023.8
913.8513	1792.9009	15845.95	14917.7
913.9917	1794.5818	15802.95	14894.15
914.132	1796.2621	15781.25	14878.45
914.2724	1797.9415	15725.5	14819.65
914.4128	1799.6202	15680.7	14774.85
914.5531	1801.2982	15657.45	14750.2
914.6934	1802.9755	15637.7	14732.8
914.8337	1804.6519	15621.2	14714.05
914.9739	1806.3277	15541.8	14641.15
915.1142	1808.0027	15486.3	14588.3
915.2544	1809.6769	15424.8	14525.35
915.3946	1811.3504	15429.2	14531.1
915.5348	1813.0231	15386.85	14487.95
915.675	1814.6951	15385.8	14486.25
915.8151	1816.3664	15359.6	14454
915.9553	1818.0369	15346.8	14444.45
916.0954	1819.7067	15241.65	14338
916.2355	1821.3757	15216.9	14311.75
916.3755	1823.044	15193.45	14287.5
916.5156	1824.7115	15171.25	14264.65
916.6556	1826.3783	15082.3	14178.35
916.7956	1828.0443	15035.2	14131.95
916.9356	1829.7096	15031.55	14127.25
917.0756	1831.3741	15027.45	14123.15
917.2155	1833.0379	14939.1	14039.85
917.3555	1834.701	14898.1	13998.6
917.4954	1836.3633	14894.85	13993.35
917.6353	1838.0248	14885	13984.5
917.7751	1839.6856	14819.35	13915.25
917.915	1841.3457	14805.25	13903.1
918.0548	1843.005	14753.1	13849.8
918.1946	1844.6636	14737.2	13836.65
918.3344	1846.3214	14694.15	13789.7
918.4742	1847.9785	14692.8	13791.1
918.6139	1849.6349	14644.9	13739.1
918.7537	1851.2904	14615.75	13701.85
918.8934	1852.9453	14561.15	13656.05
919.0331	1854.5994	14556.3	13648.85
919.1727	1856.2528	14570.8	13659.95
919.3124	1857.9054	14514.3	13609.25
919.452	1859.5572	14490.6	13586.5
919.5916	1861.2083	14451.2	13546.9
919.7312	1862.8587	14434.5	13530.25
919.8708	1864.5084	14383.85	13476.4
920.0103	1866.1572	14357.95	13449.1
920.1498	1867.8054	14321.25	13410.7
920.2893	1869.4528	14292.6	13384.9
920.4288	1871.0994	14215.55	13308.55
920.5683	1872.7453	14189.45	13284
920.7077	1874.3905	14180.7	13268.15
920.8471	1876.0349	14127.55	13222.1
920.9865	1877.6786	14122.9	13215.95
921.1259	1879.3215	14096.85	13192.05
921.2653	1880.9637	14030.95	13126.75
921.4046	1882.6051	14042.5	13141.15
921.5439	1884.2458	14029.4	13126.75
921.6832	1885.8858	13923.3	13020.95
921.8225	1887.525	13909	13006.85
921.9617	1889.1634	13851.8	12947.25
922.101	1890.8011	13831.65	12926.55
922.2402	1892.4381	13765.55	12859.4
922.3794	1894.0743	13753.15	12849.65
922.5185	1895.7098	13750.35	12845.4
922.6577	1897.3446	13720.55	12815.7
922.7968	1898.9786	13691.8	12784.25
922.9359	1900.6118	13640.55	12739.6
923.075	1902.2443	13573.85	12669.85
923.214	1903.8761	13535.8	12633.5
923.3531	1905.5071	13484.1	12581.15
923.4921	1907.1374	13443	12542.6
923.6311	1908.7669	13381.15	12481.35
923.77	1910.3957	13395.5	12494.35
923.909	1912.0237	13295.15	12394.25
924.0479	1913.651	13288.9	12384.7
924.1868	1915.2776	13261.75	12358.75
924.3257	1916.9034	13211.5	12310.35
924.4646	1918.5285	13139.4	12240.95
924.6034	1920.1528	13104.65	12203.8
924.7422	1921.7764	13075.4	12171.35
924.881	1923.3992	13047.2	12143.4
925.0198	1925.0213	12945.85	12044.75
925.1586	1926.6427	12895.4	11994.4
925.2973	1928.2633	12952.9	11982.8
925.436	1929.8832	12859.05	11953.65
925.5747	1931.5023	12805.3	11902
925.7134	1933.1207	12773.7	11868.55
925.852	1934.7383	12762.7	11859.85
925.9906	1936.3552	12672.25	11773.3
926.1292	1937.9714	12662.3	11761.9
926.2678	1939.5868	12634.1	11730.2
926.4064	1941.2015	12549.55	11643.6
926.5449	1942.8154	12503.4	11600.15
926.6834	1944.4286	12444.6	11540.25
926.8219	1946.041	12444.5	11521.85
926.9604	1947.6528	12361.55	11452.9
927.0988	1949.2637	12327.7	11427.15
927.2372	1950.8739	12295.9	11394.6
927.3756	1952.4834	12275.65	11375.65
927.514	1954.0921	12246.15	11344.8
927.6523	1955.7001	12183	11279.3
927.7907	1957.3074	12179.2	11281.95
927.929	1958.9139	12092.5	11201.1
928.0673	1960.5197	12073.6	11176.35
928.2055	1962.1247	12025.9	11128.15
928.3438	1963.729	11994.75	11097.2
928.482	1965.3325	11934.65	11018.4
928.6202	1966.9353	11897.65	11002.75
928.7584	1968.5374	11859.9	10963.25
928.8965	1970.1387	11825.3	10929.75
929.0346	1971.7393	11807.15	10907.95
929.1727	1973.3392	11781.75	10884.55
929.3108	1974.9383	11715.05	10819.3
929.4489	1976.5366	11662	10768.45
929.5869	1978.1342	11655.6	10761.9
929.7249	1979.7311	11629.1	10733.4
929.8629	1981.3273	11589.95	10696.1
930.0009	1982.9227	11531.4	10637.5
930.1388	1984.5173	11484.7	10593.2
930.2767	1986.1112	11460.3	10568.1
930.4146	1987.7044	11431.95	10538.35
930.5525	1989.2968	11404.15	10509.7
930.6904	1990.8885	11372.6	10477.45
930.8282	1992.4795	11322.85	10430.35
930.966	1994.0697	11284.9	10394.1
931.1038	1995.6592	11265.8	10375.75
931.2415	1997.2479	11238.25	10347.4
931.3793	1998.8359	11190.6	10302.75
931.517	2000.4232	11157.5	10269.3
931.6547	2002.0097	11128.9	10243.15
931.7923	2003.5955	11068.6	10179.6
931.93	2005.1805	11069.85	10178.6
932.0676	2006.7648	11043.25	10153.95
932.2052	2008.3484	11005.1	10115.5
932.3427	2009.9312	11006.2	10117.1
932.4803	2011.5133	10941.4	10056.3
932.6178	2013.0946	10934.95	10047.3
932.7553	2014.6752	10929.05	10042.65
932.8928	2016.2551	10898.65	10008.45
933.0302	2017.8342	10807.25	9918.1
933.1676	2019.4126	10791.75	9904.25
933.305	2020.9902	10752.7	9866.45
933.4424	2022.5672	10714.8	9829.3
933.5798	2024.1433	10704.85	9811.8
933.7171	2025.7188	10653.05	9768.2
933.8544	2027.2935	10635.95	9749.95
933.9917	2028.8674	10611.2	9723.8
934.129	2030.4406	10562.5	9678.85
934.2662	2032.0131	10523.3	9641.75
934.4034	2033.5849	10477.75	9589.45
934.5406	2035.1559	10453.95	9569.8
934.6778	2036.7261	10470.25	9584.9
934.8149	2038.2957	10429.65	9538.2
934.952	2039.8645	10418.25	9526.75
935.0891	2041.4325	10412.35	9518.4
935.2262	2042.9998	10349.6	9460.75
935.3632	2044.5664	10320.65	9431.35
935.5002	2046.1323	10296.95	9412
935.6372	2047.6974	10274.4	9388.7
935.7742	2049.2617	10233.6	9347.85
935.9111	2050.8254	10217.2	9326.65
936.048	2052.3883	10223.85	9333.8
936.1849	2053.9504	10156.45	9264.7
936.3218	2055.5118	10127.7	9234.85
936.4586	2057.0725	10093.5	9199.65
936.5955	2058.6325	10078.8	9190.15
936.7323	2060.1917	10032.7	9142.7
936.869	2061.7502	10023.55	9132.55
937.0058	2063.3079	10004.8	9117.55
937.1425	2064.8649	9939.4	9046
937.2792	2066.4212	9916.2	9021
937.4159	2067.9767	9887.3	8992.35
937.5525	2069.5315	9875.85	8983.7
937.6891	2071.0856	9809.2	8917.95
937.8257	2072.6389	9786.05	8897.75
937.9623	2074.1915	9743.8	8861.7
938.0989	2075.7433	9716.55	8826.6
938.2354	2077.2945	9679.8	8792.75
938.3719	2078.8448	9637	8747.3
938.5084	2080.3945	9619.1	8728.85
938.6448	2081.9434	9634.3	8744.15
938.7812	2083.4916	9586.95	8691.95
938.9176	2085.039	9540.3	8642.95
939.054	2086.5857	9536.35	8637.9
939.1903	2088.1317	9522	8624.2
939.3267	2089.677	9501.35	8603.4
939.463	2091.2215	9449.1	8551.85
939.5992	2092.7652	9454.2	8556.9
939.7355	2094.3083	9418.85	8523.5
939.8717	2095.8506	9397.9	8504.55
940.0079	2097.3921	9385.3	8493.9
940.1441	2098.933	9372.35	8479.3
940.2802	2100.4731	9315.15	8422.45
940.4163	2102.0124	9312.95	8414.6
940.5524	2103.5511	9299.95	8406.55
940.6885	2105.089	9291.75	8397.1
940.8245	2106.6261	9258.2	8365.55
940.9606	2108.1626	9207.35	8314.7
941.0965	2109.6983	9224.8	8307.25
941.2325	2111.2332	9188.25	8295.75
941.3684	2112.7675	9172.55	8279.05
941.5044	2114.301	9108.8	8212
941.6403	2115.8337	9094.5	8198.95
941.7761	2117.3657	9071.1	8178.6
941.912	2118.897	9062.1	8165.8
942.0478	2120.4276	9051.9	8153.45
942.1835	2121.9575	8990.45	8094.85
942.3193	2123.4866	9000.25	8104.35
942.455	2125.0149	8986.25	8091.15
942.5907	2126.5426	8927.55	8039.25
942.7264	2128.0695	8921.65	8030.4
942.8621	2129.5956	8911.65	8026.45
942.9977	2131.1211	8878.5	7986.15
943.1333	2132.6458	8853.95	7962.7
943.2689	2134.1698	8836.8	7940.4
943.4044	2135.693	8811.65	7914.8
943.54	2137.2155	8802.2	7903.9
943.6755	2138.7373	8766.65	7875.5
943.8109	2140.2584	8726.55	7837.05
943.9464	2141.7787	8717.2	7825.05
944.0818	2143.2983	8655.65	7771
944.2172	2144.8171	8618.3	7732.6
944.3526	2146.3353	8618.15	7728.95
944.4879	2147.8527	8602.55	7714.1
944.6232	2149.3693	8599.5	7706.1
944.7585	2150.8853	8569.8	7674.65
944.8938	2152.4005	8508.15	7611.75
945.029	2153.9149	8516.5	7619.15
945.1642	2155.4287	8564.95	7561.95
945.2994	2156.9417	8468.7	7573.85
945.4346	2158.454	8437.5	7544.65
945.5697	2159.9655	8396.3	7507.15
945.7048	2161.4764	8377.95	7487.6
945.8399	2162.9865	8366.9	7476.85
945.9749	2164.4958	8338.5	7446.95
946.1099	2166.0045	8312.35	7420.4
946.2449	2167.5124	8309.2	7416.8
946.3799	2169.0195	8301.95	7409.8
946.5148	2170.526	8288.95	7394.95
946.6498	2172.0317	8256.75	7363.8
946.7846	2173.5367	8220.95	7327.7
946.9195	2175.0409	8202.8	7312.8
947.0543	2176.5445	8224.85	7332.95
947.1891	2178.0473	8153.45	7258.5
947.3239	2179.5494	8133.05	7236.95
947.4587	2181.0507	8121.05	7227
947.5934	2182.5513	8084.3	7194.4
947.7281	2184.0512	8059	7166.35
947.8628	2185.5504	8045.35	7151.3
947.9974	2187.0488	8011	7121.3
948.132	2188.5465	8001	7113.2
948.2666	2190.0435	7960.8	7068.4
948.4012	2191.5397	7959.9	7067
948.5357	2193.0353	7917.1	7022.4
948.6702	2194.5301	7883.2	6986.4
948.8047	2196.0241	7848.55	6949.9
948.9392	2197.5175	7822.4	6924.25
949.0736	2199.0101	7804.7	6903.25
949.208	2200.502	7791.55	6898.4
949.3424	2201.9931	7761.15	6870.05
949.4767	2203.4835	7713.95	6823.7
949.611	2204.9733	7704.1	6797.55
949.7453	2206.4622	7695.7	6807.05
949.8796	2207.9505	7665.2	6775.75
950.0138	2209.438	7605.9	6719.3
950.148	2210.9248	7595.7	6706.15
950.2822	2212.4109	7564.05	6673.5
950.4164	2213.8962	7560.15	6661.65
950.5505	2215.3809	7534.3	6636.05
950.6846	2216.8648	7521.85	6620.05
950.8186	2218.3479	7509.7	6605.45
950.9527	2219.8304	7472.5	6571.55
951.0867	2221.3121	7441.55	6541.95
951.2207	2222.7931	7424.4	6527.75
951.3546	2224.2733	7397.45	6502.5
951.4886	2225.7529	7354.85	6460.75
951.6225	2227.2317	7357	6464.15
951.7563	2228.7098	7338.85	6449.45
951.8902	2230.1872	7293.7	6405.75
952.024	2231.6638	7285.75	6397.45
952.1578	2233.1397	7253.5	6360.45
952.2916	2234.6149	7259.25	6370.6
952.4253	2236.0894	7199.45	6307.1
952.559	2237.5632	7191.75	6299.35
952.6927	2239.0362	7167.5	6276.55
952.8263	2240.5085	7137.3	6244.25
952.9599	2241.9801	7125.35	6230.9
953.0935	2243.4509	7088.95	6194.8
953.2271	2244.921	7088.65	6194.6
953.3606	2246.3904	7058.15	6158.55
953.4941	2247.8591	7049.2	6153.35
953.6276	2249.3271	7007.45	6114
953.7611	2250.7943	6989.85	6093.55
953.8945	2252.2608	6961.25	6064.7
954.0279	2253.7266	6952	6057.7
954.1612	2255.1917	6920.3	6027.2
954.2946	2256.656	6908.25	6013.95
954.4279	2258.1197	6891.45	6002.25
954.5612	2259.5826	6887.15	5994.7
954.6944	2261.0447	6872.45	5978.3
954.8276	2262.5062	6843.8	5945.05
954.9608	2263.9669	6825.35	5926.95
955.094	2265.4269	6818.4	5925.05
955.2271	2266.8862	6806.3	5911.5
955.3602	2268.3448	6783.55	5891.4
955.4933	2269.8026	6769.9	5876.95
955.6264	2271.2598	6743	5850.85
955.7594	2272.7162	6718.05	5827.15
955.8924	2274.1719	6710.05	5816.55
956.0253	2275.6268	6706.1	5810.25
956.1583	2277.0811	6676.9	5782.95
956.2912	2278.5346	6660.35	5769.85
956.4241	2279.9874	6639.9	5749.4
956.5569	2281.4395	6626.9	5737.15
956.6897	2282.8908	6620.05	5723.7
956.8225	2284.3414	6629.35	5734.2
956.9553	2285.7914	6581.7	5687.45
957.088	2287.2406	6551.45	5654.5
957.2207	2288.689	6548.1	5651.95
957.3534	2290.1368	6521.15	5619.6
957.486	2291.5838	6511.9	5609.75
957.6186	2293.0302	6476.9	5574.45
957.7512	2294.4758	6459.4	5560.15
957.8838	2295.9206	6441.35	5544.35
958.0163	2297.3648	6420.95	5529.8
958.1488	2298.8082	6418.05	5525.75
958.2813	2300.251	6402.05	5506.9
958.4137	2301.693	6384.6	5485.75
958.5461	2303.1343	6367.6	5470.15
958.6785	2304.5748	6340	5446.25
958.8108	2306.0147	6321.5	5429.95
958.9432	2307.4538	6299.35	5406.25
959.0754	2308.8922	6295.35	5406.6
959.2077	2310.3299	6281.75	5392.6
959.3399	2311.7669	6251.45	5359
959.4721	2313.2031	6226.7	5334.4
959.6043	2314.6387	6194.25	5300.75
959.7365	2316.0735	6188.55	5296.15
959.8686	2317.5076	6192.25	5299.4
960.0006	2318.941	6155.4	5260.55
960.1327	2320.3737	6149.55	5252.9
960.2647	2321.8056	6121.45	5222.25
960.3967	2323.2369	6117.85	5223.5
960.5287	2324.6674	6109.35	5213.1
960.6606	2326.0972	6079.4	5183.75
960.7925	2327.5263	6035.6	5140.3
960.9244	2328.9547	6032.45	5136.1
961.0562	2330.3823	6030	5134.55
961.1881	2331.8092	6032.7	5129.15
961.3198	2333.2355	5971.3	5073.4
961.4516	2334.661	5979.65	5085.45
961.5833	2336.0858	5961.85	5064.05
961.715	2337.5098	5939.25	5044.35
961.8467	2338.9332	5932.15	5034.9
961.9783	2340.3558	5914.8	5017.5
962.1099	2341.7778	5888.95	4998.45
962.2415	2343.199	5879.6	4983.55
962.373	2344.6195	5866.25	4972.85
962.5045	2346.0393	5835.9	4942.55
962.636	2347.4583	5850.75	4955.35
962.7675	2348.8767	5824.85	4929.3
962.8989	2350.2943	5809.05	4912.3
963.0303	2351.7113	5807.6	4907.9
963.1617	2353.1275	5790.25	4889.8
963.293	2354.543	5779.1	4873.1
963.4243	2355.9578	5755.45	4859.65
963.5556	2357.3718	5706.35	4813.05
963.6868	2358.7852	5702.6	4807.6
963.818	2360.1978	5681.25	4786.7
963.9492	2361.6098	5668.95	4775.3
964.0803	2363.021	5652.4	4758
964.2114	2364.4315	5647	4753.5
964.3425	2365.8413	5635.55	4738.65
964.4736	2367.2504	5604.2	4711.7
964.6046	2368.6587	5581.6	4690.4
964.7356	2370.0664	5566.25	4673.45
964.8666	2371.4733	5543	4649.55
964.9975	2372.8795	5535.95	4641
965.1284	2374.285	5521.55	4627.25
965.2593	2375.6899	5483.6	4590.9
965.3901	2377.0939	5456	4562.7
965.5209	2378.4973	5441.4	4549.05
965.6517	2379.9	5435.9	4539.55
965.7825	2381.3019	5411.85	4517.95
965.9132	2382.7032	5403.45	4510.85
966.0439	2384.1037	5414.55	4524.15
966.1745	2385.5035	5356.35	4467.35
966.3051	2386.9027	5367.8	4479
966.4357	2388.3011	5335.45	4441.8
966.5663	2389.6987	5325.1	4432.8
966.6968	2391.0957	5303.85	4412.2
966.8273	2392.492	5274.95	4384.1
966.9578	2393.8876	5247.15	4354.7
967.0882	2395.2824	5240.6	4346
967.2186	2396.6765	5209.7	4315.8
967.349	2398.07	5187.6	4294.95
967.4793	2399.4627	5186.4	4290.95
967.6097	2400.8547	5175.95	4281.85
967.7399	2402.246	5165.65	4264.3
967.8702	2403.6366	5137.25	4245.7
968.0004	2405.0265	5125.05	4235.9
968.1306	2406.4156	5113.9	4219.7
968.2607	2407.8041	5092.95	4194.6
968.3909	2409.1918	5088.65	4193
968.521	2410.5789	5054.25	4158.75
968.651	2411.9652	5040.6	4144.65
968.781	2413.3508	5040.45	4145.8
968.911	2414.7358	5027.05	4131.1
969.041	2416.12	4990.8	4097.65
969.1709	2417.5035	5003.1	4108.35
969.3008	2418.8863	4961.95	4066.8
969.4307	2420.2684	4943.55	4049.15
969.5606	2421.6497	4938.65	4044.3
969.6904	2423.0304	4893.4	3999.85
969.8201	2424.4104	4904.05	4009.4
969.9499	2425.7896	4893	4000.1
970.0796	2427.1682	4867.2	3975.05
970.2093	2428.546	4871.55	3977.1
970.3389	2429.9232	4826.4	3930.3
970.4685	2431.2996	4839.95	3945.4
970.5981	2432.6753	4833.75	3938.75
970.7277	2434.0503	4812.5	3919
970.8572	2435.4246	4783.7	3890.2
970.9867	2436.7982	4770.45	3872.95
971.1161	2438.1711	4753.3	3860.1
971.2456	2439.5433	4753	3856.85
971.375	2440.9148	4731.2	3830.55
971.5043	2442.2856	4713.3	3818
971.6336	2443.6557	4711.5	3815.8
971.7629	2445.025	4695.45	3799.25
971.8922	2446.3937	4680.55	3785.4
972.0214	2447.7617	4664.55	3769.1
972.1506	2449.1289	4659.35	3765.05
972.2798	2450.4955	4657.35	3760.25
972.4089	2451.8613	4626.35	3735.15
972.538	2453.2265	4616.1	3720.8
972.6671	2454.5909	4609.45	3713.2
972.7961	2455.9546	4607.75	3714.1
972.9251	2457.3177	4577.15	3684.1
973.0541	2458.68	4568.9	3676.25
973.1831	2460.0416	4569.7	3677.5
973.312	2461.4025	4571.45	3676.85
973.4408	2462.7627	4555.15	3651.5
973.5697	2464.1222	4543.35	3654.7
973.6985	2465.4811	4543.7	3651.1
973.8273	2466.8392	4507.55	3615.45
973.956	2468.1966	4502.45	3607.1
974.0847	2469.5533	4493.95	3597.25
974.2134	2470.9093	4491.15	3597.25
974.3421	2472.2645	4475.2	3580.95
974.4707	2473.6191	4457.9	3565.7
974.5993	2474.973	4443.7	3549.05
974.7278	2476.3262	4433.7	3537.6
974.8563	2477.6787	4426.35	3533
974.9848	2479.0305	4412.25	3520.25
975.1132	2480.3816	4383.5	3488.6
975.2417	2481.7319	4368.4	3474.9
975.37	2483.0816	4353.8	3459.55
975.4984	2484.4306	4343.25	3449.7
975.6267	2485.7789	4330.3	3437.85
975.755	2487.1264	4323.6	3431.3
975.8833	2488.4733	4287.1	3397.65
976.0115	2489.8195	4297.75	3389.65
976.1397	2491.165	4276.4	3381.75
976.2678	2492.5097	4284.65	3392.25
976.3959	2493.8538	4254.35	3363.15
976.524	2495.1972	4226.55	3334.2
976.6521	2496.5398	4217.85	3323.1
976.7801	2497.8818	4211.2	3315.15
976.9081	2499.2231	4189.4	3294.75
977.036	2500.5637	4189.75	3292.75
977.164	2501.9035	4184.1	3288.3
977.2918	2503.2427	4161.45	3262.9
977.4197	2504.5812	4167.15	3274.85
977.5475	2505.919	4142.4	3249.35
977.6753	2507.256	4141.75	3248.5
977.8031	2508.5924	4124	3231.25
977.9308	2509.9281	4107.85	3208.95
978.0585	2511.2631	4094.05	3200.5
978.1861	2512.5974	4090.15	3196.3
978.3137	2513.9309	4071.65	3177.25
978.4413	2515.2638	4082.25	3164.65
978.5689	2516.596	4052.25	3157.4
978.6964	2517.9275	4033.65	3138.7
978.8239	2519.2583	4014.3	3120.4
978.9513	2520.5884	4012.7	3118.3
979.0788	2521.9178	3992.65	3099.6
979.2062	2523.2465	3970.6	3080.5
979.3335	2524.5745	3974.9	3083.9
979.4608	2525.9018	3974.1	3080.9
979.5881	2527.2284	3953.3	3060.25
979.7154	2528.5543	3951.1	3057.85
979.8426	2529.8796	3938	3044.35
979.9698	2531.2041	3938.05	3046.9
980.0969	2532.5279	3922.65	3031.8
980.224	2533.851	3914.85	3021.75
980.3511	2535.1735	3906.3	3013.2
980.4781	2536.4952	3899.7	3006.25
980.6052	2537.8163	3897.4	3003.2
980.7321	2539.1366	3885.45	2989.7
980.8591	2540.4562	3878.6	2985.3
980.986	2541.7752	3871.3	2976.55
981.1129	2543.0935	3860	2964.6
981.2397	2544.411	3852.55	2956.85
981.3665	2545.7279	3832	2937.05
981.4933	2547.0441	3838.3	2944.65
981.62	2548.3596	3847.85	2949.6
981.7467	2549.6744	3832.35	2936.4
981.8734	2550.9885	3824.95	2922.45
982.0001	2552.3019	3793.75	2897.45
982.1267	2553.6146	3797.6	2905.3
982.2532	2554.9266	3793.05	2899.6
982.3798	2556.2379	3761.1	2866.35
982.5063	2557.5485	3767.25	2874
982.6327	2558.8585	3776.2	2876.05
982.7592	2560.1677	3747	2847.3
982.8856	2561.4762	3754.75	2858.7
983.0119	2562.7841	3736.45	2839.25
983.1383	2564.0913	3735.85	2843
983.2646	2565.3977	3724.7	2831.6
983.3908	2566.7035	3716.95	2821.55
983.517	2568.0086	3703.35	2805.9
983.6432	2569.313	3699.7	2804
983.7694	2570.6167	3697.25	2800.3
983.8955	2571.9197	3682.2	2787.65
984.0216	2573.222	3693.7	2797.05
984.1476	2574.5236	3682	2787.45
984.2737	2575.8246	3661.65	2763.9
984.3996	2577.1248	3657.85	2761.25
984.5256	2578.4244	3661.85	2767.8
984.6515	2579.7232	3653.65	2759.35
984.7774	2581.0214	3656.75	2733.75
984.9032	2582.3189	3648.1	2755.65
985.029	2583.6157	3631.65	2733.75
985.1548	2584.9118	3633.2	2738.95
985.2806	2586.2072	3621.55	2727.55
985.4063	2587.5019	3616.1	2717.1
985.5319	2588.7959	3601.4	2705.05
985.6576	2590.0893	3583.7	2687.1
985.7832	2591.3819	3592.9	2700.6
985.9087	2592.6739	3570.05	2677.4
986.0343	2593.9652	3562.85	2665.7
986.1597	2595.2557	3573.5	2680.35
986.2852	2596.5456	3555.4	2659.3
986.4106	2597.8348	3539.85	2645.05
986.536	2599.1234	3537.9	2644.85
986.6614	2600.4112	3530.9	2637.9
986.7867	2601.6983	3521.35	2624.85
986.912	2602.9848	3498.5	2603.85
987.0372	2604.2705	3507.45	2605.75
987.1624	2605.5556	3492.75	2598.1
987.2876	2606.84	3488.15	2593.2
987.4128	2608.1237	3479.6	2583.75
987.5379	2609.4067	3444.85	2549.8
987.6629	2610.689	3457.25	2554.65
987.788	2611.9707	3440.75	2543.8
987.913	2613.2516	3418.8	2520.2
988.0379	2614.5319	3421.1	2526.65
988.1629	2615.8115	3411.75	2517.65
988.2878	2617.0903	3388.65	2494.65
988.4126	2618.3685	3381.8	2488.25
988.5375	2619.6461	3379.45	2484.2
988.6622	2620.9229	3381.55	2486.7
988.787	2622.199	3360.6	2466.15
988.9117	2623.4745	3362.5	2467.35
989.0364	2624.7493	3352.95	2458.85
989.161	2626.0234	3332.05	2439.35
989.2857	2627.2968	3320.3	2428.3
989.4102	2628.5695	3323.1	2428.6
989.5348	2629.8415	3315.8	2424.2
989.6593	2631.1128	3300.95	2408.2
989.7837	2632.3835	3289.35	2396.85
989.9082	2633.6535	3266.3	2373.3
990.0326	2634.9228	3280.9	2388.4
990.1569	2636.1914	3266.5	2373.45
990.2812	2637.4593	3253.3	2359.15
990.4055	2638.7265	3241.95	2349.8
990.5298	2639.9931	3244.6	2350.6
990.654	2641.259	3237.85	2344.2
990.7782	2642.5242	3233.8	2341.55
990.9023	2643.7887	3212.4	2318.15
991.0264	2645.0525	3220.15	2327.15
991.1505	2646.3156	3214.2	2305.8
991.2745	2647.5781	3176.7	2284.05
991.3985	2648.8398	3200.75	2307.1
991.5225	2650.1009	3212.4	2294
991.6464	2651.3613	3170.4	2276.35
991.7703	2652.6211	3168.95	2276.95
991.8942	2653.8801	3153.45	2259.15
992.018	2655.1385	3148	2251.75
992.1418	2656.3961	3137.95	2244.6
992.2655	2657.6531	3141.55	2249
992.3892	2658.9094	3138.25	2244.2
992.5129	2660.1651	3133.25	2239.7
992.6366	2661.42	3113.65	2220.45
992.7602	2662.6743	3113.2	2219.55
992.8837	2663.9279	3123.05	2230.45
993.0073	2665.1808	3114.05	2220.25
993.1307	2666.433	3095.95	2200.5
993.2542	2667.6846	3085.25	2192.7
993.3776	2668.9354	3084.25	2187.95
993.501	2670.1856	3075.85	2183.15
993.6244	2671.4351	3070.75	2180.35
993.7477	2672.6839	3074.15	2179.8
993.8709	2673.9321	3057.75	2164.35
993.9942	2675.1795	3066.75	2173.6
994.1174	2676.4263	3054.65	2163.15
994.2405	2677.6724	3042.05	2150.25
994.3637	2678.9179	3048.05	2154.35
994.4868	2680.1626	3043.2	2152.4
994.6098	2681.4067	3043.95	2150.45
994.7328	2682.6501	3035.15	2144.6
994.8558	2683.8928	3011.3	2117.6
994.9788	2685.1348	3004.1	2113.05
995.1017	2686.3761	3009.8	2115.95
995.2245	2687.6168	2983.85	2091.85
995.3474	2688.8568	2983.6	2092.1
995.4702	2690.0961	2980.15	2087.85
995.5929	2691.3348	2980.3	2087.5
995.7156	2692.5727	2962.2	2070.05
995.8383	2693.81	2954.2	2063.2
995.961	2695.0466	2955.65	2064.4
996.0836	2696.2826	2941.3	2048.7
996.2062	2697.5178	2937.25	2041.05
996.3287	2698.7524	2933	2038.3
996.4512	2699.9863	2927.9	2034.75
996.5737	2701.2195	2919.25	2029.45
996.6961	2702.452	2910.5	2016.55
996.8185	2703.6839	2902.2	2008.95
996.9408	2704.9151	2914.8	2024.55
997.0631	2706.1456	2903.4	2008.85
997.1854	2707.3755	2913.55	2019.25
997.3077	2708.6046	2906.65	2013.4
997.4299	2709.8331	2904.55	2011.3
997.552	2711.0609	2907.45	2015.1
997.6742	2712.2881	2903.95	2013
997.7963	2713.5145	2903.8	2010.4
997.9183	2714.7403	2906.45	2014
998.0403	2715.9654	2907.7	2014.9
998.1623	2717.1899	2913.75	2006.15
998.2842	2718.4136	2915.65	2023.8
998.4062	2719.6367	2923	2033.15
998.528	2720.8591	2912.55	2013.85
998.6498	2722.0809	2917	2025.35
998.7716	2723.3019	2924.45	2029.65
998.8934	2724.5223	2919.75	2026.7
999.0151	2725.7421	2928.3	2033.9
999.1368	2726.9611	2919.4	2027.95
999.2584	2728.1795	2906.15	2009.55
999.38	2729.3972	2899.7	2009.25
999.5016	2730.6142	2884.75	1983.6
999.6231	2731.8306	2855	1961.8
999.7446	2733.0462	2851.05	1959.9
999.8661	2734.2612	2830.55	1934.3
999.9875	2735.4756	2804.5	1911.8
1000.1089	2736.6892	2794.95	1904.1
1000.2302	2737.9022	2767.45	1875.85
1000.3515	2739.1145	2747.55	1856.6
1000.4728	2740.3262	2730.85	1829.6
1000.594	2741.5372	2706.9	1815.25
1000.7152	2742.7475	2706.85	1817.25
1000.8363	2743.9571	2688.7	1795.7
1000.9575	2745.1661	2670.45	1775.45
1001.0785	2746.3744	2674.45	1782.9
1001.1996	2747.582	2649.15	1757.1
1001.3206	2748.7889	2642.05	1750.65
1001.4415	2749.9952	2634.9	1745.35
1001.5625	2751.2008	2632.45	1742.6
1001.6833	2752.4057	2625.85	1732.5
1001.8042	2753.61	2610.6	1718.4
1001.925	2754.8136	2599	1706.9
1002.0458	2756.0165	2592.65	1702
1002.1665	2757.2188	2587.95	1696.7
1002.2872	2758.4204	2580.85	1691
1002.4078	2759.6213	2567.7	1675.2
1002.5285	2760.8215	2576.6	1682.9
1002.649	2762.0211	2562.85	1671.65
1002.7696	2763.22	2556.65	1663.65
1002.8901	2764.4182	2541.15	1649.45
1003.0106	2765.6158	2542.8	1651.9
1003.131	2766.8127	2529.1	1637.75
1003.2514	2768.009	2515.15	1625.1
1003.3717	2769.2045	2526.05	1636.1
1003.492	2770.3994	2516.7	1623.9
1003.6123	2771.5936	2501.9	1608.65
1003.7325	2772.7872	2493.75	1605.4
1003.8527	2773.9801	2479.15	1590.05
1003.9729	2775.1723	2505.1	1596.45
1004.093	2776.3639	2480.6	1590.7
1004.2131	2777.5548	2472.8	1579.95
1004.3331	2778.745	2462.15	1569.6
1004.4531	2779.9346	2473.65	1583.5
1004.5731	2781.1235	2479	1588.25
1004.693	2782.3117	2468.8	1580.55
1004.8129	2783.4992	2464.45	1575.2
1004.9328	2784.6861	2455.25	1565.85
1005.0526	2785.8723	2468.05	1577.45
1005.1723	2787.0579	2456.4	1566
1005.2921	2788.2428	2463	1573.25
1005.4118	2789.427	2464.45	1574.4
1005.5314	2790.6106	2452.25	1562.45
1005.651	2791.7935	2454	1562.75
1005.7706	2792.9757	2459.05	1569.85
1005.8902	2794.1573	2472.5	1582.05
1006.0097	2795.3382	2472.1	1582.2
1006.1291	2796.5184	2478.05	1591.05
1006.2485	2797.698	2495.25	1603.3
1006.3679	2798.8769	2503.5	1614.75
1006.4873	2800.0551	2517.25	1629.35
1006.6066	2801.2327	2514.6	1621.9
1006.7258	2802.4096	2525.65	1637.1
1006.8451	2803.5859	2537.15	1648.6
1006.9642	2804.7615	2546.5	1655.3
1007.0834	2805.9364	2562.25	1674.1
1007.2025	2807.1106	2590.35	1700.3
1007.3216	2808.2842	2592.85	1702.1
1007.4406	2809.4572	2616.4	1726.1
1007.5596	2810.6294	2660	1768.8
1007.6785	2811.801	2678.1	1790.75
1007.7975	2812.972	2716.75	1828.55
1007.9163	2814.1423	2745	1855.75
1008.0352	2815.3119	2773	1884.25
1008.154	2816.4808	2822.45	1934.45
1008.2727	2817.6491	2851.75	1961.6
1008.3914	2818.8167	2883.1	1995.4
1008.5101	2819.9837	2931.15	2038.2
1008.6288	2821.15	2966.6	2077.65
1008.7474	2822.3157	3016.6	2128.45
1008.8659	2823.4807	3041.1	2152.95
1008.9844	2824.645	3079.5	2190.15
1009.1029	2825.8086	3116.05	2228.4
1009.2214	2826.9716	3151.2	2262.5
1009.3398	2828.134	3186.55	2299.05
1009.4581	2829.2957	3216.35	2328.85
1009.5764	2830.4567	3234.95	2346.25
1009.6947	2831.617	3243.6	2353.3
1009.813	2832.7767	3253.95	2366.1
1009.9312	2833.9358	3255.35	2368.3
1010.0493	2835.0941	3245.9	2356.5
1010.1675	2836.2519	3234.7	2347
1010.2855	2837.4089	3222.65	2335.2
1010.4036	2838.5653	3201.35	2315.85
1010.5216	2839.7211	3204.7	2319.25
1010.6396	2840.8761	3211.65	2321.05
1010.7575	2842.0306	3208.25	2319.45
1010.8754	2843.1843	3239.6	2351.5
1010.9932	2844.3374	3282.7	2395.75
1011.111	2845.4899	3321.65	2430.7
1011.2288	2846.6417	3377.5	2490.95
1011.3465	2847.7928	3446.1	2558.8
1011.4642	2848.9433	3504.2	2617.2
1011.5818	2850.0931	3560.75	2671.25
1011.6995	2851.2422	3616.3	2725.35
1011.817	2852.3907	3669.65	2781.85
1011.9345	2853.5385	3726.9	2839.3
1012.052	2854.6857	3784.9	2889.55
1012.1695	2855.8323	3809	2921.15
1012.2869	2856.9781	3829.9	2941.05
1012.4042	2858.1233	3886.65	2999
1012.5216	2859.2679	3907.65	3020.5
1012.6389	2860.4118	3953.8	3066.7
1012.7561	2861.555	3979.8	3088.9
1012.8733	2862.6976	4012.55	3121.45
1012.9905	2863.8395	4041.1	3155.5
1013.1076	2864.9808	4066.4	3180.75
1013.2247	2866.1214	4075.8	3190.15
1013.3417	2867.2614	4082.3	3194.1
1013.4587	2868.4007	4089.45	3198.9
1013.5757	2869.5393	4094	3206.15
1013.6926	2870.6773	4109.65	3217.75
1013.8095	2871.8146	4124.6	3233.15
1013.9263	2872.9513	4116.95	3226.85
1014.0431	2874.0874	4099.95	3213.5
1014.1599	2875.2227	4075.7	3186.7
1014.2766	2876.3574	4068.2	3181.9
1014.3933	2877.4915	4045.85	3157.4
1014.51	2878.6249	4003.3	3117
1014.6266	2879.7577	3990.2	3103.35
1014.7431	2880.8898	3963.8	3067.1
1014.8596	2882.0212	3956.35	3070.9
1014.9761	2883.152	3937.45	3048.25
1015.0925	2884.2821	3931.05	3044.3
1015.2089	2885.4116	3907.6	3019.55
1015.3253	2886.5405	3905.75	3019.8
1015.4416	2887.6686	3923.85	3033.8
1015.5579	2888.7962	3915.65	3030.55
1015.6741	2889.923	3914.45	3029
1015.7903	2891.0493	3930.6	3046.3
1015.9065	2892.1748	3927.75	3040.55
1016.0226	2893.2997	3928.15	3042.3
1016.1387	2894.424	3947.45	3063.05
1016.2547	2895.5476	3952.2	3067.05
1016.3707	2896.6706	3963.2	3077.75
1016.4866	2897.7929	3969.7	3081.25
1016.6025	2898.9145	4011.7	3126.05
1016.7184	2900.0355	4039.15	3151.05
1016.8342	2901.1559	4048.45	3161.95
1016.95	2902.2756	4084.65	3199.25
1017.0658	2903.3946	4104.15	3217.4
1017.1815	2904.513	4118.8	3228.4
1017.2971	2905.6308	4137.75	3252.25
1017.4127	2906.7479	4153.3	3265.1
1017.5283	2907.8643	4168.3	3281.25
1017.6439	2908.9801	4180.95	3293.4
1017.7594	2910.0953	4188.45	3303.3
1017.8748	2911.2098	4185.9	3295.9
1017.9902	2912.3236	4177.25	3284.9
1018.1056	2913.4368	4155.55	3265.65
1018.2209	2914.5494	4136	3249.5
1018.3362	2915.6613	4110.4	3219.4
1018.4515	2916.7725	4091.05	3200.95
1018.5667	2917.8831	4058.25	3170.95
1018.6819	2918.9931	4028.15	3139.6
1018.797	2920.1024	4007.45	3120.9
1018.9121	2921.211	3971.65	3084.9
1019.0271	2922.319	3955	3065.25
1019.1421	2923.4264	3942.35	3055.35
1019.2571	2924.5331	3927.65	3043
1019.372	2925.6391	3908.7	3022.2
1019.4869	2926.7445	3910	3026.55
1019.6017	2927.8493	3913.45	3027.05
1019.7165	2928.9534	3893.1	3006.75
1019.8313	2930.0569	3887.95	3000.85
1019.946	2931.1597	3888.55	3000.9
1020.0606	2932.2619	3888.8	3001.75
1020.1753	2933.3634	3872.65	2985.7
1020.2899	2934.4643	3872.15	2979.7
1020.4044	2935.5645	3840.15	2947.45
1020.5189	2936.6641	3806.35	2915.1
1020.6334	2937.763	3783.45	2899.6
1020.7478	2938.8613	3748.65	2861.5
1020.8622	2939.959	3687.65	2797.15
1020.9765	2941.056	3619.55	2733.25
1021.0908	2942.1523	3557.2	2669.55
1021.2051	2943.248	3479.6	2593.05
1021.3193	2944.3431	3386.3	2500.45
1021.4334	2945.4375	3294.8	2409.35
1021.5476	2946.5313	3201.9	2317.5
1021.6617	2947.6244	3129.75	2244.15
1021.7757	2948.7169	3046.25	2161.7
1021.8897	2949.8087	2968	2082.5
1022.0037	2950.8999	2870.45	1984.95
1022.1176	2951.9904	2807.5	1922.8
1022.2315	2953.0803	2728.35	1841.35
1022.3453	2954.1696	2675.25	1789.9
1022.4591	2955.2582	2624.9	1739.05
1022.5728	2956.3462	2597.8	1713.15
1022.6865	2957.4335	2552.65	1665.1
1022.8002	2958.5202	2536.3	1649.4
1022.9138	2959.6062	2492.15	1606.2
1023.0274	2960.6916	2476.45	1590.9
1023.141	2961.7764	2461.05	1573.85
1023.2545	2962.8605	2436.25	1550.05
1023.3679	2963.9439	2420.1	1537.4
1023.4813	2965.0267	2411.35	1524.8
1023.5947	2966.1089	2426.35	1516.75
1023.708	2967.1905	2392.65	1507.95
1023.8213	2968.2714	2386.9	1502.7
1023.9346	2969.3516	2376.5	1490.1
1024.0478	2970.4312	2393.5	1501.3
1024.1609	2971.5102	2390.35	1504.9
1024.274	2972.5885	2391.35	1505.6
1024.3871	2973.6662	2392.25	1502.5
1024.5002	2974.7432	2377.15	1493.45
1024.6132	2975.8196	2376.45	1491.2
1024.7261	2976.8954	2361	1477.5
1024.839	2977.9705	2347.6	1461.8
1024.9519	2979.045	2341.7	1457.45
1025.0647	2980.1188	2318.65	1434.45
1025.1775	2981.192	2289.75	1405.25
1025.2902	2982.2645	2286.45	1401.35
1025.4029	2983.3364	2261.85	1375.9
1025.5156	2984.4077	2229.25	1346.6
1025.6282	2985.4783	2200.4	1308.65
1025.7407	2986.5483	2177.3	1293.6
1025.8532	2987.6177	2142.4	1259.4
1025.9657	2988.6864	2125	1241.6
1026.0782	2989.7545	2094.9	1209.3
1026.1906	2990.8219	2048.4	1162.95
1026.3029	2991.8887	2029.5	1142.7
1026.4152	2992.9548	2001.2	1116.65
1026.5275	2994.0204	1969.7	1087.95
1026.6397	2995.0852	1945.1	1063.25
1026.7519	2996.1495	1919.4	1032.5
1026.864	2997.2131	1891.15	1004.9
1026.9761	2998.276	1877.4	992.45
1027.0882	2999.3383	1853.35	967.15
1027.2002	3000.4	1834.9	949.75
1027.3122	3001.4611	1827.4	942.95
1027.4241	3002.5215	1806.9	922.8
1027.536	3003.5812	1786.9	903.25
1027.6478	3004.6404	1785.05	901.9
1027.7596	3005.6989	1777.2	891.95
1027.8714	3006.7567	1774.55	890.25
1027.9831	3007.8139	1764.85	862.6
1028.0947	3008.8705	1749.85	866.3
1028.2064	3009.9264	1748.15	846.2
1028.3179	3010.9818	1732.6	848.25
1028.4295	3012.0364	1733.9	849.6
1028.541	3013.0905	1721.85	837.3
1028.6524	3014.1439	1720.45	836.1
1028.7638	3015.1966	1712.3	827.5
1028.8752	3016.2487	1710.9	826.85
1028.9865	3017.3002	1703.85	814.2
1029.0978	3018.3511	1700.05	815.6
1029.209	3019.4013	1705.6	820.55
1029.3202	3020.4509	1688.55	803.9
1029.4314	3021.4998	1697.6	814.6
1029.5425	3022.5481	1705.45	822.9
1029.6535	3023.5958	1694.2	808.25
1029.7645	3024.6428	1695.05	809.55
1029.8755	3025.6892	1684.45	799.55
1029.9864	3026.735	1691.35	807.2
1030.0973	3027.7802	1682.25	799.15
1030.2082	3028.8247	1683	799.1
1030.319	3029.8685	1688.55	805.3
1030.4297	3030.9118	1688.8	804.3
1030.5404	3031.9544	1692.1	809.75
1030.6511	3032.9963	1696.25	812.15
1030.7617	3034.0376	1696.15	811.9
1030.8723	3035.0783	1701.25	813.3
1030.9829	3036.1184	1705.25	820.4
1031.0934	3037.1578	1690.2	806.45
1031.2038	3038.1966	1696.8	813.9
1031.3142	3039.2348	1687.4	803.9
1031.4246	3040.2723	1701.05	806.3
1031.5349	3041.3092	1692.8	811.65
1031.6452	3042.3455	1682.25	797.75
1031.7554	3043.3811	1681.9	798.85
1031.8656	3044.4161	1679.2	793.25
1031.9758	3045.4505	1670.05	788.6
1032.0859	3046.4842	1669.45	785.45
1032.1959	3047.5173	1651.8	768.8
1032.3059	3048.5498	1654.1	773.45
1032.4159	3049.5816	1647.85	761.9
1032.5258	3050.6128	1641.4	755.95
1032.6357	3051.6434	1641	756.3
1032.7455	3052.6734	1634.25	749.65
1032.8553	3053.7027	1624.5	742.65
1032.9651	3054.7314	1612.5	729.4
1033.0748	3055.7594	1616	732.55
1033.1845	3056.7868	1601.8	718.7
1033.2941	3057.8136	1593.25	710.4
1033.4037	3058.8398	1593.4	711.2
1033.5132	3059.8653	1583.15	699.45
1033.6227	3060.8902	1578.1	694.05
1033.7321	3061.9145	1582.15	697.6
1033.8415	3062.9381	1562.75	678.45
1033.9509	3063.9612	1581.7	682.25
1034.0602	3064.9835	1560.8	677.5
1034.1694	3066.0053	1555.6	670.25
1034.2787	3067.0264	1548.3	666.85
1034.3878	3068.0469	1546	661.45
1034.497	3069.0668	1532.1	646.4
1034.6061	3070.086	1524.95	643.75
1034.7151	3071.1046	1517.75	633.1
1034.8241	3072.1226	1506.2	623.2
1034.9331	3073.1399	1503.95	620.5
1035.042	3074.1567	1489.7	605.8
1035.1508	3075.1727	1483.3	597.65
1035.2597	3076.1882	1478.35	595.8
1035.3684	3077.203	1471	588.9
1035.4772	3078.2173	1458.55	574.35
1035.5859	3079.2308	1449.2	562.3
1035.6945	3080.2438	1450.05	564.15
1035.8031	3081.2561	1437.15	553.7
1035.9117	3082.2678	1428.55	546.3
1036.0202	3083.2789	1424.15	540.15
1036.1286	3084.2893	1421.05	538.3
1036.2371	3085.2991	1408.05	524.95
1036.3454	3086.3083	1408.1	520.5
1036.4538	3087.3169	1403.7	519
1036.562	3088.3248	1402.1	516.25
1036.6703	3089.3321	1391.95	506.3
1036.7785	3090.3388	1380.6	497.35
1036.8866	3091.3449	1368	484.2
1036.9948	3092.3503	1373.2	488.25
1037.1028	3093.3551	1367.85	486.4
1037.2108	3094.3593	1367.5	486.15
1037.3188	3095.3629	1354.45	470.2
1037.4267	3096.3658	1350.3	466.15
1037.5346	3097.3681	1358.1	476
1037.6425	3098.3698	1344.2	458.75
1037.7503	3099.3708	1348	458.5
1037.858	3100.3713	1342.1	460.55
1037.9657	3101.3711	1333.8	448.25
1038.0734	3102.3702	1451.9	433.15
1038.181	3103.3688	1336.15	452.2
1038.2886	3104.3667	1329.35	448.4
1038.3961	3105.364	1320.9	439.35
1038.5036	3106.3607	1321.95	435.95
1038.611	3107.3568	1317.2	435.15
1038.7184	3108.3522	1308.1	425.45
1038.8257	3109.347	1316.9	434.15
1038.933	3110.3412	1317.55	432.65
1039.0403	3111.3348	1302.65	418.8
1039.1475	3112.3277	1297	416.1
1039.2547	3113.32	1299.9	416.85
1039.3618	3114.3117	1300.9	416.95
1039.4689	3115.3028	1292	409.4
1039.5759	3116.2932	1289.4	403.9
1039.6829	3117.2831	1293.9	404.55
1039.7898	3118.2723	1282.9	398.15
1039.8967	3119.2608	1283.1	401.35
1040.0035	3120.2488	1277.75	396.05
1040.1103	3121.2361	1282.15	398.55
1040.2171	3122.2229	1277.15	394.65
1040.3238	3123.209	1276.15	392.1
1040.4305	3124.1944	1278.3	395.9
1040.5371	3125.1793	1270.8	388.35
1040.6437	3126.1635	1269.2	388.15
1040.7502	3127.1471	1266.6	384.2
1040.8567	3128.1301	1263.55	381.55
1040.9631	3129.1125	1258.4	376.2
1041.0695	3130.0942	1255.85	373.95
1041.1759	3131.0753	1260.9	369.7
1041.2822	3132.0558	1253.45	367.05
1041.3884	3133.0357	1250.65	367.05
1041.4946	3134.015	1242.3	358.05
1041.6008	3134.9936	1247.45	363.9
1041.7069	3135.9716	1262.8	358.4
1041.813	3136.949	1243.05	360.2
1041.919	3137.9258	1257.3	357.15
1042.025	3138.902	1246.85	358.8
1042.1309	3139.8775	1240.75	360.8
1042.2368	3140.8524	1230.3	348.6
1042.3427	3141.8267	1236.3	352.45
1042.4485	3142.8004	1231.55	350.4
1042.5542	3143.7735	1235.5	347.25
1042.6599	3144.7459	1235	349.8
1042.7656	3145.7178	1227.35	341.25
1042.8712	3146.689	1223.1	343
1042.9768	3147.6596	1220.85	336
1043.0823	3148.6295	1217.05	333.1
1043.1878	3149.5989	1215.5	334.6
1043.2932	3150.5676	1215.1	333.1
1043.3986	3151.5357	1210.8	328.3
1043.5039	3152.5032	1207.75	327.7
1043.6092	3153.4701	1211.15	329.75
1043.7145	3154.4364	1207.95	322.5
1043.8197	3155.402	1202.25	322.3
1043.9248	3156.367	1203.7	316.85
1044.03	3157.3315	1240.3	323.55
1044.135	3158.2952	1196.4	312.05
1044.24	3159.2584	1196.55	317.2
1044.345	3160.221	1195.9	312.8
1044.4499	3161.1829	1188.95	306.6
1044.5548	3162.1442	1192.25	310.8
1044.6596	3163.105	1188.25	303.85
1044.7644	3164.065	1181.95	302.3
1044.8692	3165.0245	1188.2	301.8
1044.9739	3165.9834	1179.5	297.8
1045.0785	3166.9416	1185.4	304.15
1045.1831	3167.8993	1183.25	300.35
1045.2877	3168.8563	1177.4	294.6
1045.3922	3169.8127	1170.85	289.5
1045.4966	3170.7684	1170.75	287.75
1045.6011	3171.7236	1179	295.6
1045.7054	3172.6782	1174.9	292.1
1045.8098	3173.6321	1165.85	283.05
1045.914	3174.5854	1171.4	284.45
1046.0183	3175.5381	1169.9	288.65
1046.1224	3176.4902	1167.05	285.55
1046.2266	3177.4417	1162.1	279.2
1046.3307	3178.3926	1161.85	279.5
1046.4347	3179.3428	1161.4	279.7
1046.5387	3180.2924	1157.2	274.65
1046.6427	3181.2415	1158.55	277.65
1046.7466	3182.1899	1163.3	280.4
1046.8504	3183.1377	1155.4	275.5
1046.9542	3184.0848	1152.5	269.25
1047.058	3185.0314	1156	273.15
1047.1617	3185.9773	1154.35	272.9
1047.2654	3186.9227	1149.1	267.6
1047.369	3187.8674	1148	265.75
1047.4726	3188.8115	1149.1	262.8
1047.5761	3189.755	1144.45	263.65
1047.6796	3190.6979	1143.75	261.5
1047.783	3191.6402	1136.2	256.3
1047.8864	3192.5818	1140.45	257.3
1047.9898	3193.5229	1147.4	259.75
1048.0931	3194.4633	1136.65	256.2
1048.1963	3195.4031	1138.3	257.25
1048.2995	3196.3423	1129.45	249.15
1048.4027	3197.2809	1137	255.25
1048.5058	3198.2189	1124.65	244.95
1048.6089	3199.1563	1133.25	243.4
1048.7119	3200.0931	1129.95	249.6
1048.8148	3201.0292	1126.3	246.5
1048.9178	3201.9648	1122.75	239.85
1049.0206	3202.8997	1126.2	241.45
1049.1235	3203.834	1128.4	246
1049.2262	3204.7677	1124.05	244.45
1049.329	3205.7008	1124.7	242.1
1049.4317	3206.6333	1116.45	237.05
1049.5343	3207.5652	1118.9	234.75
1049.6369	3208.4964	1113.45	231.4
1049.7394	3209.4271	1120.95	239.85
1049.8419	3210.3571	1119.05	238.45
1049.9444	3211.2865	1113.75	229.3
1050.0468	3212.2154	1117.55	236.45
1050.1491	3213.1436	1116	230.2
1050.2514	3214.0712	1118.5	231.55
1050.3537	3214.9982	1110.9	228.5
1050.4559	3215.9246	1104.6	223.7
1050.5581	3216.8503	1111	230.75
1050.6602	3217.7755	1108	225.1
1050.7623	3218.7001	1103.05	221.05
1050.8643	3219.624	1107.85	225.85
1050.9663	3220.5473	1103.3	222.45
1051.0682	3221.4701	1104.85	223.1
1051.1701	3222.3922	1105.1	223
1051.2719	3223.3137	1098.9	216.2
1051.3737	3224.2346	1096.8	216.3
1051.4754	3225.1549	1098.05	216.75
1051.5771	3226.0746	1099	220.15
1051.6788	3226.9937	1093.25	213.3
1051.7804	3227.9121	1094.55	215.75
1051.8819	3228.83	1094	211.7
1051.9834	3229.7473	1095.45	213.65
1052.0849	3230.6639	1092.65	211.7
1052.1863	3231.5799	1089.85	209.15
1052.2876	3232.4954	1086.8	202.3
1052.3889	3233.4102	1082.6	201.1
1052.4902	3234.3244	1087.75	205.15
1052.5914	3235.238	1084.25	204.65
1052.6926	3236.151	1106.8	199.9
1052.7937	3237.0634	1082.5	201.35
1052.8948	3237.9752	1082	200.9
1052.9958	3238.8864	1077.75	195.8
1053.0968	3239.797	1078.85	198.15
1053.1977	3240.7069	1079.1	197.65
1053.2986	3241.6163	1078.55	196.15
1053.3994	3242.5251	1077.9	196.6
1053.5002	3243.4332	1072.75	190.55
1053.6009	3244.3408	1073.1	192.2
1053.7016	3245.2477	1074.5	195.1
1053.8022	3246.154	1067.95	184.55
1053.9028	3247.0598	1076.15	195.15
1054.0034	3247.9649	1064.55	181.75
1054.1039	3248.8694	1062.55	180.95
1054.2043	3249.7733	1064.95	182.7
1054.3047	3250.6766	1064.2	183.95
1054.4051	3251.5793	1062.95	181.95
1054.5054	3252.4814	1057.75	177.15
1054.6056	3253.3829	1057.3	175.8
1054.7058	3254.2838	1059.75	178.25
1054.806	3255.1841	1063.95	185.1
1054.9061	3256.0838	1054.5	172.8
1055.0061	3256.9829	1053.75	174.45
1055.1062	3257.8814	1053.7	170.35
1055.2061	3258.7792	1055.85	175.9
1055.306	3259.6765	1052.75	170.25
1055.4059	3260.5731	1048.25	167.75
1055.5057	3261.4692	1043.25	161.9
1055.6055	3262.3647	1046.45	164.7
1055.7052	3263.2595	1042	161.45
1055.8049	3264.1538	1033.5	151.7
1055.9045	3265.0474	1038.85	158
1056.0041	3265.9404	1035.1	154.5
1056.1036	3266.8329	1030.05	148.8
1056.2031	3267.7247	1039.35	148
1056.3025	3268.616	1022.6	143.1
1056.4019	3269.5066	1021.9	142.35
1056.5013	3270.3966	1016.85	132.75
1056.6005	3271.286	1010.7	131.9
