Software Version:	3.9.2.0
Unit SN:	10000200
Spectrometer SN:	6960
Date:	3/26/2024 2:02:35 PM
Data Line Index:	25
Spectral Points:	2048
Integration time (ms):	125
Averages:	20
Delay (ms):	30000
Sequence Number:	1
Processing:	dark subtract
Laser Power (mW):	300
Laser Current (mA):	819
Laser Diode Temp (C):	25
Laser Case Temp (C):	27.4
System Temp (C):	27.4
Spectrometer Temp (C):	25.3
CCD Temp (C):	0.002
Secondary Temp (C):	20.008
Heatsink Temp (C):	22.853
CCDPCB Temp (C):	36.874
SecondaryPCB Temp (C):	34.417

Wavelength	RamanShift	Raw Counts	Dark Subtracted
787.061	30.1047	622.15	210.7
787.2016	32.3739	627.2	218.35
787.3422	34.6426	645.2	233.7
787.4828	36.9109	663	253.65
787.6235	39.1787	681.9	266.3
787.7642	41.4461	696.7	275.15
787.9049	43.7131	721.8	295.95
788.0456	45.9796	746.4	319.25
788.1863	48.2456	768.85	336.25
788.3271	50.5112	787.05	351.35
788.4679	52.7764	809.9	371.8
788.6087	55.0411	839.75	398.8
788.7496	57.3054	867	421.1
788.8904	59.5692	897.6	450.2
789.0313	61.8326	935.55	482.85
789.1722	64.0955	962.75	506.25
789.3132	66.3579	1005.05	543.65
789.4541	68.6199	1056.65	593.5
789.5951	70.8815	1143.65	678.4
789.7361	73.1426	1330.85	860.4
789.8771	75.4032	1780.1	1303.3
790.0181	77.6634	2916.55	2433.4
790.1592	79.9231	5750.45	5259.25
790.3003	82.1824	12218.4	11709.4
790.4414	84.4412	26128.15	25587.6
790.5825	86.6995	50248.4	49667.85
790.7237	88.9574	61485	60863.1
790.8648	91.2148	64699.8	64049.75
791.006	93.4717	65012.55	64347.25
791.1472	95.7282	65134.8	64458.55
791.2885	97.9842	65201.6	64517.35
791.4297	100.2398	65171.7	64489.35
791.571	102.4949	65167.4	64478.55
791.7123	104.7495	65141.05	64447.15
791.8536	107.0036	65085.9	64395.7
791.9949	109.2573	65118.9	64427.5
792.1363	111.5105	65057.6	64358.05
792.2777	113.7632	65046.95	64350.95
792.4191	116.0154	65067.4	64361.75
792.5605	118.2672	65085.6	64384.9
792.7019	120.5185	65069.5	64368.95
792.8434	122.7693	65075.15	64372.25
792.9849	125.0197	64966.55	64261.5
793.1264	127.2696	65123.6	64414.7
793.2679	129.519	65072.6	64357.45
793.4094	131.7679	65146.55	64433.65
793.551	134.0163	64983.25	64260.95
793.6926	136.2642	65045.95	64318.8
793.8342	138.5117	65138.15	64412.1
793.9758	140.7587	65088.9	64357
794.1175	143.0052	65072.2	64338.1
794.2591	145.2512	64990.15	64261.2
794.4008	147.4967	65091.8	64360.3
794.5425	149.7417	65050.5	64315.7
794.6842	151.9863	65040.7	64304
794.826	154.2304	64989.65	64247.25
794.9677	156.4739	65020.9	64277.75
795.1095	158.717	65092.2	64347.5
795.2513	160.9596	65037.1	64283.25
795.3931	163.2017	64945.4	64194.95
795.535	165.4433	65019.65	64266.1
795.6768	167.6844	64957.45	64202.3
795.8187	169.925	64990.7	64232.9
795.9606	172.1651	64923.4	64161.45
796.1025	174.4047	64956.6	64195.65
796.2445	176.6439	64931.65	64169.25
796.3864	178.8825	64883.8	64121.6
796.5284	181.1206	64962.7	64192.65
796.6704	183.3582	64938.5	64161.95
796.8124	185.5954	64907.9	64128.45
796.9544	187.832	64907	64126.65
797.0965	190.0681	64832.85	64050.9
797.2386	192.3037	64940.8	64154.8
797.3806	194.5388	65054.1	64266.65
797.5228	196.7734	64788.55	63994.35
797.6649	199.0075	65037.05	64242.5
797.807	201.2411	64918.55	64120.95
797.9492	203.4742	65067.2	64268.6
798.0914	205.7068	65020.9	64219.95
798.2336	207.9389	65009.9	64209
798.3758	210.1704	64997.6	64196.45
798.518	212.4015	65096.2	64292.4
798.6603	214.632	64990.7	64186
798.8025	216.862	65119.15	64324.7
798.9448	219.0915	65046.6	64258.2
799.0871	221.3205	65058.05	64269.45
799.2294	223.549	65164.55	64383.25
799.3718	225.777	65155.1	64372.15
799.5141	228.0044	65234.7	64447.25
799.6565	230.2314	65182.3	64398.65
799.7989	232.4578	65196.1	64418.15
799.9413	234.6837	65234.65	64440.8
800.0837	236.909	65422.95	64630.6
800.2262	239.1339	65143.3	64326.95
800.3687	241.3582	65252.9	64450.35
800.5111	243.582	65248.75	64416
800.6536	245.8053	65216.2	64395.75
800.7961	248.0281	65236.25	64419.3
800.9387	250.2503	65250.35	64432.7
801.0812	252.472	65140.6	64315.7
801.2238	254.6932	65215.65	64393.35
801.3664	256.9139	65162.7	64335.75
801.509	259.134	65349.1	64514.6
801.6516	261.3536	65156.35	64326.25
801.7942	263.5727	65242.7	64408.6
801.9369	265.7912	65186.35	64354.45
802.0795	268.0092	65196.55	64366.4
802.2222	270.2267	65231.05	64400.15
802.3649	272.4436	65130.55	64299.4
802.5076	274.6601	65212.95	64372.1
802.6504	276.8759	65257.15	64421.2
802.7931	279.0913	65176.95	64342.6
802.9359	281.3061	65227.9	64390.15
803.0787	283.5204	65214.65	64372.8
803.2215	285.7341	65206.7	64360
803.3643	287.9473	65289.25	64429.65
803.5071	290.16	65242.4	64390.1
803.6499	292.3721	65265.35	64421.35
803.7928	294.5837	65248.4	64398.4
803.9357	296.7947	65200.05	64353.25
804.0786	299.0052	65350.5	64498.55
804.2215	301.2152	65282.45	64431.9
804.3644	303.4246	65299.3	64455.75
804.5074	305.6334	65282.35	64440
804.6503	307.8418	65164.55	64315.85
804.7933	310.0495	65139.25	64288.9
804.9363	312.2568	65142.3	64292.1
805.0793	314.4635	65155.75	64300.8
805.2223	316.6696	65197.1	64342.55
805.3653	318.8752	65242.85	64382.85
805.5084	321.0802	65045.35	64189.75
805.6514	323.2847	65143.1	64285.05
805.7945	325.4887	65130.9	64273.3
805.9376	327.692	65096.6	64236.05
806.0807	329.8949	65144.45	64282.15
806.2238	332.0972	65081.7	64220.45
806.367	334.2989	65102.2	64239.2
806.5101	336.5001	65156.1	64291.3
806.6533	338.7007	65000.25	64133.6
806.7965	340.9008	65071.2	64203.4
806.9397	343.1003	65076.1	64209.35
807.0829	345.2992	65124.7	64253.5
807.2261	347.4976	65037	64170.7
807.3693	349.6955	65078.05	64202.9
807.5126	351.8927	65024.85	64151.85
807.6559	354.0895	65097.25	64212.05
807.7991	356.2856	65086.25	64215.15
807.9424	358.4812	65136.95	64263
808.0857	360.6763	65017.25	64144.45
808.2291	362.8707	65148.85	64273.8
808.3724	365.0646	65062.25	64184.3
808.5158	367.258	65064.8	64185.15
808.6591	369.4508	64995.55	64109.1
808.8025	371.643	65123.9	64239.35
808.9459	373.8346	65057.35	64170.9
809.0893	376.0257	65051.8	64160.5
809.2327	378.2162	65017.8	64131.7
809.3762	380.4062	64939	64051.5
809.5196	382.5956	65022	64135.95
809.6631	384.7844	65016.35	64128.35
809.8066	386.9726	65059.95	64171.2
809.9501	389.1603	65043	64155.1
810.0936	391.3474	64947.65	64025.25
810.2371	393.5339	65019.45	64128
810.3806	395.7199	64908.15	64027.9
810.5241	397.9052	64935.1	64053.85
810.6677	400.09	64965.25	64083.85
810.8113	402.2743	65027.35	64148.2
810.9548	404.4579	64936.25	64059.65
811.0984	406.641	64946.35	64064.2
811.2421	408.8235	64993.2	64112.25
811.3857	411.0054	65008.85	64124.5
811.5293	413.1868	65048.95	64163.25
811.673	415.3675	65018.5	64128.15
811.8166	417.5477	65022.8	64135.65
811.9603	419.7273	65026.8	64139.5
812.104	421.9064	65025.2	64133.55
812.2477	424.0848	65040.95	64148.85
812.3914	426.2627	65109.8	64219.55
812.5351	428.4399	64953.55	64061.55
812.6788	430.6166	64862.6	63961.4
812.8226	432.7928	64962.4	64062.45
812.9663	434.9683	64861.9	63969.55
813.1101	437.1432	64862.4	63968.85
813.2539	439.3176	64931.15	64034.6
813.3977	441.4914	64805.95	63916.85
813.5415	443.6645	64821.55	63926.9
813.6853	445.8371	64836.6	63938.5
813.8291	448.0091	64788.25	63892.25
813.973	450.1806	64760.4	63863.95
814.1168	452.3514	64771	63875.9
814.2607	454.5216	64701	63794.7
814.4046	456.6913	64773.95	63879.05
814.5485	458.8603	64795.25	63904.15
814.6924	461.0288	64710.3	63818.95
814.8363	463.1967	64796.6	63905.7
814.9802	465.3639	64790.3	63893.85
815.1241	467.5306	64619.15	63722.05
815.2681	469.6967	64725.3	63828.55
815.412	471.8622	64781.95	63890.2
815.556	474.0271	64728.5	63832.55
815.7	476.1914	64758.4	63857.05
815.844	478.3551	64768.8	63870.45
815.988	480.5182	64837.35	63942.25
816.132	482.6807	64697.35	63808.7
816.276	484.8426	64726.25	63840.05
816.4201	487.0039	64839.55	63944.95
816.5641	489.1647	64848.35	63954.2
816.7082	491.3248	64740.45	63841.1
816.8522	493.4843	64881.55	63982.3
816.9963	495.6432	64881.85	63989.15
817.1404	497.8015	64757.65	63856.25
817.2845	499.9592	64842.6	63937.3
817.4286	502.1163	64826.35	63919.55
817.5727	504.2728	64814.3	63914.1
817.7168	506.4287	64783	63892.85
817.861	508.5839	64689.1	63797.7
818.0051	510.7386	64728.55	63829.35
818.1493	512.8927	64746.65	63836.65
818.2935	515.0461	64704.7	63803.25
818.4377	517.199	64770	63865.4
818.5818	519.3512	64704.5	63795.5
818.726	521.5029	64685.75	63775.85
818.8703	523.6539	64717.05	63808.55
819.0145	525.8043	64588.35	63680.75
819.1587	527.9541	64715.85	63805.4
819.303	530.1033	64700.3	63791.2
819.4472	532.2519	64644.2	63737.45
819.5915	534.3999	64731.35	63825.5
819.7357	536.5472	64788.1	63880.9
819.88	538.694	64673.8	63767.65
820.0243	540.8401	64771	63859.15
820.1686	542.9856	64801.6	63883.35
820.3129	545.1305	64832.15	63910.25
820.4572	547.2748	64749.95	63828.7
820.6016	549.4185	64745.95	63821.95
820.7459	551.5615	64790.55	63869.25
820.8902	553.704	64748.75	63828.5
821.0346	555.8458	64688.15	63771.05
821.1789	557.987	64702.75	63789
821.3233	560.1276	64743.65	63824.55
821.4677	562.2675	64695.6	63773.5
821.6121	564.4069	64717.15	63794.65
821.7565	566.5456	64770.9	63860.25
821.9009	568.6837	64652.55	63735.85
822.0453	570.8212	64682.6	63767.1
822.1897	572.958	64483	63568.95
822.3342	575.0942	64643.25	63732.35
822.4786	577.2299	64538.8	63633.2
822.6231	579.3648	64503.2	63602.85
822.7675	581.4992	64480.7	63587.4
822.912	583.6329	64485.6	63592.55
823.0565	585.766	64495.6	63597.45
823.201	587.8985	64574.5	63673
823.3454	590.0304	64372.9	63452.85
823.4899	592.1616	64540.05	63622.65
823.6345	594.2922	64454.05	63535.95
823.779	596.4222	64268.1	63343.75
823.9235	598.5515	64327.6	63413.95
824.068	600.6802	64422.45	63503.45
824.2126	602.8083	64195.8	63279.1
824.3571	604.9358	64171.1	63253.5
824.5017	607.0626	64374.1	63452.65
824.6462	609.1888	64017.85	63091.2
824.7908	611.3144	64209.45	63285.55
824.9354	613.4393	64116.4	63190.95
825.08	615.5636	63911.75	62987.05
825.2246	617.6873	64099.9	63176.65
825.3692	619.8103	63823.1	62899.75
825.5138	621.9327	64130.4	63207.35
825.6584	624.0544	64121.2	63204.15
825.803	626.1756	63985.95	63065.55
825.9477	628.2961	63990.45	63068.25
826.0923	630.4159	63876.5	62954.3
826.237	632.5351	63763.7	62836.05
826.3816	634.6537	64178.65	63257.6
826.5263	636.7716	63719.7	62790.55
826.6709	638.8889	63872	62943.4
826.8156	641.0056	63829.6	62897.15
826.9603	643.1216	63907.85	62978.75
827.105	645.237	63986.8	63060.3
827.2497	647.3518	63712.9	62792.15
827.3944	649.4659	63838.5	62921.8
827.5391	651.5793	63849.75	62928.05
827.6838	653.6922	63911.75	62995.6
827.8285	655.8043	63544.1	62624.2
827.9733	657.9159	63998.3	63077.6
828.118	660.0268	63163.1	62237.8
828.2627	662.137	63676.9	62752.75
828.4075	664.2466	63732.6	62803.4
828.5522	666.3556	63535.65	62607.2
828.697	668.4639	63705.8	62779.45
828.8418	670.5716	63468	62548.65
828.9865	672.6786	63656.1	62729.2
829.1313	674.785	63377	62444.7
829.2761	676.8907	63416.9	62491.5
829.4209	678.9958	63569.8	62647.65
829.5657	681.1002	63609.2	62682.05
829.7105	683.204	63310.7	62376.9
829.8553	685.3072	63157	62229.15
830.0001	687.4097	63265.35	62334.95
830.1449	689.5115	63137.6	62202.3
830.2898	691.6127	63430.8	62504.95
830.4346	693.7132	63110.7	62182.45
830.5794	695.8131	63161.5	62213.9
830.7243	697.9123	63225.9	62291.3
830.8691	700.0109	63284.1	62352.25
831.014	702.1089	62913	61979.5
831.1588	704.2061	63027.35	62098.25
831.3037	706.3028	63043.95	62113.65
831.4486	708.3987	63100.5	62168.55
831.5935	710.4941	62939.35	62008.35
831.7383	712.5887	63191.15	62262.8
831.8832	714.6827	63046.85	62114.7
832.0281	716.7761	63257.25	62326.15
832.173	718.8688	63331.65	62402.75
832.3179	720.9608	63111.95	62173.65
832.4628	723.0522	63189.8	62250.3
832.6077	725.1429	62936.4	62002.25
832.7527	727.233	63498.2	62565.25
832.8976	729.3224	62547.2	61615.7
833.0425	731.4112	62801.45	61875.05
833.1874	733.4993	62791.5	61859.7
833.3324	735.5867	62763.55	61829.95
833.4773	737.6735	62562.65	61630.15
833.6222	739.7596	62374	61441.55
833.7672	741.845	62381.15	61447.15
833.9122	743.9298	62593.45	61656.65
834.0571	746.014	62329.35	61398.5
834.2021	748.0974	62156.15	61217.1
834.347	750.1802	62533.75	61595.6
834.492	752.2624	62052.6	61114.55
834.637	754.3439	62104.15	61169.3
834.782	756.4247	62229.15	61283.9
834.9269	758.5048	62036.6	61100.45
835.0719	760.5843	62116.35	61175.75
835.2169	762.6631	62216.5	61278.25
835.3619	764.7413	62157.5	61219.6
835.5069	766.8188	62244.15	61305.15
835.6519	768.8956	62415.95	61475.8
835.7969	770.9718	62423.25	61485.95
835.9419	773.0473	62321	61387.2
836.0869	775.1221	62089.85	61150.5
836.232	777.1962	61999.3	61062.8
836.377	779.2697	61727.8	60791.3
836.522	781.3426	61865.75	60905.9
836.667	783.4147	61879.15	60940.9
836.8121	785.4862	61902.45	60966.7
836.9571	787.557	61771.45	60831.5
837.1021	789.6271	61873.25	60931.85
837.2472	791.6966	61614.9	60677.05
837.3922	793.7654	61320.1	60381
837.5373	795.8335	61274.9	60339.95
837.6823	797.901	61320	60385.75
837.8274	799.9678	61165	60222.85
837.9724	802.0339	61120.2	60181.05
838.1175	804.0993	61112.4	60164.9
838.2626	806.1641	60996.45	60056.95
838.4076	808.2282	60899.9	59961.8
838.5527	810.2916	60850	59909.05
838.6978	812.3544	60959.15	60021
838.8428	814.4164	60631.5	59693.3
838.9879	816.4778	60675.75	59733.1
839.133	818.5385	60643.45	59704.6
839.2781	820.5986	60610.9	59672.25
839.4232	822.658	60663.9	59720.05
839.5682	824.7166	60705.6	59767.7
839.7133	826.7747	60479.95	59543.45
839.8584	828.832	60619.55	59681.45
840.0035	830.8886	60771.65	59829.25
840.1486	832.9446	60762.15	59816.85
840.2937	834.9999	60252.5	59311.1
840.4388	837.0545	60511.95	59569.3
840.5839	839.1085	60625.35	59682.2
840.729	841.1618	60498.9	59554.6
840.8741	843.2143	60128.4	59186.55
841.0192	845.2662	60092.15	59152.9
841.1643	847.3175	60218.45	59277.65
841.3095	849.368	59728.3	58784.95
841.4546	851.4179	60014.05	59072.5
841.5997	853.467	59671.65	58733.25
841.7448	855.5155	59786.95	58846.15
841.8899	857.5633	59485	58544.45
842.0351	859.6105	59307.7	58366.05
842.1802	861.6569	59427	58488.05
842.3253	863.7027	59037.4	58091.65
842.4704	865.7478	59178.4	58234.25
842.6156	867.7922	59056.8	58116.45
842.7607	869.8359	59232.6	58291.55
842.9058	871.8789	58794.55	57851.2
843.0509	873.9212	59114.55	58141.25
843.1961	875.9629	59103.2	58160
843.3412	878.0039	59048.75	58107.95
843.4863	880.0441	58922.9	57983.05
843.6315	882.0837	58930.85	57989.4
843.7766	884.1226	58914.9	57972.1
843.9218	886.1609	58788.5	57847.45
844.0669	888.1984	58561.05	57618.8
844.212	890.2352	58922.9	57978.95
844.3572	892.2714	58405.55	57455.55
844.5023	894.3069	58601.95	57658.2
844.6475	896.3416	58297.55	57352.15
844.7926	898.3757	58241.55	57298.85
844.9377	900.4091	57736.85	56790.2
845.0829	902.4418	58305.85	57358.4
845.228	904.4739	57917.7	56972.1
845.3732	906.5052	57931.2	56989.4
845.5183	908.5358	57696.4	56756.65
845.6635	910.5658	57499.7	56554.05
845.8086	912.595	57426.5	56484.05
845.9538	914.6236	56941.65	55995.5
846.0989	916.6515	57621.65	56682.55
846.2441	918.6786	56811.95	55865.4
846.3892	920.7051	56974.25	56025.95
846.5344	922.7309	56911.05	55965.15
846.6795	924.756	56956.8	56010.75
846.8246	926.7804	56770	55823.45
846.9698	928.8041	56232.85	55289.9
847.1149	930.8272	56521.1	55575.05
847.2601	932.8495	56469.9	55525.7
847.4052	934.8711	56129.1	55182.75
847.5504	936.892	55849.35	54905.85
847.6955	938.9123	55906.8	54963.3
847.8407	940.9318	55660.95	54718.55
847.9858	942.9506	55528.9	54584.7
848.131	944.9688	55479.4	54534.1
848.2761	946.9862	54910.5	53964.4
848.4213	949.003	55017.2	54074.15
848.5664	951.019	54470.75	53524.6
848.7115	953.0344	54542.85	53596.2
848.8567	955.0491	54420.2	53474.25
849.0018	957.063	54646.1	53704.45
849.147	959.0763	54710.75	53762.5
849.2921	961.0888	54279.15	53334.95
849.4373	963.1007	54570.9	53628.75
849.5824	965.1119	54518.05	53584
849.7275	967.1223	54171.75	53240.4
849.8727	969.1321	54510.5	53577.55
850.0178	971.1412	54019.15	53083.75
850.1629	973.1495	53794.35	52855.4
850.3081	975.1572	53979.1	52982.4
850.4532	977.1641	53750.6	52806
850.5983	979.1704	53604	52662.2
850.7435	981.1759	53626.4	52679.7
850.8886	983.1808	53368.65	52421.35
851.0337	985.1849	53345	52388.05
851.1788	987.1884	53418.2	52470.2
851.324	989.1911	53675.15	52730.2
851.4691	991.1932	53032.6	52090.65
851.6142	993.1945	53105.05	52164.05
851.7593	995.1951	53209.85	52267.35
851.9045	997.1951	52808.5	51855.9
852.0496	999.1943	52610.45	51666.8
852.1947	1001.1928	52394.45	51451.25
852.3398	1003.1906	52412.7	51470.85
852.4849	1005.1877	51950.75	51006.05
852.63	1007.1841	51711.8	50766.95
852.7751	1009.1798	51710.15	50767.4
852.9202	1011.1748	51491.65	50550.6
853.0653	1013.1691	51279.85	50337.75
853.2104	1015.1627	50410.1	49467.75
853.3555	1017.1556	50349	49409.75
853.5006	1019.1477	50399.9	49460
853.6457	1021.1392	49861.7	48926.25
853.7908	1023.1299	49394.45	48461.1
853.9359	1025.12	49553.35	48624.4
854.081	1027.1093	49218.65	48296.2
854.2261	1029.0979	49142.95	48226.2
854.3712	1031.0859	49118	48194.7
854.5163	1033.0731	48668.4	47738.2
854.6613	1035.0596	48636.2	47703
854.8064	1037.0454	48394.5	47458.95
854.9515	1039.0304	48112.95	47171.45
855.0965	1041.0148	47657.55	46718.7
855.2416	1042.9985	47532.05	46591.35
855.3867	1044.9814	47645.25	46708.95
855.5317	1046.9636	47209.1	46269.75
855.6768	1048.9452	47094.6	46157.2
855.8219	1050.926	47023.2	46083.15
855.9669	1052.9061	46907.45	45971.05
856.112	1054.8855	46849.15	45912
856.257	1056.8642	46652.95	45710.4
856.4021	1058.8421	46541.35	45596.05
856.5471	1060.8194	46519.95	45581.05
856.6921	1062.7959	46372.7	45436.55
856.8372	1064.7717	46388.15	45446.8
856.9822	1066.7469	46269.25	45329.3
857.1272	1068.7213	46177.95	45235.4
857.2723	1070.695	46045.2	45103.75
857.4173	1072.6679	45691.05	44751
857.5623	1074.6402	45676.4	44735.25
857.7073	1076.6117	45498.7	44552.9
857.8523	1078.5826	45524.4	44582.05
857.9973	1080.5527	45316.25	44376.05
858.1423	1082.5221	45230.65	44289.15
858.2873	1084.4908	45299.4	44361.65
858.4323	1086.4587	45346.45	44403.4
858.5773	1088.426	45382.1	44442.5
858.7223	1090.3925	45182.3	44236.65
858.8673	1092.3584	45107.8	44167
859.0123	1094.3235	44738.85	43801.9
859.1573	1096.2879	44600.1	43661.8
859.3022	1098.2515	44478.35	43537.7
859.4472	1100.2145	44489.95	43552.6
859.5922	1102.1767	44383.45	43444.45
859.7371	1104.1382	44438.3	43502.25
859.8821	1106.099	44428.45	43486.15
860.027	1108.0591	44498.25	43561.75
860.172	1110.0185	44405.25	43466.35
860.3169	1111.9771	44509.4	43570.7
860.4619	1113.9351	44134.75	43196.1
860.6068	1115.8923	43757.1	42819.1
860.7517	1117.8488	43427.15	42485.9
860.8967	1119.8045	42989.8	42054.45
861.0416	1121.7596	42847.3	41907.75
861.1865	1123.7139	42661.7	41722.25
861.3314	1125.6675	42553.7	41617.6
861.4763	1127.6204	42591.55	41653.7
861.6212	1129.5726	42381.2	41442.8
861.7661	1131.524	42313.5	41375.3
861.911	1133.4748	42218.35	41280.55
862.0559	1135.4248	42015.85	41076.05
862.2008	1137.3741	42013.1	41079
862.3457	1139.3226	41821.35	40883.35
862.4905	1141.2705	41837.2	40901.85
862.6354	1143.2176	41440.7	40493.75
862.7803	1145.164	41355.45	40413.15
862.9251	1147.1097	41312.15	40374.65
863.07	1149.0546	41262.65	40323
863.2148	1150.9989	41116.95	40181.1
863.3597	1152.9424	41017.25	40078.65
863.5045	1154.8852	40732.4	39796.05
863.6493	1156.8272	40551.2	39614
863.7942	1158.7686	40565.15	39619.65
863.939	1160.7092	40266.6	39326.6
864.0838	1162.6491	40111.75	39173.5
864.2286	1164.5883	40192.1	39253.8
864.3734	1166.5267	40097.1	39157.3
864.5182	1168.4644	40146.6	39211.7
864.663	1170.4014	40152.95	39213.75
864.8078	1172.3377	40406.85	39470.05
864.9526	1174.2732	40476.9	39542.65
865.0974	1176.2081	40579.35	39638.95
865.2421	1178.1421	40700.85	39761.15
865.3869	1180.0755	40908.55	39973.35
865.5317	1182.0082	40761.35	39828.35
865.6764	1183.9401	40764.95	39832.75
865.8212	1185.8713	40554.8	39624.7
865.9659	1187.8017	40271.25	39345.85
866.1106	1189.7315	39988.75	39067.4
866.2554	1191.6605	39551.55	38630.45
866.4001	1193.5888	39226.55	38303.7
866.5448	1195.5163	39092.2	38163.15
866.6895	1197.4432	38929	37997.1
866.8342	1199.3693	38755.65	37821.95
866.9789	1201.2947	38561.15	37624.1
867.1236	1203.2193	38394.35	37456.95
867.2683	1205.1432	38420.3	37487.55
867.413	1207.0664	38268.9	37336.35
867.5576	1208.9889	38193.65	37256.1
867.7023	1210.9106	38079.45	37144.25
867.847	1212.8316	37893.9	36959.9
867.9916	1214.7519	37892.55	36949.15
868.1363	1216.6715	37760.35	36827.8
868.2809	1218.5903	37759.15	36828.25
868.4255	1220.5084	37603.7	36666.15
868.5701	1222.4257	37602.8	36669
868.7148	1224.3424	37389.35	36458.7
868.8594	1226.2583	37372.5	36435.1
869.004	1228.1735	37342.7	36409.9
869.1486	1230.0879	37197.05	36262.05
869.2932	1232.0016	37251.4	36317
869.4377	1233.9146	37172.2	36236.6
869.5823	1235.8269	36946.8	36014.15
869.7269	1237.7384	36842.3	35910.75
869.8715	1239.6492	36560.4	35630.15
870.016	1241.5592	36432.4	35499.05
870.1606	1243.4686	36231.4	35299.65
870.3051	1245.3772	36146.45	35211.15
870.4496	1247.285	36047.3	35114.85
870.5941	1249.1922	35903.4	34972.6
870.7387	1251.0986	35813.45	34883.75
870.8832	1253.0042	35641.1	34708.85
871.0277	1254.9092	35635.85	34701.15
871.1722	1256.8134	35663.05	34731.85
871.3167	1258.7169	35719.1	34788.6
871.4611	1260.6196	35727.5	34797.65
871.6056	1262.5216	35868.55	34937.15
871.7501	1264.4229	35916.5	34985.7
871.8945	1266.3234	35991	35057
872.039	1268.2232	36004.65	35071
872.1834	1270.1223	35883.95	34950.65
872.3278	1272.0207	35791.4	34858.75
872.4723	1273.9183	35673.6	34735.25
872.6167	1275.8151	35544.3	34613.35
872.7611	1277.7113	35402.95	34471.8
872.9055	1279.6067	35199.7	34267.65
873.0499	1281.5014	35055.6	34119.05
873.1943	1283.3953	34967.05	34032.75
873.3386	1285.2885	34936.4	34006.25
873.483	1287.181	34927	33992.45
873.6274	1289.0727	35008.1	34079.25
873.7717	1290.9637	34960.15	34030
873.9161	1292.854	35064.3	34135.05
874.0604	1294.7435	35023.3	34090.6
874.2047	1296.6323	35119.45	34189.05
874.349	1298.5204	35169.4	34235.3
874.4933	1300.4077	35266.25	34336.85
874.6376	1302.2943	35269.95	34337.3
874.7819	1304.1802	35261.25	34331.55
874.9262	1306.0653	35010.8	34080.45
875.0705	1307.9497	34797.25	33868.05
875.2147	1309.8333	34647.5	33717.2
875.359	1311.7162	34509.45	33578.5
875.5032	1313.5984	34463.7	33531.9
875.6475	1315.4798	34405.5	33469.35
875.7917	1317.3605	34422.95	33486.25
875.9359	1319.2405	34482.7	33550.55
876.0801	1321.1197	34387.45	33456.25
876.2243	1322.9982	34172.4	33237.05
876.3685	1324.876	34135.55	33207.95
876.5127	1326.753	33955.6	33023.2
876.6569	1328.6293	33906.45	32974.55
876.801	1330.5048	33866.85	32932.1
876.9452	1332.3796	33754.55	32824.55
877.0893	1334.2537	33763.7	32811.5
877.2335	1336.127	33573.5	32641.1
877.3776	1337.9996	33486	32555.5
877.5217	1339.8714	33416.3	32482.25
877.6658	1341.7426	33302.75	32329.75
877.8099	1343.6129	33296.1	32364.95
877.954	1345.4826	33199.95	32269.8
878.0981	1347.3515	33152.9	32218
878.2422	1349.2196	32965.5	32032.95
878.3862	1351.087	33007.75	32078.6
878.5303	1352.9537	32939.45	32006.35
878.6743	1354.8197	33052.25	32121.95
878.8184	1356.6849	33129.3	32199.25
878.9624	1358.5493	33103.6	32171.8
879.1064	1360.4131	33114.8	32184.2
879.2504	1362.276	33024.25	32094.05
879.3944	1364.1383	32831.5	31902.95
879.5384	1365.9998	32588.2	31652.75
879.6823	1367.8606	32231.75	31299.95
879.8263	1369.7206	31945.75	31011.8
879.9702	1371.5799	31649.05	30714.75
880.1142	1373.4384	31446.7	30514.55
880.2581	1375.2962	31289.75	30358.6
880.402	1377.1533	30930.2	30001.7
880.5459	1379.0096	30590.15	29663.65
880.6898	1380.8652	30248.85	29320.9
880.8337	1382.7201	29962.2	29037.5
880.9776	1384.5742	29664.55	28733.3
881.1215	1386.4275	29415.05	28485.4
881.2653	1388.2802	29218.5	28289.65
881.4092	1390.132	29044.7	28114.3
881.553	1391.9832	28964.95	28032.9
881.6968	1393.8336	28786.85	27855.6
881.8406	1395.6832	28673.15	27740.75
881.9844	1397.5322	28486.2	27557.6
882.1282	1399.3803	28429.65	27496.55
882.272	1401.2278	28331.15	27403.4
882.4158	1403.0745	28229.65	27303.3
882.5595	1404.9204	28080.25	27156.15
882.7033	1406.7656	28082.85	27155.8
882.847	1408.6101	27967.75	27038.85
882.9908	1410.4538	27883.95	26958.95
883.1345	1412.2968	27851.65	26924.2
883.2782	1414.139	27753.6	26824.4
883.4219	1415.9805	27809.7	26883.25
883.5656	1417.8213	27749.7	26801.1
883.7092	1419.6613	27788.5	26864.2
883.8529	1421.5006	27850.2	26921.65
883.9965	1423.3391	27963.15	27036.95
884.1402	1425.1769	28140.5	27212.7
884.2838	1427.0139	28481.55	27553.1
884.4274	1428.8502	28916.7	27984.1
884.571	1430.6858	29334.05	28405.55
884.7146	1432.5206	29527.9	28599.45
884.8582	1434.3547	29671.05	28747.55
885.0018	1436.188	29682.6	28756.85
885.1453	1438.0206	29650.65	28720.6
885.2889	1439.8524	29443.7	28515.3
885.4324	1441.6835	29309.9	28384.9
885.5759	1443.5139	29128.65	28196.85
885.7194	1445.3435	28985.95	28060.1
885.8629	1447.1724	28967.85	28043.95
886.0064	1449.0005	28835.65	27915.35
886.1499	1450.8279	28687.9	27761.35
886.2933	1452.6545	28642.2	27716.9
886.4368	1454.4804	28623.75	27700.55
886.5802	1456.3056	28545.3	27613.35
886.7237	1458.13	28442.3	27518
886.8671	1459.9536	28306.4	27379.3
887.0105	1461.7766	28017.45	27092.6
887.1539	1463.5987	27588.85	26659.65
887.2972	1465.4202	27265.35	26341
887.4406	1467.2409	26883.45	25960.35
887.584	1469.0608	26647.15	25722.85
887.7273	1470.88	26387.3	25460.15
887.8706	1472.6984	26129.15	25205.5
888.0139	1474.5161	25886.85	24959.95
888.1572	1476.3331	25693.2	24771.65
888.3005	1478.1493	25591.95	24667.6
888.4438	1479.9648	25482.65	24556
888.5871	1481.7795	25317.85	24393
888.7303	1483.5935	25267.2	24343.5
888.8736	1485.4067	25135.7	24211.35
889.0168	1487.2192	25125.6	24198
889.16	1489.031	24994.65	24064.8
889.3032	1490.842	24920.6	23996.75
889.4464	1492.6522	24849.6	23925.25
889.5896	1494.4618	24770.4	23843.6
889.7327	1496.2705	24735.05	23811.45
889.8759	1498.0785	24632.25	23707.7
890.019	1499.8858	24580.45	23654.3
890.1622	1501.6924	24498.85	23573.85
890.3053	1503.4981	24454.25	23530.1
890.4484	1505.3032	24404.95	23482.45
890.5914	1507.1075	24312.3	23384.95
890.7345	1508.911	24250.15	23325.1
890.8776	1510.7138	24212.25	23287.7
891.0206	1512.5159	24061.25	23137.8
891.1637	1514.3172	23988.1	23064.65
891.3067	1516.1178	23911.3	22988.85
891.4497	1517.9176	23838.85	22913.75
891.5927	1519.7166	23737.9	22815.85
891.7357	1521.515	23667.15	22738.55
891.8786	1523.3126	23596.85	22672.75
892.0216	1525.1094	23522.2	22599.8
892.1645	1526.9055	23443.6	22523.95
892.3074	1528.7008	23324.2	22403.55
892.4503	1530.4954	23202.4	22275.7
892.5932	1532.2893	23158.15	22242
892.7361	1534.0824	23032.15	22108.95
892.879	1535.8747	23021.5	22103.25
893.0218	1537.6663	22975.75	22055.6
893.1647	1539.4572	22852.9	21929.85
893.3075	1541.2473	22843.35	21926.35
893.4503	1543.0367	22780.1	21862.65
893.5931	1544.8253	22651.15	21725.15
893.7359	1546.6132	22661.3	21739.6
893.8787	1548.4003	22552.7	21623.95
894.0214	1550.1867	22562.75	21634.35
894.1642	1551.9723	22491.1	21569.6
894.3069	1553.7572	22482.05	21565.7
894.4496	1555.5414	22420.1	21502.15
894.5923	1557.3247	22414.6	21497.25
894.735	1559.1074	22437.4	21523.5
894.8777	1560.8893	22418.55	21504.95
895.0204	1562.6705	22440.3	21525.3
895.163	1564.4509	22474.95	21559.45
895.3056	1566.2305	22435.05	21522.35
895.4482	1568.0094	22498.85	21588.6
895.5908	1569.7876	22514.75	21601.8
895.7334	1571.565	22470.6	21555.65
895.876	1573.3417	22477.3	21566.05
896.0186	1575.1176	22433.1	21519.3
896.1611	1576.8928	22343.15	21432.95
896.3036	1578.6672	22217.9	21312.85
896.4461	1580.4409	22120	21215
896.5886	1582.2138	21967	21055.25
896.7311	1583.986	21818.05	20907.8
896.8736	1585.7575	21754.4	20845.75
897.0161	1587.5282	21644.75	20736.1
897.1585	1589.2981	21590.4	20684.35
897.3009	1591.0673	21482.35	20575.45
897.4433	1592.8358	21507.95	20599
897.5857	1594.6035	21455.9	20542.8
897.7281	1596.3704	21427.75	20514.45
897.8705	1598.1366	21381.85	20470.25
898.0128	1599.9021	21353.2	20447.55
898.1551	1601.6668	21354.65	20444.3
898.2975	1603.4308	21346.55	20434.35
898.4398	1605.194	21391.5	20478.6
898.5821	1606.9564	21420.45	20515.85
898.7243	1608.7182	21484.1	20579.65
898.8666	1610.4791	21546.4	20646.1
899.0088	1612.2394	21632.25	20734
899.1511	1613.9988	21741.85	20840.95
899.2933	1615.7576	21941.8	21036.25
899.4355	1617.5156	22072.6	21155.8
899.5776	1619.2728	22229.05	21318.5
899.7198	1621.0293	22248.4	21337.15
899.862	1622.785	22226.75	21321.95
900.0041	1624.54	22093.75	21187.3
900.1462	1626.2942	21928.85	21023.6
900.2883	1628.0477	21625.1	20720.2
900.4304	1629.8005	21410.5	20500.7
900.5725	1631.5525	21176.5	20273.35
900.7145	1633.3037	20955	20053.65
900.8566	1635.0542	20819.6	19917.7
900.9986	1636.804	20679.6	19776.3
901.1406	1638.553	20640.2	19681.2
901.2826	1640.3013	20519.65	19617
901.4245	1642.0488	20443.7	19538.9
901.5665	1643.7955	20425.3	19522.85
901.7085	1645.5416	20411.1	19512.3
901.8504	1647.2868	20449.8	19547.9
901.9923	1649.0313	20447.9	19542.1
902.1342	1650.7751	20571.25	19662.1
902.2761	1652.5181	20610.75	19708.85
902.4179	1654.2604	20708.8	19804.75
902.5598	1656.0019	20926.5	20025.65
902.7016	1657.7427	21140.85	20238.75
902.8434	1659.4828	21350.75	20444.35
902.9852	1661.222	21461.7	20557.45
903.127	1662.9606	21439.1	20534.95
903.2687	1664.6984	21278.75	20371.55
903.4105	1666.4354	20940.55	20032.6
903.5522	1668.1717	20525.9	19617.55
903.6939	1669.9072	20001.25	19093.65
903.8356	1671.642	19634.65	18725.25
903.9773	1673.3761	19364.55	18458
904.119	1675.1094	19063.75	18159.1
904.2606	1676.8419	18846.1	17942.3
904.4022	1678.5737	18652.2	17746.25
904.5439	1680.3048	18499.95	17593.45
904.6855	1682.0351	18334.1	17427.6
904.827	1683.7646	18199	17291.4
904.9686	1685.4934	18142.55	17237.95
905.1101	1687.2215	18042.05	17137.25
905.2517	1688.9488	17900.25	16995.75
905.3932	1690.6754	17818.3	16916.35
905.5347	1692.4012	17752.8	16844.8
905.6761	1694.1263	17663.95	16758.6
905.8176	1695.8506	17638.2	16731.8
905.9591	1697.5742	17553.55	16651.5
906.1005	1699.297	17526.05	16627.15
906.2419	1701.0191	17414.5	16514.7
906.3833	1702.7404	17350.75	16452.35
906.5246	1704.461	17204.7	16299.7
906.666	1706.1808	17199.4	16296
906.8073	1707.8999	17126.75	16226.8
906.9487	1709.6182	17070.2	16170.9
907.09	1711.3358	17017.25	16120.85
907.2313	1713.0527	16962.15	16064.25
907.3725	1714.7688	16904.2	16001.05
907.5138	1716.4841	16816.1	15915.05
907.655	1718.1987	16806.65	15900.6
907.7962	1719.9126	16729	15832.2
907.9374	1721.6257	16635.1	15737.15
908.0786	1723.338	16628.55	15732.6
908.2198	1725.0496	16507.7	15608.65
908.3609	1726.7605	16492.15	15592.25
908.502	1728.4706	16453.05	15553.65
908.6431	1730.18	16348.75	15447.75
908.7842	1731.8886	16300.1	15402.75
908.9253	1733.5964	16304.6	15384.6
909.0664	1735.3036	16258.1	15354.45
909.2074	1737.0099	16191.75	15296.55
909.3484	1738.7156	16157.9	15260.55
909.4894	1740.4204	16079.75	15179.95
909.6304	1742.1246	16015.65	15116.35
909.7714	1743.8279	15985.2	15087.1
909.9123	1745.5306	15956.8	15061.95
910.0532	1747.2325	15903	15007
910.1941	1748.9336	15850.8	14954.1
910.335	1750.634	15783.55	14883.2
910.4759	1752.3336	15769.95	14874.8
910.6168	1754.0325	15734.5	14837.55
910.7576	1755.7307	15680.05	14785.55
910.8984	1757.4281	15688.75	14789.2
911.0392	1759.1247	15630.1	14723.4
911.18	1760.8206	15594.95	14689.45
911.3208	1762.5158	15580.2	14675.6
911.4615	1764.2102	15497.35	14599.65
911.6022	1765.9039	15436.2	14540.5
911.7429	1767.5968	15418.5	14524.15
911.8836	1769.289	15379.95	14482.75
912.0243	1770.9804	15353.6	14455.35
912.1649	1772.6711	15312.15	14414.15
912.3056	1774.361	15291.55	14394
912.4462	1776.0502	15245.25	14347.65
912.5868	1777.7386	15205.45	14305.55
912.7274	1779.4263	15171.05	14275.1
912.8679	1781.1132	15137.5	14243.2
913.0084	1782.7994	15090.4	14194.8
913.149	1784.4849	15065.6	14172.3
913.2895	1786.1696	15035.95	14134.4
913.4299	1787.8535	14980.4	14088.15
913.5704	1789.5367	14925.9	14032.5
913.7108	1791.2192	14923.55	14029
913.8513	1792.9009	14875.9	13952.75
913.9917	1794.5818	14845.6	13944.65
914.132	1796.2621	14812.9	13917.1
914.2724	1797.9415	14767.45	13869.15
914.4128	1799.6202	14725.7	13828.45
914.5531	1801.2982	14691.05	13793
914.6934	1802.9755	14649.4	13750.45
914.8337	1804.6519	14638.55	13742.75
914.9739	1806.3277	14558.1	13663.65
915.1142	1808.0027	14523.05	13628.75
915.2544	1809.6769	14512	13618.7
915.3946	1811.3504	14451.65	13556.9
915.5348	1813.0231	14413.45	13518.95
915.675	1814.6951	14379.1	13486.35
915.8151	1816.3664	14385.1	13490.1
915.9553	1818.0369	14335.65	13439.15
916.0954	1819.7067	14336.85	13442.45
916.2355	1821.3757	14312.75	13415.45
916.3755	1823.044	14274.2	13378
916.5156	1824.7115	14228.35	13330.45
916.6556	1826.3783	14181.1	13286.7
916.7956	1828.0443	14110.7	13214.8
916.9356	1829.7096	14104.4	13209.05
917.0756	1831.3741	14096.55	13198.5
917.2155	1833.0379	14044.9	13149.85
917.3555	1834.701	14003.7	13110.55
917.4954	1836.3633	13984.7	13094.05
917.6353	1838.0248	13957.05	13061.6
917.7751	1839.6856	13909.6	13016.45
917.915	1841.3457	13887.75	12992.45
918.0548	1843.005	13869.35	12974.25
918.1946	1844.6636	13831.4	12936.95
918.3344	1846.3214	13809.9	12913.9
918.4742	1847.9785	13785.25	12891.55
918.6139	1849.6349	13779.85	12881.5
918.7537	1851.2904	13772.7	12866.9
918.8934	1852.9453	13712.75	12814.1
919.0331	1854.5994	13663.5	12763.7
919.1727	1856.2528	13680.6	12779.4
919.3124	1857.9054	13631.05	12735.4
919.452	1859.5572	13635.05	12741.2
919.5916	1861.2083	13582.2	12686.4
919.7312	1862.8587	13592.65	12697.15
919.8708	1864.5084	13531.8	12632.85
920.0103	1866.1572	13471.95	12574.9
920.1498	1867.8054	13441.5	12542.8
920.2893	1869.4528	13399.35	12503.25
920.4288	1871.0994	13390.65	12493.15
920.5683	1872.7453	13361.8	12463.45
920.7077	1874.3905	13352.25	12450.15
920.8471	1876.0349	13282.2	12383.75
920.9865	1877.6786	13289.65	12392.7
921.1259	1879.3215	13239.85	12343.6
921.2653	1880.9637	13214.15	12316.65
921.4046	1882.6051	13202.9	12305.95
921.5439	1884.2458	13154.45	12257.4
921.6832	1885.8858	13088	12192.15
921.8225	1887.525	13054.6	12156.65
921.9617	1889.1634	13012.05	12115.1
922.101	1890.8011	13003.9	12106.25
922.2402	1892.4381	12959.4	12062.5
922.3794	1894.0743	12973.7	12081.25
922.5185	1895.7098	12949.6	12055.1
922.6577	1897.3446	12894.5	11998.8
922.7968	1898.9786	12839.6	11941.75
922.9359	1900.6118	12831.25	11937.1
923.075	1902.2443	12762.25	11863.95
923.214	1903.8761	12745.4	11849.5
923.3531	1905.5071	12669	11771.4
923.4921	1907.1374	12633.1	11737.2
923.6311	1908.7669	12634.15	11739.25
923.77	1910.3957	12624.6	11733.4
923.909	1912.0237	12533.55	11638.2
924.0479	1913.651	12483.15	11586.35
924.1868	1915.2776	12477.85	11583.05
924.3257	1916.9034	12429.1	11536.4
924.4646	1918.5285	12371.95	11478.85
924.6034	1920.1528	12295.85	11402.3
924.7422	1921.7764	12292.25	11398.4
924.881	1923.3992	12279.95	11384.85
925.0198	1925.0213	12186.75	11293.35
925.1586	1926.6427	12142.3	11250.5
925.2973	1928.2633	12183.5	11217.1
925.436	1929.8832	12133.85	11238.65
925.5747	1931.5023	12066.9	11172.4
925.7134	1933.1207	12048.05	11154.35
925.852	1934.7383	12032.8	11139
925.9906	1936.3552	11973.7	11080.35
926.1292	1937.9714	11945.65	11049.65
926.2678	1939.5868	11883.55	10984.6
926.4064	1941.2015	11822.15	10926.85
926.5449	1942.8154	11787.55	10891.15
926.6834	1944.4286	11742.65	10848.5
926.8219	1946.041	11703.65	10790.85
926.9604	1947.6528	11656.9	10756.45
927.0988	1949.2637	11621	10728.55
927.2372	1950.8739	11595.6	10700.45
927.3756	1952.4834	11563.25	10670
927.514	1954.0921	11537.75	10645.05
927.6523	1955.7001	11494.55	10596.85
927.7907	1957.3074	11446.3	10554.45
927.929	1958.9139	11393	10504.05
928.0673	1960.5197	11380.85	10487.15
928.2055	1962.1247	11337.9	10446.45
928.3438	1963.729	11276.55	10386.7
928.482	1965.3325	11264.75	10350.85
928.6202	1966.9353	11212.95	10325.05
928.7584	1968.5374	11163.6	10272.55
928.8965	1970.1387	11150	10258.3
929.0346	1971.7393	11128.8	10239.65
929.1727	1973.3392	11078.45	10186.2
929.3108	1974.9383	11031.5	10140.9
929.4489	1976.5366	10977.35	10087.35
929.5869	1978.1342	10966.15	10075.5
929.7249	1979.7311	10950.4	10062.9
929.8629	1981.3273	10923.15	10032.3
930.0009	1982.9227	10890.7	10002.5
930.1388	1984.5173	10809.9	9921.8
930.2767	1986.1112	10775.75	9887.45
930.4146	1987.7044	10753.15	9864.5
930.5525	1989.2968	10752.55	9862.05
930.6904	1990.8885	10713.25	9819.8
930.8282	1992.4795	10696.45	9808.3
930.966	1994.0697	10665.15	9778.9
931.1038	1995.6592	10630.65	9743.7
931.2415	1997.2479	10585	9695.5
931.3793	1998.8359	10553.15	9666.5
931.517	2000.4232	10516.85	9631
931.6547	2002.0097	10465.95	9580.9
931.7923	2003.5955	10431.9	9544.25
931.93	2005.1805	10455.25	9567.8
932.0676	2006.7648	10428.35	9540.3
932.2052	2008.3484	10381.85	9496.5
932.3427	2009.9312	10399	9514.05
932.4803	2011.5133	10317.1	9434.25
932.6178	2013.0946	10286	9401.75
932.7553	2014.6752	10276.25	9392.4
932.8928	2016.2551	10234.25	9347.9
933.0302	2017.8342	10211.75	9324.7
933.1676	2019.4126	10191.95	9306.85
933.305	2020.9902	10143.9	9260
933.4424	2022.5672	10130.65	9245.25
933.5798	2024.1433	10119.95	9230.5
933.7171	2025.7188	10049.35	9166.4
933.8544	2027.2935	10035.3	9151
933.9917	2028.8674	9993.4	9110.7
934.129	2030.4406	9955.5	9073.7
934.2662	2032.0131	9931.85	9050.3
934.4034	2033.5849	9887.95	9001.6
934.5406	2035.1559	9868.7	8985.4
934.6778	2036.7261	9873	8988.05
934.8149	2038.2957	9847.3	8959.35
934.952	2039.8645	9830.75	8942.8
935.0891	2041.4325	9839.7	8948.15
935.2262	2042.9998	9776.05	8892.1
935.3632	2044.5664	9769.3	8883.7
935.5002	2046.1323	9714	8830.75
935.6372	2047.6974	9685.05	8801.2
935.7742	2049.2617	9654.9	8772.95
935.9111	2050.8254	9657.5	8766.3
936.048	2052.3883	9635.75	8750.2
936.1849	2053.9504	9605.1	8718.35
936.3218	2055.5118	9569.95	8683.75
936.4586	2057.0725	9531.4	8638.95
936.5955	2058.6325	9520.9	8636.2
936.7323	2060.1917	9466.75	8585.05
936.869	2061.7502	9444.5	8555.4
937.0058	2063.3079	9426.4	8545.15
937.1425	2064.8649	9412.3	8524.1
937.2792	2066.4212	9404.6	8519.85
937.4159	2067.9767	9351.75	8467.45
937.5525	2069.5315	9295.1	8409.75
937.6891	2071.0856	9294.9	8409.25
937.8257	2072.6389	9241.75	8356.7
937.9623	2074.1915	9213.25	8328.95
938.0989	2075.7433	9156.3	8272.25
938.2354	2077.2945	9152.65	8269.1
938.3719	2078.8448	9114.5	8228.05
938.5084	2080.3945	9089.45	8202.75
938.6448	2081.9434	9086.65	8202.75
938.7812	2083.4916	9056.9	8170.6
938.9176	2085.039	9025.8	8135.45
939.054	2086.5857	9008.9	8117.3
939.1903	2088.1317	8994.3	8100.85
939.3267	2089.677	8974.8	8083.25
939.463	2091.2215	8940.3	8050.3
939.5992	2092.7652	8927.65	8035.05
939.7355	2094.3083	8936.4	8044.55
939.8717	2095.8506	8893.55	8006.9
940.0079	2097.3921	8879.4	7992.3
940.1441	2098.933	8847.8	7961.15
940.2802	2100.4731	8795.65	7907.6
940.4163	2102.0124	8796.45	7899.6
940.5524	2103.5511	8790	7900.8
940.6885	2105.089	8757	7866.75
940.8245	2106.6261	8750.15	7864.35
940.9606	2108.1626	8738.15	7851.65
941.0965	2109.6983	8715.85	7801.65
941.2325	2111.2332	8684.1	7796.5
941.3684	2112.7675	8638.15	7748.2
941.5044	2114.301	8638.5	7746.75
941.6403	2115.8337	8625.65	7736.4
941.7761	2117.3657	8605.95	7718.6
941.912	2118.897	8581.9	7692.9
942.0478	2120.4276	8543.05	7649.45
942.1835	2121.9575	8531.8	7641.1
942.3193	2123.4866	8515.15	7622.7
942.455	2125.0149	8492.2	7601.75
942.5907	2126.5426	8427.05	7540.8
942.7264	2128.0695	8415.95	7526.3
942.8621	2129.5956	8401.3	7518.45
942.9977	2131.1211	8409.85	7520.55
943.1333	2132.6458	8372.8	7487.7
943.2689	2134.1698	8366.5	7475.8
943.4044	2135.693	8331.65	7437.15
943.54	2137.2155	8306.4	7414
943.6755	2138.7373	8287.15	7399.8
943.8109	2140.2584	8279.25	7393.45
943.9464	2141.7787	8249.4	7359.75
944.0818	2143.2983	8227.15	7344.75
944.2172	2144.8171	8187	7304
944.3526	2146.3353	8163.05	7277.45
944.4879	2147.8527	8123.6	7238.9
944.6232	2149.3693	8126.55	7237.2
944.7585	2150.8853	8113	7224.75
944.8938	2152.4005	8061.3	7170.7
945.029	2153.9149	8031.95	7143.5
945.1642	2155.4287	8118.25	7123.2
945.2994	2156.9417	8032.35	7141.55
945.4346	2158.454	7971.1	7083.6
945.5697	2159.9655	7953.45	7067.85
945.7048	2161.4764	7947.4	7061.85
945.8399	2162.9865	7927.8	7044.15
945.9749	2164.4958	7897	7010.75
946.1099	2166.0045	7861.6	6973.2
946.2449	2167.5124	7888.2	7000.85
946.3799	2169.0195	7861.2	6972
946.5148	2170.526	7856.8	6968
946.6498	2172.0317	7796.45	6906.95
946.7846	2173.5367	7794.6	6905.2
946.9195	2175.0409	7788.7	6902.2
947.0543	2176.5445	7784.95	6898.4
947.1891	2178.0473	7751.75	6862.1
947.3239	2179.5494	7698.65	6806.5
947.4587	2181.0507	7687.45	6797.8
947.5934	2182.5513	7650.8	6762.4
947.7281	2184.0512	7662.1	6774.6
947.8628	2185.5504	7614.9	6728.1
947.9974	2187.0488	7580.95	6695.25
948.132	2188.5465	7559.4	6671.6
948.2666	2190.0435	7540.3	6651.3
948.4012	2191.5397	7511.25	6622.8
948.5357	2193.0353	7496.05	6606.15
948.6702	2194.5301	7466.3	6575.25
948.8047	2196.0241	7444.85	6550.7
948.9392	2197.5175	7414.55	6522.7
949.0736	2199.0101	7401.65	6507.05
949.208	2200.502	7370.6	6482.65
949.3424	2201.9931	7347.85	6461.05
949.4767	2203.4835	7316.15	6427.6
949.611	2204.9733	7289.65	6387.6
949.7453	2206.4622	7287.9	6401.3
949.8796	2207.9505	7258.9	6370.4
950.0138	2209.438	7228.9	6345.25
950.148	2210.9248	7211.2	6324.8
950.2822	2212.4109	7183.45	6296.1
950.4164	2213.8962	7161.8	6270.75
950.5505	2215.3809	7159.75	6265.85
950.6846	2216.8648	7144.9	6252.1
950.8186	2218.3479	7130.6	6233.9
950.9527	2219.8304	7091.75	6195.15
951.0867	2221.3121	7058.05	6164.5
951.2207	2222.7931	7052.9	6164.1
951.3546	2224.2733	6999.1	6107.5
951.4886	2225.7529	6983.45	6094.35
951.6225	2227.2317	6969.95	6081
951.7563	2228.7098	6953.7	6068.15
951.8902	2230.1872	6922.4	6038.55
952.024	2231.6638	6924.6	6040.55
952.1578	2233.1397	6890.5	6000.3
952.2916	2234.6149	6881.6	5997.7
952.4253	2236.0894	6846.15	5957.95
952.559	2237.5632	6837.4	5946.75
952.6927	2239.0362	6810.6	5924.4
952.8263	2240.5085	6794.55	5907.6
952.9599	2241.9801	6755.2	5868.2
953.0935	2243.4509	6732.55	5842.2
953.2271	2244.921	6710.05	5821.75
953.3606	2246.3904	6714.7	5823
953.4941	2247.8591	6684.1	5797.1
953.6276	2249.3271	6661.1	5771.65
953.7611	2250.7943	6631	5742.5
953.8945	2252.2608	6630	5742.75
954.0279	2253.7266	6599.5	5712.55
954.1612	2255.1917	6588.15	5701.65
954.2946	2256.656	6572.05	5684.6
954.4279	2258.1197	6539.65	5652.75
954.5612	2259.5826	6539.9	5648.85
954.6944	2261.0447	6524.85	5637.45
954.8276	2262.5062	6497.75	5609.05
954.9608	2263.9669	6491.2	5601.3
955.094	2265.4269	6479.25	5591.05
955.2271	2266.8862	6454.65	5568.7
955.3602	2268.3448	6449.05	5561.5
955.4933	2269.8026	6419.7	5532.9
955.6264	2271.2598	6428.2	5540.45
955.7594	2272.7162	6394.05	5508.65
955.8924	2274.1719	6362.35	5472.1
956.0253	2275.6268	6358.3	5469.25
956.1583	2277.0811	6331.3	5442.5
956.2912	2278.5346	6335.8	5448.05
956.4241	2279.9874	6309.1	5422
956.5569	2281.4395	6295.75	5410.45
956.6897	2282.8908	6272.7	5380.35
956.8225	2284.3414	6276.25	5385.8
956.9553	2285.7914	6259.25	5371.2
957.088	2287.2406	6228.45	5337.6
957.2207	2288.689	6220.5	5328.6
957.3534	2290.1368	6199.8	5306.35
957.486	2291.5838	6185.3	5290.65
957.6186	2293.0302	6160.95	5265.05
957.7512	2294.4758	6139.3	5249.1
957.8838	2295.9206	6120.7	5227.55
958.0163	2297.3648	6095.15	5208.55
958.1488	2298.8082	6095.4	5206.2
958.2813	2300.251	6081.85	5192.45
958.4137	2301.693	6057.3	5162.45
958.5461	2303.1343	6048.15	5157.1
958.6785	2304.5748	6019.25	5131.5
958.8108	2306.0147	5998.95	5110.35
958.9432	2307.4538	5981.35	5093.25
959.0754	2308.8922	5958.15	5074.2
959.2077	2310.3299	5963.05	5079.05
959.3399	2311.7669	5930.1	5043.15
959.4721	2313.2031	5937.15	5047.4
959.6043	2314.6387	5913.35	5023
959.7365	2316.0735	5889.5	5000.6
959.8686	2317.5076	5883	4993.55
960.0006	2318.941	5859.15	4969.45
960.1327	2320.3737	5841.3	4950.9
960.2647	2321.8056	5829.85	4939.75
960.3967	2323.2369	5797.3	4906.05
960.5287	2324.6674	5793.9	4902.65
960.6606	2326.0972	5808.5	4915.6
960.7925	2327.5263	5756.8	4868.2
960.9244	2328.9547	5756.25	4865.5
961.0562	2330.3823	5731.75	4840.25
961.1881	2331.8092	5725.7	4832.6
961.3198	2333.2355	5697.9	4805.75
961.4516	2334.661	5685.1	4794.45
961.5833	2336.0858	5687.25	4794.35
961.715	2337.5098	5661.45	4769.85
961.8467	2338.9332	5639.75	4751.5
961.9783	2340.3558	5628.25	4736.6
962.1099	2341.7778	5595.8	4707.65
962.2415	2343.199	5591.3	4700.3
962.373	2344.6195	5576.05	4689.55
962.5045	2346.0393	5561.25	4672.4
962.636	2347.4583	5559.3	4669.9
962.7675	2348.8767	5554.75	4662.45
962.8989	2350.2943	5537.95	4646.55
963.0303	2351.7113	5532.3	4639.9
963.1617	2353.1275	5506.2	4614.7
963.293	2354.543	5495.4	4593.65
963.4243	2355.9578	5464.6	4574.5
963.5556	2357.3718	5452.65	4565.05
963.6868	2358.7852	5424.25	4535.15
963.818	2360.1978	5394.25	4504.7
963.9492	2361.6098	5412.45	4523.75
964.0803	2363.021	5373.75	4480.65
964.2114	2364.4315	5359.3	4469.75
964.3425	2365.8413	5352.1	4460.4
964.4736	2367.2504	5321.45	4434.8
964.6046	2368.6587	5321.85	4432.5
964.7356	2370.0664	5290.5	4403.15
964.8666	2371.4733	5282.5	4394.85
964.9975	2372.8795	5285.55	4396.2
965.1284	2374.285	5234.85	4347.05
965.2593	2375.6899	5207.45	4318.8
965.3901	2377.0939	5199.35	4310.65
965.5209	2378.4973	5185.8	4299.05
965.6517	2379.9	5189.55	4301.15
965.7825	2381.3019	5146.3	4259.5
965.9132	2382.7032	5125.3	4239
966.0439	2384.1037	5134.75	4249.15
966.1745	2385.5035	5107.9	4221.9
966.3051	2386.9027	5081.6	4197.6
966.4357	2388.3011	5088.3	4200
966.5663	2389.6987	5066	4179.85
966.6968	2391.0957	5054.65	4164.55
966.8273	2392.492	5035.75	4150.4
966.9578	2393.8876	5011.75	4124.7
967.0882	2395.2824	5001.7	4115.25
967.2186	2396.6765	4971.5	4083.05
967.349	2398.07	4960.05	4071.1
967.4793	2399.4627	4946.65	4054.15
967.6097	2400.8547	4939.95	4050.3
967.7399	2402.246	4937.5	4042.05
967.8702	2403.6366	4901.5	4013.4
968.0004	2405.0265	4885.25	3998.1
968.1306	2406.4156	4874.2	3985.55
968.2607	2407.8041	4857.15	3964.05
968.3909	2409.1918	4839.6	3947
968.521	2410.5789	4824.95	3936.4
968.651	2411.9652	4831.65	3941.75
968.781	2413.3508	4792.75	3903.35
968.911	2414.7358	4789.8	3897.35
969.041	2416.12	4754.7	3866.3
969.1709	2417.5035	4745.75	3858.35
969.3008	2418.8863	4733.15	3843.95
969.4307	2420.2684	4727.5	3839.3
969.5606	2421.6497	4689.85	3800.15
969.6904	2423.0304	4674.5	3786.05
969.8201	2424.4104	4645.15	3757.05
969.9499	2425.7896	4639	3748.1
970.0796	2427.1682	4645.2	3757.7
970.2093	2428.546	4619.3	3729
970.3389	2429.9232	4626.3	3736.05
970.4685	2431.2996	4612.85	3723.6
970.5981	2432.6753	4600.9	3711.55
970.7277	2434.0503	4592.9	3703.4
970.8572	2435.4246	4589.1	3701.55
970.9867	2436.7982	4564.6	3674.15
971.1161	2438.1711	4559.6	3671.4
971.2456	2439.5433	4543.5	3653.1
971.375	2440.9148	4532.5	3638.25
971.5043	2442.2856	4497.1	3610.45
971.6336	2443.6557	4500.45	3608.55
971.7629	2445.025	4469.1	3579.2
971.8922	2446.3937	4475.75	3586.2
972.0214	2447.7617	4455.05	3566.25
972.1506	2449.1289	4460.45	3571.8
972.2798	2450.4955	4435.2	3544.6
972.4089	2451.8613	4409.05	3520.75
972.538	2453.2265	4426.45	3537
972.6671	2454.5909	4405.2	3515
972.7961	2455.9546	4394.1	3504.35
972.9251	2457.3177	4374.05	3485.5
973.0541	2458.68	4390.6	3499.9
973.1831	2460.0416	4382.05	3494
973.312	2461.4025	4351.65	3464.6
973.4408	2462.7627	4346.45	3446.75
973.5697	2464.1222	4339.4	3452.45
973.6985	2465.4811	4317.9	3430.25
973.8273	2466.8392	4306	3417.7
973.956	2468.1966	4297.35	3407.55
974.0847	2469.5533	4303.85	3414.9
974.2134	2470.9093	4297.05	3408.95
974.3421	2472.2645	4261.85	3372.4
974.4707	2473.6191	4272.7	3383.9
974.5993	2474.973	4247.2	3356.4
974.7278	2476.3262	4246.55	3355
974.8563	2477.6787	4212.35	3326.1
974.9848	2479.0305	4213.3	3326.05
975.1132	2480.3816	4199.35	3310.15
975.2417	2481.7319	4182.85	3293.1
975.37	2483.0816	4165.6	3275.1
975.4984	2484.4306	4165.7	3277.35
975.6267	2485.7789	4152.55	3265.35
975.755	2487.1264	4112.7	3222.4
975.8833	2488.4733	4109.55	3222.85
976.0115	2489.8195	4103.65	3208.9
976.1397	2491.165	4084.2	3194.4
976.2678	2492.5097	4095.95	3206.6
976.3959	2493.8538	4062.1	3175.2
976.524	2495.1972	4042.4	3154.6
976.6521	2496.5398	4033.5	3142.85
976.7801	2497.8818	4027.45	3136.85
976.9081	2499.2231	4012.8	3121.95
977.036	2500.5637	4001.45	3109.55
977.164	2501.9035	3994.3	3105.9
977.2918	2503.2427	3975.8	3082.1
977.4197	2504.5812	3980.55	3093.05
977.5475	2505.919	3962.6	3073.8
977.6753	2507.256	3957.95	3066.75
977.8031	2508.5924	3931	3042.55
977.9308	2509.9281	3941	3047.7
978.0585	2511.2631	3913.05	3022.8
978.1861	2512.5974	3906.2	3017.25
978.3137	2513.9309	3887.95	2998.55
978.4413	2515.2638	3912.1	3001.15
978.5689	2516.596	3875.35	2986.2
978.6964	2517.9275	3858.25	2968.95
978.8239	2519.2583	3859.4	2969.75
978.9513	2520.5884	3835.3	2943.7
979.0788	2521.9178	3831.45	2944.3
979.2062	2523.2465	3815.6	2927.75
979.3335	2524.5745	3808.4	2920.35
979.4608	2525.9018	3793.85	2905
979.5881	2527.2284	3781.5	2892.1
979.7154	2528.5543	3777.75	2890
979.8426	2529.8796	3782.8	2892.55
979.9698	2531.2041	3760.35	2874.05
980.0969	2532.5279	3752.15	2865.2
980.224	2533.851	3745.5	2856.8
980.3511	2535.1735	3741.2	2854.45
980.4781	2536.4952	3735.6	2847.3
980.6052	2537.8163	3727.65	2838.1
980.7321	2539.1366	3709	2820.95
980.8591	2540.4562	3697.3	2807.75
980.986	2541.7752	3714.85	2826.1
981.1129	2543.0935	3694.85	2804.8
981.2397	2544.411	3686	2794.4
981.3665	2545.7279	3679.85	2789.95
981.4933	2547.0441	3664.85	2775.85
981.62	2548.3596	3659.2	2767.95
981.7467	2549.6744	3670.35	2781.6
981.8734	2550.9885	3657.25	2762.15
982.0001	2552.3019	3654.9	2765.2
982.1267	2553.6146	3641.7	2753.55
982.2532	2554.9266	3619.1	2730.35
982.3798	2556.2379	3607.95	2719.45
982.5063	2557.5485	3604.4	2717.25
982.6327	2558.8585	3611.95	2716.4
982.7592	2560.1677	3617.25	2725.05
982.8856	2561.4762	3593.25	2702.95
983.0119	2562.7841	3596.85	2706.25
983.1383	2564.0913	3573.45	2686.8
983.2646	2565.3977	3580.05	2692.25
983.3908	2566.7035	3551.8	2662.1
983.517	2568.0086	3555	2664.1
983.6432	2569.313	3542.65	2653.65
983.7694	2570.6167	3552.15	2660.4
983.8955	2571.9197	3536.75	2647.15
984.0216	2573.222	3520.45	2627.25
984.1476	2574.5236	3509.75	2619.3
984.2737	2575.8246	3507.65	2617.2
984.3996	2577.1248	3507.65	2616.55
984.5256	2578.4244	3508.75	2621.05
984.6515	2579.7232	3490.1	2601.95
984.7774	2581.0214	3509.95	2587
984.9032	2582.3189	3504.2	2616
985.029	2583.6157	3491.2	2599.3
985.1548	2584.9118	3475.2	2586.25
985.2806	2586.2072	3468.65	2579.75
985.4063	2587.5019	3444.2	2556.8
985.5319	2588.7959	3451.8	2563.3
985.6576	2590.0893	3461.2	2571.65
985.7832	2591.3819	3443.75	2555.7
985.9087	2592.6739	3435.35	2546.7
986.0343	2593.9652	3427.35	2536.8
986.1597	2595.2557	3409.95	2523.2
986.2852	2596.5456	3425.8	2534.1
986.4106	2597.8348	3401.05	2512.75
986.536	2599.1234	3396.7	2508.4
986.6614	2600.4112	3390.55	2499.95
986.7867	2601.6983	3371.35	2482.2
986.912	2602.9848	3366.05	2476.6
987.0372	2604.2705	3354.2	2457.75
987.1624	2605.5556	3371	2482.25
987.2876	2606.84	3352.9	2464
987.4128	2608.1237	3324.2	2435.3
987.5379	2609.4067	3321.5	2430.15
987.6629	2610.689	3317.35	2418.8
987.788	2611.9707	3314.65	2423.25
987.913	2613.2516	3300.05	2407.45
988.0379	2614.5319	3283.25	2396.45
988.1629	2615.8115	3275.25	2386.85
988.2878	2617.0903	3268.7	2377.95
988.4126	2618.3685	3250.7	2361.9
988.5375	2619.6461	3244.5	2353.85
988.6622	2620.9229	3238.75	2349.8
988.787	2622.199	3235	2345.15
988.9117	2623.4745	3227.85	2338.1
989.0364	2624.7493	3212.35	2324.1
989.161	2626.0234	3200.1	2313.25
989.2857	2627.2968	3203	2313.9
989.4102	2628.5695	3194.75	2303.75
989.5348	2629.8415	3184.4	2296.1
989.6593	2631.1128	3173.75	2284.4
989.7837	2632.3835	3167.45	2278.2
989.9082	2633.6535	3155.45	2268.35
990.0326	2634.9228	3142.15	2253
990.1569	2636.1914	3136.65	2248.15
990.2812	2637.4593	3140.8	2251.3
990.4055	2638.7265	3111.25	2221.4
990.5298	2639.9931	3103.9	2214.1
990.654	2641.259	3111.5	2222.75
990.7782	2642.5242	3094.9	2204.4
990.9023	2643.7887	3098.2	2208.85
991.0264	2645.0525	3093.7	2206.4
991.1505	2646.3156	3086.8	2182.65
991.2745	2647.5781	3067.7	2181.6
991.3985	2648.8398	3060.1	2171.65
991.5225	2650.1009	3072.3	2159.05
991.6464	2651.3613	3048.5	2159.05
991.7703	2652.6211	3036.05	2148.85
991.8942	2653.8801	3031.7	2144
992.018	2655.1385	3027.45	2136.5
992.1418	2656.3961	3020.25	2131.6
992.2655	2657.6531	3019.5	2130.75
992.3892	2658.9094	3012	2123
992.5129	2660.1651	3007.6	2121.8
992.6366	2661.42	2995.4	2106.25
992.7602	2662.6743	2997.75	2109.2
992.8837	2663.9279	2996.45	2107.75
993.0073	2665.1808	2993.5	2103.9
993.1307	2666.433	2977.7	2089.5
993.2542	2667.6846	2980.1	2092.95
993.3776	2668.9354	2970.45	2077.25
993.501	2670.1856	2968.4	2078.7
993.6244	2671.4351	2963.85	2077.55
993.7477	2672.6839	2961.2	2073.85
993.8709	2673.9321	2952.5	2064.75
993.9942	2675.1795	2941.05	2051.65
994.1174	2676.4263	2943.1	2056.4
994.2405	2677.6724	2936.7	2049.3
994.3637	2678.9179	2935.45	2049.75
994.4868	2680.1626	2923.4	2035.9
994.6098	2681.4067	2930.3	2041.85
994.7328	2682.6501	2920.8	2034.4
994.8558	2683.8928	2912.3	2026.2
994.9788	2685.1348	2894.8	2007.15
995.1017	2686.3761	2880.75	1993.9
995.2245	2687.6168	2874.55	1987.8
995.3474	2688.8568	2883.8	1996.75
995.4702	2690.0961	2868.55	1982.95
995.5929	2691.3348	2848.35	1961.55
995.7156	2692.5727	2839.4	1951.3
995.8383	2693.81	2843.8	1957.25
995.961	2695.0466	2838.05	1952.65
996.0836	2696.2826	2833.55	1945.35
996.2062	2697.5178	2830.6	1939.85
996.3287	2698.7524	2821.85	1934.25
996.4512	2699.9863	2810.05	1920.2
996.5737	2701.2195	2813.65	1927.05
996.6961	2702.452	2811.35	1925.15
996.8185	2703.6839	2810.25	1922.5
996.9408	2704.9151	2800	1911.95
997.0631	2706.1456	2801.75	1913.25
997.1854	2707.3755	2801.65	1912.15
997.3077	2708.6046	2799.35	1911.9
997.4299	2709.8331	2787.6	1900.25
997.552	2711.0609	2795.65	1908.35
997.6742	2712.2881	2804.05	1915.3
997.7963	2713.5145	2791.7	1903.65
997.9183	2714.7403	2806.5	1920.05
998.0403	2715.9654	2804.7	1914.3
998.1623	2717.1899	2814.7	1912.45
998.2842	2718.4136	2809.9	1924.5
998.4062	2719.6367	2802.65	1914.65
998.528	2720.8591	2824.35	1929.9
998.6498	2722.0809	2804.3	1916.6
998.7716	2723.3019	2817.05	1927.95
998.8934	2724.5223	2827.2	1938.05
999.0151	2725.7421	2813.9	1925.3
999.1368	2726.9611	2816.45	1926.55
999.2584	2728.1795	2801.6	1909.7
999.38	2729.3972	2766.85	1880.5
999.5016	2730.6142	2774.05	1879.35
999.6231	2731.8306	2756.95	1866.9
999.7446	2733.0462	2739.6	1850.9
999.8661	2734.2612	2728.35	1835.1
999.9875	2735.4756	2710.2	1822.4
1000.1089	2736.6892	2688.1	1801.85
1000.2302	2737.9022	2664.7	1779.8
1000.3515	2739.1145	2646.85	1759.8
1000.4728	2740.3262	2645.35	1749.6
1000.594	2741.5372	2611	1724.15
1000.7152	2742.7475	2601.05	1713.35
1000.8363	2743.9571	2610.5	1720.95
1000.9575	2745.1661	2584.25	1692.55
1001.0785	2746.3744	2565.95	1678.6
1001.1996	2747.582	2567.1	1680.65
1001.3206	2748.7889	2543.4	1655.2
1001.4415	2749.9952	2538.55	1652.4
1001.5625	2751.2008	2535.45	1647.55
1001.6833	2752.4057	2523.8	1634.9
1001.8042	2753.61	2508.9	1622.6
1001.925	2754.8136	2499.6	1611.5
1002.0458	2756.0165	2502.55	1616.55
1002.1665	2757.2188	2491.5	1605.55
1002.2872	2758.4204	2487.3	1602.7
1002.4078	2759.6213	2483.2	1595.25
1002.5285	2760.8215	2483.9	1592.9
1002.649	2762.0211	2484.1	1595.05
1002.7696	2763.22	2458.15	1569.6
1002.8901	2764.4182	2472.4	1585.5
1003.0106	2765.6158	2461.35	1575.2
1003.131	2766.8127	2450.3	1563.3
1003.2514	2768.009	2435.15	1548.9
1003.3717	2769.2045	2429.8	1542.05
1003.492	2770.3994	2429.6	1540.8
1003.6123	2771.5936	2418.05	1530.2
1003.7325	2772.7872	2412.5	1527.25
1003.8527	2773.9801	2406.1	1518.65
1003.9729	2775.1723	2412.75	1510.6
1004.093	2776.3639	2403.45	1519.5
1004.2131	2777.5548	2391.5	1503.55
1004.3331	2778.745	2384.4	1496.5
1004.4531	2779.9346	2381.1	1495.1
1004.5731	2781.1235	2390.95	1504.15
1004.693	2782.3117	2376.75	1491.35
1004.8129	2783.4992	2371.75	1484.8
1004.9328	2784.6861	2371.45	1485.2
1005.0526	2785.8723	2382.15	1494.25
1005.1723	2787.0579	2369.2	1480.8
1005.2921	2788.2428	2390.65	1505.25
1005.4118	2789.427	2377.8	1492.1
1005.5314	2790.6106	2372.25	1485.9
1005.651	2791.7935	2382.3	1496.1
1005.7706	2792.9757	2373.75	1488.6
1005.8902	2794.1573	2374	1486.6
1006.0097	2795.3382	2390.85	1504.8
1006.1291	2796.5184	2400.3	1516.55
1006.2485	2797.698	2412.2	1524.15
1006.3679	2798.8769	2424.1	1537.35
1006.4873	2800.0551	2425.2	1539.25
1006.6066	2801.2327	2443.45	1556.05
1006.7258	2802.4096	2442.8	1558.75
1006.8451	2803.5859	2448.7	1560.2
1006.9642	2804.7615	2461.95	1574.75
1007.0834	2805.9364	2477.35	1592.55
1007.2025	2807.1106	2491.7	1607.4
1007.3216	2808.2842	2513.05	1627.7
1007.4406	2809.4572	2532.75	1647.1
1007.5596	2810.6294	2550	1661.7
1007.6785	2811.801	2582.8	1698.35
1007.7975	2812.972	2604.4	1720.7
1007.9163	2814.1423	2648.1	1764.25
1008.0352	2815.3119	2675.85	1791.45
1008.154	2816.4808	2726.5	1841
1008.2727	2817.6491	2743.25	1856.9
1008.3914	2818.8167	2783.85	1900.25
1008.5101	2819.9837	2823.5	1932.05
1008.6288	2821.15	2859.55	1973.8
1008.7474	2822.3157	2890.3	2007.35
1008.8659	2823.4807	2931.5	2048.45
1008.9844	2824.645	2976.35	2091.9
1009.1029	2825.8086	3012.75	2128.35
1009.2214	2826.9716	3029.1	2144.55
1009.3398	2828.134	3068.55	2185.1
1009.4581	2829.2957	3104.45	2219.8
1009.5764	2830.4567	3115.45	2230.9
1009.6947	2831.617	3126.05	2239.8
1009.813	2832.7767	3137.5	2252.85
1009.9312	2833.9358	3145.35	2260.75
1010.0493	2835.0941	3138.1	2254.4
1010.1675	2836.2519	3113.2	2229.35
1010.2855	2837.4089	3113.7	2228.55
1010.4036	2838.5653	3112.2	2228.15
1010.5216	2839.7211	3094.95	2209.7
1010.6396	2840.8761	3093.75	2208.05
1010.7575	2842.0306	3104.65	2221.75
1010.8754	2843.1843	3125.1	2241.65
1010.9932	2844.3374	3166.85	2284.45
1011.111	2845.4899	3198.2	2311.55
1011.2288	2846.6417	3264.3	2381.25
1011.3465	2847.7928	3305.05	2423.2
1011.4642	2848.9433	3362.45	2479.7
1011.5818	2850.0931	3423.15	2540.15
1011.6995	2851.2422	3472.9	2585.9
1011.817	2852.3907	3538	2652.4
1011.9345	2853.5385	3576.3	2688.7
1012.052	2854.6857	3631.15	2737.75
1012.1695	2855.8323	3668.25	2784
1012.2869	2856.9781	3695.4	2812
1012.4042	2858.1233	3741.25	2856
1012.5216	2859.2679	3771.9	2887.75
1012.6389	2860.4118	3814.05	2928.55
1012.7561	2861.555	3848.55	2959.15
1012.8733	2862.6976	3862.05	2976.1
1012.9905	2863.8395	3886.2	3002.35
1013.1076	2864.9808	3905.35	3019.5
1013.2247	2866.1214	3927.95	3044.75
1013.3417	2867.2614	3944.7	3058.35
1013.4587	2868.4007	3943.6	3057.35
1013.5757	2869.5393	3944.05	3058.3
1013.6926	2870.6773	3953.15	3065.2
1013.8095	2871.8146	3964.85	3078.25
1013.9263	2872.9513	3973.9	3085.7
1014.0431	2874.0874	3956.95	3071.5
1014.1599	2875.2227	3952.85	3067.75
1014.2766	2876.3574	3926.75	3043.45
1014.3933	2877.4915	3904.4	3020.55
1014.51	2878.6249	3868.1	2984.95
1014.6266	2879.7577	3840.55	2956
1014.7431	2880.8898	3847.75	2952.15
1014.8596	2882.0212	3816.4	2933.1
1014.9761	2883.152	3802.2	2917.75
1015.0925	2884.2821	3777.55	2895.35
1015.2089	2885.4116	3791	2905.2
1015.3253	2886.5405	3774.5	2891.55
1015.4416	2887.6686	3791.05	2903.85
1015.5579	2888.7962	3773.1	2891.65
1015.6741	2889.923	3773.25	2889.95
1015.7903	2891.0493	3784.2	2901.3
1015.9065	2892.1748	3770.3	2884.45
1016.0226	2893.2997	3790.75	2906.55
1016.1387	2894.424	3822.7	2938
1016.2547	2895.5476	3832.7	2950.1
1016.3707	2896.6706	3837	2953.4
1016.4866	2897.7929	3835.15	2949.75
1016.6025	2898.9145	3873.45	2990.1
1016.7184	2900.0355	3888.5	3002.45
1016.8342	2901.1559	3906.25	3021.6
1016.95	2902.2756	3940.3	3056.3
1017.0658	2903.3946	3945.15	3062.1
1017.1815	2904.513	3969	3083.95
1017.2971	2905.6308	3982.25	3098
1017.4127	2906.7479	4001.75	3116.55
1017.5283	2907.8643	4022.6	3137.55
1017.6439	2908.9801	4033.8	3149.85
1017.7594	2910.0953	4029.05	3145.2
1017.8748	2911.2098	4043.7	3156.55
1017.9902	2912.3236	4032.35	3141.2
1018.1056	2913.4368	4018.8	3133.2
1018.2209	2914.5494	3977.45	3093.9
1018.3362	2915.6613	3952.15	3062.5
1018.4515	2916.7725	3949.6	3062.2
1018.5667	2917.8831	3936.3	3051.7
1018.6819	2918.9931	3912.9	3025.8
1018.797	2920.1024	3854.7	2973.05
1018.9121	2921.211	3855.45	2972.9
1019.0271	2922.319	3819.9	2935.9
1019.1421	2923.4264	3801.5	2917.75
1019.2571	2924.5331	3803.9	2923.25
1019.372	2925.6391	3785.8	2904.25
1019.4869	2926.7445	3772.7	2888.95
1019.6017	2927.8493	3764.9	2879.65
1019.7165	2928.9534	3755.35	2872.75
1019.8313	2930.0569	3768.3	2881.55
1019.946	2931.1597	3748.45	2862.7
1020.0606	2932.2619	3742.1	2859.4
1020.1753	2933.3634	3744.75	2861.55
1020.2899	2934.4643	3719.25	2830.25
1020.4044	2935.5645	3713.75	2824.15
1020.5189	2936.6641	3683.5	2797.45
1020.6334	2937.763	3645.35	2762.9
1020.7478	2938.8613	3612.25	2728.5
1020.8622	2939.959	3582.2	2694.65
1020.9765	2941.056	3521.2	2638.7
1021.0908	2942.1523	3430.55	2545.2
1021.2051	2943.248	3366.1	2483
1021.3193	2944.3431	3296.95	2415.95
1021.4334	2945.4375	3210.4	2325.75
1021.5476	2946.5313	3119.35	2237.6
1021.6617	2947.6244	3045.95	2163.05
1021.7757	2948.7169	2953.7	2069.45
1021.8897	2949.8087	2876.15	1993.65
1022.0037	2950.8999	2790.15	1905.75
1022.1176	2951.9904	2716.7	1833.8
1022.2315	2953.0803	2666.1	1784.95
1022.3453	2954.1696	2610.25	1726.8
1022.4591	2955.2582	2563.35	1679.9
1022.5728	2956.3462	2526.75	1643.65
1022.6865	2957.4335	2484.6	1600.9
1022.8002	2958.5202	2460	1573.4
1022.9138	2959.6062	2427.3	1545.7
1023.0274	2960.6916	2408	1525.1
1023.141	2961.7764	2385.5	1501.25
1023.2545	2962.8605	2373.8	1490.5
1023.3679	2963.9439	2352.25	1469.8
1023.4813	2965.0267	2350.55	1468.3
1023.5947	2966.1089	2356.5	1451.5
1023.708	2967.1905	2325.5	1443.9
1023.8213	2968.2714	2319.3	1436.65
1023.9346	2969.3516	2312.2	1428.45
1024.0478	2970.4312	2329.2	1439.55
1024.1609	2971.5102	2315.7	1432.05
1024.274	2972.5885	2315.3	1434.2
1024.3871	2973.6662	2324.2	1435.6
1024.5002	2974.7432	2312.1	1430.45
1024.6132	2975.8196	2300.65	1415.65
1024.7261	2976.8954	2293.7	1413.05
1024.839	2977.9705	2284.95	1400.9
1024.9519	2979.045	2278.65	1399.9
1025.0647	2980.1188	2262.5	1380.1
1025.1775	2981.192	2243.95	1363.65
1025.2902	2982.2645	2216.9	1333.65
1025.4029	2983.3364	2207.8	1325.35
1025.5156	2984.4077	2177.75	1293.95
1025.6282	2985.4783	2161.05	1272.35
1025.7407	2986.5483	2129.3	1245.25
1025.8532	2987.6177	2094.7	1213.05
1025.9657	2988.6864	2072.4	1189
1026.0782	2989.7545	2041.9	1157.2
1026.1906	2990.8219	1998.65	1115.25
1026.3029	2991.8887	1985.1	1100.3
1026.4152	2992.9548	1949.65	1066.25
1026.5275	2994.0204	1921.2	1039.75
1026.6397	2995.0852	1896.4	1016.4
1026.7519	2996.1495	1878.85	995.7
1026.864	2997.2131	1856.7	974.55
1026.9761	2998.276	1826.15	942.8
1027.0882	2999.3383	1819.85	937.65
1027.2002	3000.4	1804	920.05
1027.3122	3001.4611	1776.6	893.15
1027.4241	3002.5215	1767.75	883.9
1027.536	3003.5812	1744.75	862.45
1027.6478	3004.6404	1734.65	851.75
1027.7596	3005.6989	1727	840.85
1027.8714	3006.7567	1721.05	838.85
1027.9831	3007.8139	1719.1	822.3
1028.0947	3008.8705	1708	826.15
1028.2064	3009.9264	1707.35	808.75
1028.3179	3010.9818	1699.45	817.5
1028.4295	3012.0364	1692.75	810.55
1028.541	3013.0905	1670.05	787.35
1028.6524	3014.1439	1673.85	792.1
1028.7638	3015.1966	1668.05	785.1
1028.8752	3016.2487	1668.65	787.2
1028.9865	3017.3002	1676.25	787.5
1029.0978	3018.3511	1653.15	772.2
1029.209	3019.4013	1661.15	778.4
1029.3202	3020.4509	1659.7	776.9
1029.4314	3021.4998	1655.55	774.15
1029.5425	3022.5481	1646.15	764.5
1029.6535	3023.5958	1650.15	769.8
1029.7645	3024.6428	1650.8	768.25
1029.8755	3025.6892	1649.2	768.3
1029.9864	3026.735	1638.1	754.75
1030.0973	3027.7802	1649.6	765.85
1030.2082	3028.8247	1642.7	758.6
1030.319	3029.8685	1642.7	758.75
1030.4297	3030.9118	1656.25	772.5
1030.5404	3031.9544	1651.5	770.25
1030.6511	3032.9963	1652.8	772.55
1030.7617	3034.0376	1655.75	773.75
1030.8723	3035.0783	1654.3	769.7
1030.9829	3036.1184	1646.5	762.3
1031.0934	3037.1578	1650.55	767.9
1031.2038	3038.1966	1650.45	766.8
1031.3142	3039.2348	1648.2	768.25
1031.4246	3040.2723	1654.8	762.5
1031.5349	3041.3092	1646.05	764.75
1031.6452	3042.3455	1648.65	766.6
1031.7554	3043.3811	1647.15	765.5
1031.8656	3044.4161	1637.4	754.3
1031.9758	3045.4505	1635.2	755.75
1032.0859	3046.4842	1627.8	744.65
1032.1959	3047.5173	1621.9	741.55
1032.3059	3048.5498	1617.65	735.5
1032.4159	3049.5816	1604.4	721.65
1032.5258	3050.6128	1605.15	722.1
1032.6357	3051.6434	1601.7	720.05
1032.7455	3052.6734	1594.85	711.05
1032.8553	3053.7027	1584.45	700.6
1032.9651	3054.7314	1580.95	699.55
1033.0748	3055.7594	1571.9	690.3
1033.1845	3056.7868	1564.5	682
1033.2941	3057.8136	1571.25	688.45
1033.4037	3058.8398	1559.1	676.7
1033.5132	3059.8653	1554.6	672.75
1033.6227	3060.8902	1552.7	670.9
1033.7321	3061.9145	1545.5	664.25
1033.8415	3062.9381	1535.65	653.6
1033.9509	3063.9612	1549.1	651.2
1034.0602	3064.9835	1526.3	645.4
1034.1694	3066.0053	1514.1	631.1
1034.2787	3067.0264	1516.35	635.85
1034.3878	3068.0469	1514.1	631.55
1034.497	3069.0668	1510.15	626.25
1034.6061	3070.086	1491.45	611.65
1034.7151	3071.1046	1489.5	606.2
1034.8241	3072.1226	1475.1	590.85
1034.9331	3073.1399	1468.25	586.1
1035.042	3074.1567	1466.45	585.05
1035.1508	3075.1727	1444.95	562.75
1035.2597	3076.1882	1446.1	564.4
1035.3684	3077.203	1437.05	554.8
1035.4772	3078.2173	1434.7	549.9
1035.5859	3079.2308	1427.75	540.65
1035.6945	3080.2438	1422.15	536.95
1035.8031	3081.2561	1405.95	523.65
1035.9117	3082.2678	1398.05	516.9
1036.0202	3083.2789	1401.35	518.45
1036.1286	3084.2893	1398.25	517.85
1036.2371	3085.2991	1387.35	507.4
1036.3454	3086.3083	1387.95	501.8
1036.4538	3087.3169	1373.2	489.55
1036.562	3088.3248	1372.1	489.95
1036.6703	3089.3321	1361.7	480
1036.7785	3090.3388	1352.55	471.85
1036.8866	3091.3449	1349.6	466.9
1036.9948	3092.3503	1350.95	467.8
1037.1028	3093.3551	1342.65	462.35
1037.2108	3094.3593	1337	456.85
1037.3188	3095.3629	1336.1	454.25
1037.4267	3096.3658	1337.7	455.7
1037.5346	3097.3681	1335.35	456.55
1037.6425	3098.3698	1327.95	444.75
1037.7503	3099.3708	1328.35	438.6
1037.858	3100.3713	1321.2	440.2
1037.9657	3101.3711	1313.95	433.8
1038.0734	3102.3702	1448.4	437.1
1038.181	3103.3688	1313.7	431.9
1038.2886	3104.3667	1303.05	422.2
1038.3961	3105.364	1299.75	417.45
1038.5036	3106.3607	1299.95	417.15
1038.611	3107.3568	1298.05	415.35
1038.7184	3108.3522	1288.85	407.05
1038.8257	3109.347	1290.15	408.05
1038.933	3110.3412	1291.8	406.3
1039.0403	3111.3348	1279.9	398.9
1039.1475	3112.3277	1274.95	393.75
1039.2547	3113.32	1275.3	394.95
1039.3618	3114.3117	1283.45	401.15
1039.4689	3115.3028	1271.7	389.75
1039.5759	3116.2932	1271.45	391.45
1039.6829	3117.2831	1270.95	384.6
1039.7898	3118.2723	1268.65	387.55
1039.8967	3119.2608	1263.65	383.15
1040.0035	3120.2488	1258.8	376.6
1040.1103	3121.2361	1261.85	381.15
1040.2171	3122.2229	1252.15	371.25
1040.3238	3123.209	1254.25	373.35
1040.4305	3124.1944	1254	372.85
1040.5371	3125.1793	1252.65	371.4
1040.6437	3126.1635	1250.4	371.1
1040.7502	3127.1471	1243.45	363.9
1040.8567	3128.1301	1244.5	365.3
1040.9631	3129.1125	1235.85	353.9
1041.0695	3130.0942	1239.4	358.3
1041.1759	3131.0753	1247.8	356.3
1041.2822	3132.0558	1234.3	350.3
1041.3884	3133.0357	1236.2	355.75
1041.4946	3134.015	1225.9	344.75
1041.6008	3134.9936	1228.55	346.45
1041.7069	3135.9716	1246.15	344.2
1041.813	3136.949	1223.9	341.85
1041.919	3137.9258	1240.15	339.85
1042.025	3138.902	1227.7	344.1
1042.1309	3139.8775	1217.75	337.5
1042.2368	3140.8524	1220	338.7
1042.3427	3141.8267	1220.55	338
1042.4485	3142.8004	1213.7	332.8
1042.5542	3143.7735	1214.35	328.3
1042.6599	3144.7459	1212.45	328.35
1042.7656	3145.7178	1204.65	321.55
1042.8712	3146.689	1204.6	324.6
1042.9768	3147.6596	1206.75	322.8
1043.0823	3148.6295	1204.75	325
1043.1878	3149.5989	1199.4	318
1043.2932	3150.5676	1199.2	319.15
1043.3986	3151.5357	1192.05	311.95
1043.5039	3152.5032	1192.4	313.7
1043.6092	3153.4701	1189.35	307.65
1043.7145	3154.4364	1194.2	308.85
1043.8197	3155.402	1183.15	304.3
1043.9248	3156.367	1187.8	306.7
1044.03	3157.3315	1219.4	304.65
1044.135	3158.2952	1180.55	299.5
1044.24	3159.2584	1181.2	301.3
1044.345	3160.221	1180.8	299.7
1044.4499	3161.1829	1173.1	291
1044.5548	3162.1442	1172.4	291.4
1044.6596	3163.105	1168.3	286.25
1044.7644	3164.065	1174.75	293.2
1044.8692	3165.0245	1169.25	287.75
1044.9739	3165.9834	1165.35	287
1045.0785	3166.9416	1162.35	282.15
1045.1831	3167.8993	1163.15	282.1
1045.2877	3168.8563	1165.6	284.15
1045.3922	3169.8127	1157.5	278.3
1045.4966	3170.7684	1160.45	279.55
1045.6011	3171.7236	1162.8	282.85
1045.7054	3172.6782	1155.55	275
1045.8098	3173.6321	1154.75	273.6
1045.914	3174.5854	1161.5	279.2
1046.0183	3175.5381	1152.25	270.75
1046.1224	3176.4902	1157.05	275.85
1046.2266	3177.4417	1149.7	270.9
1046.3307	3178.3926	1143.5	264.35
1046.4347	3179.3428	1144.15	265.9
1046.5387	3180.2924	1143.6	261.85
1046.6427	3181.2415	1143.8	262.75
1046.7466	3182.1899	1142.25	260.55
1046.8504	3183.1377	1137.45	258.9
1046.9542	3184.0848	1145.9	263.3
1047.058	3185.0314	1138.55	258.75
1047.1617	3185.9773	1133.05	251.9
1047.2654	3186.9227	1139.65	257.65
1047.369	3187.8674	1132.6	250.35
1047.4726	3188.8115	1134.15	249.35
1047.5761	3189.755	1137.6	256.85
1047.6796	3190.6979	1130.3	248.95
1047.783	3191.6402	1128.45	249.5
1047.8864	3192.5818	1126.7	245.85
1047.9898	3193.5229	1127.5	240.5
1048.0931	3194.4633	1127.85	248.5
1048.1963	3195.4031	1122.55	242.35
1048.2995	3196.3423	1117.6	239.65
1048.4027	3197.2809	1121.2	240.35
1048.5058	3198.2189	1118	236.1
1048.6089	3199.1563	1122.95	236.3
1048.7119	3200.0931	1117.25	238.1
1048.8148	3201.0292	1111	230.65
1048.9178	3201.9648	1111.25	231.45
1049.0206	3202.8997	1115.35	230.5
1049.1235	3203.834	1111.2	231.5
1049.2262	3204.7677	1107.65	226.85
1049.329	3205.7008	1111.8	229.2
1049.4317	3206.6333	1106.95	227.7
1049.5343	3207.5652	1104.1	220.55
1049.6369	3208.4964	1108.3	228.45
1049.7394	3209.4271	1103.1	221.7
1049.8419	3210.3571	1103.25	223.65
1049.9444	3211.2865	1103.25	222.15
1050.0468	3212.2154	1102.5	220.05
1050.1491	3213.1436	1103.4	221.7
1050.2514	3214.0712	1105.35	217.95
1050.3537	3214.9982	1099.75	218.65
1050.4559	3215.9246	1099.65	218.6
1050.5581	3216.8503	1094.25	214.6
1050.6602	3217.7755	1090.2	209.7
1050.7623	3218.7001	1088.4	207.8
1050.8643	3219.624	1089.35	208.6
1050.9663	3220.5473	1090.55	211.55
1051.0682	3221.4701	1092.65	209.85
1051.1701	3222.3922	1092.8	210.95
1051.2719	3223.3137	1089.35	209.75
1051.3737	3224.2346	1087.95	207.3
1051.4754	3225.1549	1085.2	204.85
1051.5771	3226.0746	1084.75	206.2
1051.6788	3226.9937	1080.35	199.65
1051.7804	3227.9121	1082.3	204.35
1051.8819	3228.83	1079.8	199.35
1051.9834	3229.7473	1084.9	205.65
1052.0849	3230.6639	1078.15	199.55
1052.1863	3231.5799	1076.95	194.7
1052.2876	3232.4954	1078.15	196.85
1052.3889	3233.4102	1074.25	193.9
1052.4902	3234.3244	1072	191.05
1052.5914	3235.238	1072.75	192.55
1052.6926	3236.151	1094.35	186.95
1052.7937	3237.0634	1070.05	191.5
1052.8948	3237.9752	1068.9	189.05
1052.9958	3238.8864	1069.25	188.25
1053.0968	3239.797	1068.8	189.3
1053.1977	3240.7069	1064.65	185.35
1053.2986	3241.6163	1069.7	187.95
1053.3994	3242.5251	1064.7	185.5
1053.5002	3243.4332	1063.85	185.85
1053.6009	3244.3408	1062.9	182.4
1053.7016	3245.2477	1055.5	177.35
1053.8022	3246.154	1062.35	180.6
1053.9028	3247.0598	1056.55	176.35
1054.0034	3247.9649	1060	179.7
1054.1039	3248.8694	1057.85	179.65
1054.2043	3249.7733	1056	176.35
1054.3047	3250.6766	1057.95	178.15
1054.4051	3251.5793	1052.05	171.8
1054.5054	3252.4814	1049.35	168.9
1054.6056	3253.3829	1048.1	169.7
1054.7058	3254.2838	1048.05	169.4
1054.806	3255.1841	1047.85	169
1054.9061	3256.0838	1040.6	159.45
1055.0061	3256.9829	1042.7	163.2
1055.1062	3257.8814	1046.3	165.05
1055.2061	3258.7792	1041.95	159.1
1055.306	3259.6765	1039.85	159.5
1055.4059	3260.5731	1038.5	160.65
1055.5057	3261.4692	1039	159.15
1055.6055	3262.3647	1030.55	149.5
1055.7052	3263.2595	1027.95	148.05
1055.8049	3264.1538	1027.5	147.95
1055.9045	3265.0474	1026.55	148.75
1056.0041	3265.9404	1028.05	149.8
1056.1036	3266.8329	1024.95	146.55
1056.2031	3267.7247	1033.15	142.45
1056.3025	3268.616	1015.15	136.5
1056.4019	3269.5066	1014.5	134
1056.5013	3270.3966	1011.45	129.5
1056.6005	3271.286	1004.2	125.75
