Software Version:	3.9.2.0
Unit SN:	10000200
Spectrometer SN:	6960
Date:	3/26/2024 1:06:53 PM
Data Line Index:	25
Spectral Points:	2048
Integration time (ms):	125
Averages:	20
Delay (ms):	30000
Sequence Number:	1
Processing:	dark subtract
Laser Power (mW):	305
Laser Current (mA):	818
Laser Diode Temp (C):	25
Laser Case Temp (C):	26
System Temp (C):	25.9
Spectrometer Temp (C):	23.8
CCD Temp (C):	0.007
Secondary Temp (C):	20.032
Heatsink Temp (C):	21.818
CCDPCB Temp (C):	36.096
SecondaryPCB Temp (C):	29.893

Wavelength	RamanShift	Raw Counts	Dark Subtracted
787.061	30.1047	425.05	15.45
787.2016	32.3739	425.55	14.2
787.3422	34.6426	425.9	14
787.4828	36.9109	429.4	15.7
787.6235	39.1787	434.15	15.9
787.7642	41.4461	441.95	20.5
787.9049	43.7131	443.8	17.85
788.0456	45.9796	449.1	19.95
788.1863	48.2456	452.8	22.65
788.3271	50.5112	459.15	22.2
788.4679	52.7764	462.95	24.8
788.6087	55.0411	467.6	24.75
788.7496	57.3054	475.4	30.45
788.8904	59.5692	478.7	29.45
789.0313	61.8326	483.35	32.4
789.1722	64.0955	490.1	34.75
789.3132	66.3579	501.3	41
789.4541	68.6199	505.95	42.3
789.5951	70.8815	517.55	50.9
789.7361	73.1426	546.05	78.25
789.8771	75.4032	590.3	116.35
790.0181	77.6634	709.25	230.2
790.1592	79.9231	993	509.3
790.3003	82.1824	1586.25	1098.1
790.4414	84.4412	2608.75	2113.9
790.5825	86.6995	3971.2	3467.6
790.7237	88.9574	5353.65	4845.05
790.8648	91.2148	6360.05	5847.15
791.006	93.4717	6879	6359.7
791.1472	95.7282	7076	6554.4
791.2885	97.9842	7179.05	6654.7
791.4297	100.2398	7172.9	6644.5
791.571	102.4949	7132.75	6601.6
791.7123	104.7495	7111.2	6576
791.8536	107.0036	7074.75	6538.7
791.9949	109.2573	7013.8	6479.05
792.1363	111.5105	6954	6417.7
792.2777	113.7632	6893.8	6354.95
792.4191	116.0154	6859.9	6310.75
792.5605	118.2672	6812.15	6270.35
792.7019	120.5185	6737	6193
792.8434	122.7693	6667.5	6123.4
792.9849	125.0197	6617.95	6069.05
793.1264	127.2696	6548.55	5996.45
793.2679	129.519	6533.3	5977.75
793.4094	131.7679	6498	5939.35
793.551	134.0163	6494.9	5933.15
793.6926	136.2642	6493.35	5925.5
793.8342	138.5117	6491.8	5915.1
793.9758	140.7587	6473.85	5904.4
794.1175	143.0052	6443.8	5871.25
794.2591	145.2512	6389.85	5818.25
794.4008	147.4967	6342.4	5769
794.5425	149.7417	6292.75	5715.05
794.6842	151.9863	6269.75	5688.05
794.826	154.2304	6241.95	5658.2
794.9677	156.4739	6231.75	5645.5
795.1095	158.717	6224.75	5638.35
795.2513	160.9596	6248.6	5652.7
795.3931	163.2017	6265.5	5670.3
795.535	165.4433	6268.3	5670.25
795.6768	167.6844	6237.05	5635.3
795.8187	169.925	6220.3	5617.5
795.9606	172.1651	6158.75	5550.25
796.1025	174.4047	6131.65	5521.35
796.2445	176.6439	6101.85	5489.85
796.3864	178.8825	6070.95	5457.25
796.5284	181.1206	6062.9	5444.4
796.6704	183.3582	6033.7	5410.85
796.8124	185.5954	6026.65	5402.6
796.9544	187.832	6019.75	5391.5
797.0965	190.0681	6045.7	5417.6
797.2386	192.3037	6042.65	5410.4
797.3806	194.5388	6014.3	5379.35
797.5228	196.7734	6038.35	5400.4
797.6649	199.0075	6037.1	5393.3
797.807	201.2411	6067.75	5423.75
797.9492	203.4742	6083.1	5438.8
798.0914	205.7068	6106.55	5459.6
798.2336	207.9389	6111.6	5466.05
798.3758	210.1704	6132.9	5481.4
798.518	212.4015	6098.25	5443
798.6603	214.632	6105.85	5451.7
798.8025	216.862	6091.2	5446.15
798.9448	219.0915	6092.35	5456.35
799.0871	221.3205	6094.65	5457.3
799.2294	223.549	6096.4	5464.25
799.3718	225.777	6101.25	5468.85
799.5141	228.0044	6086.7	5451.25
799.6565	230.2314	6100.75	5466.5
799.7989	232.4578	6085.25	5450.7
799.9413	234.6837	6060.7	5417.5
800.0837	236.909	6053.15	5407.7
800.2262	239.1339	6044.95	5376.35
800.3687	241.3582	6045.7	5389.25
800.5111	243.582	6044.25	5359.05
800.6536	245.8053	6033.95	5359.05
800.7961	248.0281	6025.4	5356.9
800.9387	250.2503	6015.85	5342.75
801.0812	252.472	6013.15	5336.15
801.2238	254.6932	6053.35	5374.15
801.3664	256.9139	6023.4	5340.6
801.509	259.134	6039.65	5354.8
801.6516	261.3536	6021.65	5336.75
801.7942	263.5727	6081.8	5397.05
801.9369	265.7912	6071.05	5385.55
802.0795	268.0092	6108.75	5423
802.2222	270.2267	6125.65	5436.85
802.3649	272.4436	6166.15	5477.35
802.5076	274.6601	6176.75	5480.75
802.6504	276.8759	6198.95	5507.3
802.7931	279.0913	6232.55	5539.85
802.9359	281.3061	6236	5539.5
803.0787	283.5204	6252.65	5552.85
803.2215	285.7341	6254.4	5551
803.3643	287.9473	6293.3	5577.1
803.5071	290.16	6268.85	5560.45
803.6499	292.3721	6220	5517.85
803.7928	294.5837	6208.1	5504.85
803.9357	296.7947	6163.35	5460.35
804.0786	299.0052	6135.9	5432.55
804.2215	301.2152	6116.2	5409.5
804.3644	303.4246	6124	5421.4
804.5074	305.6334	6095.8	5389.9
804.6503	307.8418	6069.7	5362.65
804.7933	310.0495	6047.7	5338
804.9363	312.2568	6010.05	5300.4
805.0793	314.4635	5970.7	5259
805.2223	316.6696	5923.1	5209.7
805.3653	318.8752	5891.9	5171.2
805.5084	321.0802	5857	5142.45
805.6514	323.2847	5831.95	5118.05
805.7945	325.4887	5817.9	5101.15
805.9376	327.692	5828.5	5112.05
806.0807	329.8949	5859.9	5140.55
806.2238	332.0972	5884.45	5161.35
806.367	334.2989	5914.15	5187.35
806.5101	336.5001	5920	5193.3
806.6533	338.7007	5893.75	5167.7
806.7965	340.9008	5876.35	5149.95
806.9397	343.1003	5801.45	5071.5
807.0829	345.2992	5763.9	5033.1
807.2261	347.4976	5738.35	5007.8
807.3693	349.6955	5691.35	4954.75
807.5126	351.8927	5693.15	4957.6
807.6559	354.0895	5670.8	4923.15
807.7991	356.2856	5675.6	4934.85
807.9424	358.4812	5631.05	4894.3
808.0857	360.6763	5641.8	4902.4
808.2291	362.8707	5629.4	4886.8
808.3724	365.0646	5625.2	4881.6
808.5158	367.258	5619.5	4873.8
808.6591	369.4508	5624.8	4876.5
808.8025	371.643	5649.75	4899.05
808.9459	373.8346	5639.35	4887.05
809.0893	376.0257	5668.65	4913.4
809.2327	378.2162	5699.75	4942.95
809.3762	380.4062	5729.15	4972.8
809.5196	382.5956	5675.85	4919
809.6631	384.7844	5633.45	4874.05
809.8066	386.9726	5583.05	4824.5
809.9501	389.1603	5548	4790.1
810.0936	391.3474	5572.55	4784.95
810.2371	393.5339	5519.8	4761.9
810.3806	395.7199	5506.1	4756.5
810.5241	397.9052	5535.45	4786.15
810.6677	400.09	5542.3	4794.15
810.8113	402.2743	5570.3	4820.3
810.9548	404.4579	5592.85	4839.05
811.0984	406.641	5623.15	4869.65
811.2421	408.8235	5663.8	4909.85
811.3857	411.0054	5711.35	4956.45
811.5293	413.1868	5826.7	5068.9
811.673	415.3675	5916.3	5155.8
811.8166	417.5477	5964.7	5200.5
811.9603	419.7273	5881.75	5118.15
812.104	421.9064	5725.7	4952.75
812.2477	424.0848	5641.05	4872.6
812.3914	426.2627	5567.35	4796.15
812.5351	428.4399	5532.1	4760.25
812.6788	430.6166	5476.9	4701.6
812.8226	432.7928	5416.35	4640.85
812.9663	434.9683	5387.95	4614.4
813.1101	437.1432	5352.05	4573.4
813.2539	439.3176	5332.85	4555.65
813.3977	441.4914	5289.5	4511.35
813.5415	443.6645	5301.35	4520.45
813.6853	445.8371	5279.5	4497.85
813.8291	448.0091	5279.75	4501.1
813.973	450.1806	5282.35	4502.75
814.1168	452.3514	5245.25	4462.35
814.2607	454.5216	5232.45	4443.35
814.4046	456.6913	5225.2	4438.35
814.5485	458.8603	5205	4419.8
814.6924	461.0288	5232.85	4447.35
814.8363	463.1967	5210.4	4427.8
814.9802	465.3639	5219.7	4432.2
815.1241	467.5306	5209.65	4422.4
815.2681	469.6967	5185.1	4397
815.412	471.8622	5178.05	4387.15
815.556	474.0271	5161.2	4372.6
815.7	476.1914	5170.4	4380.45
815.844	478.3551	5174.8	4386.65
815.988	480.5182	5180.15	4390.15
816.132	482.6807	5168.3	4377.9
816.276	484.8426	5187.25	4399.15
816.4201	487.0039	5228.85	4435.95
816.5641	489.1647	5239.1	4446.1
816.7082	491.3248	5282.9	4491.35
816.8522	493.4843	5320.25	4527.55
816.9963	495.6432	5292.05	4497.15
817.1404	497.8015	5268	4469.65
817.2845	499.9592	5236.75	4442.4
817.4286	502.1163	5217.3	4421.9
817.5727	504.2728	5158.75	4360.5
817.7168	506.4287	5142.45	4345.55
817.861	508.5839	5105.3	4308.2
818.0051	510.7386	5115	4316.95
818.1493	512.8927	5124	4318.55
818.2935	515.0461	5108.75	4310.15
818.4377	517.199	5130.2	4330.5
818.5818	519.3512	5154.6	4355.1
818.726	521.5029	5215.4	4410.35
818.8703	523.6539	5236.2	4435.8
819.0145	525.8043	5262.55	4458.4
819.1587	527.9541	5241.85	4435.5
819.303	530.1033	5170.15	4366.6
819.4472	532.2519	5143.3	4337.5
819.5915	534.3999	5113.1	4305.55
819.7357	536.5472	5096.2	4288.7
819.88	538.694	5103.2	4295.95
820.0243	540.8401	5106.85	4299.65
820.1686	542.9856	5127	4317.75
820.3129	545.1305	5138.65	4330.45
820.4572	547.2748	5176.05	4365.55
820.6016	549.4185	5150.55	4339.9
820.7459	551.5615	5159.1	4348.5
820.8902	553.704	5145.3	4332.5
821.0346	555.8458	5158.3	4348.35
821.1789	557.987	5183.25	4371.3
821.3233	560.1276	5203	4387.85
821.4677	562.2675	5246.7	4433.85
821.6121	564.4069	5296.8	4484.8
821.7565	566.5456	5338.2	4524.35
821.9009	568.6837	5300.2	4485.55
822.0453	570.8212	5247.85	4431.2
822.1897	572.958	5195.8	4378
822.3342	575.0942	5160.95	4348.85
822.4786	577.2299	5133.95	4320
822.6231	579.3648	5074.5	4259.45
822.7675	581.4992	5059.1	4245.1
822.912	583.6329	5049.7	4235.2
823.0565	585.766	5059.1	4246.2
823.201	587.8985	5078.15	4262.85
823.3454	590.0304	5107.9	4279.1
823.4899	592.1616	5138.45	4318.3
823.6345	594.2922	5122.3	4302
823.779	596.4222	5106.4	4286.65
823.9235	598.5515	5061.65	4241.45
824.068	600.6802	5004.35	4181.35
824.2126	602.8083	4957.75	4137.3
824.3571	604.9358	4956.65	4135.6
824.5017	607.0626	4938	4117.1
824.6462	609.1888	4937.4	4112.45
824.7908	611.3144	4958.9	4132.95
824.9354	613.4393	4975.15	4150.65
825.08	615.5636	5007.1	4183.6
825.2246	617.6873	5056.8	4232.05
825.3692	619.8103	5084.45	4259.8
825.5138	621.9327	5071.25	4244.25
825.6584	624.0544	5076.9	4251.35
825.803	626.1756	5028.65	4204.15
825.9477	628.2961	4977.1	4151.55
826.0923	630.4159	4958.5	4130.35
826.237	632.5351	4942.25	4114
826.3816	634.6537	4928.85	4098.05
826.5263	636.7716	4938.6	4104.7
826.6709	638.8889	4925.05	4094.95
826.8156	641.0056	4926	4096.5
826.9603	643.1216	4934.45	4103.6
827.105	645.237	4953.85	4121.6
827.2497	647.3518	4938.85	4109.35
827.3944	649.4659	4909.5	4079.3
827.5391	651.5793	4882.6	4050.55
827.6838	653.6922	4872.25	4041.25
827.8285	655.8043	4859.45	4025.85
827.9733	657.9159	4854.25	4021.4
828.118	660.0268	4836.9	4002.2
828.2627	662.137	4827.1	3992.35
828.4075	664.2466	4822.15	3984.8
828.5522	666.3556	4820.95	3986.8
828.697	668.4639	4800.85	3963.4
828.8418	670.5716	4805.75	3973.15
828.9865	672.6786	4798.55	3960.95
829.1313	674.785	4777.65	3939.9
829.2761	676.8907	4770.85	3934.8
829.4209	678.9958	4788.95	3955.35
829.5657	681.1002	4766.45	3927.85
829.7105	683.204	4762.8	3922.65
829.8553	685.3072	4752.75	3912.55
830.0001	687.4097	4745.6	3909.65
830.1449	689.5115	4759.95	3918.2
830.2898	691.6127	4755.8	3918.8
830.4346	693.7132	4764.65	3925.45
830.5794	695.8131	4767.25	3919.75
830.7243	697.9123	4767.15	3924
830.8691	700.0109	4754.55	3911.7
831.014	702.1089	4750.3	3910.3
831.1588	704.2061	4766.5	3927
831.3037	706.3028	4780.55	3937.4
831.4486	708.3987	4795.75	3953.05
831.5935	710.4941	4800	3957.75
831.7383	712.5887	4813.05	3970.05
831.8832	714.6827	4806.2	3957.7
832.0281	716.7761	4798.8	3955.6
832.173	718.8688	4797.8	3951.15
832.3179	720.9608	4781.1	3930.95
832.4628	723.0522	4794.1	3947
832.6077	725.1429	4807.1	3963.85
832.7527	727.233	4829.6	3983.6
832.8976	729.3224	4892.3	4047.25
833.0425	731.4112	4914.9	4068.5
833.1874	733.4993	4939.95	4090.95
833.3324	735.5867	4898.4	4050.05
833.4773	737.6735	4841.7	3990.45
833.6222	739.7596	4819.25	3971.5
833.7672	741.845	4780.85	3933.8
833.9122	743.9298	4785.6	3936.65
834.0571	746.014	4786	3939.5
834.2021	748.0974	4796.4	3948.65
834.347	750.1802	4792.55	3941.75
834.492	752.2624	4777.25	3928.55
834.637	754.3439	4737.8	3885.6
834.782	756.4247	4730.9	3870.25
834.9269	758.5048	4712.65	3861.6
835.0719	760.5843	4688.05	3836.95
835.2169	762.6631	4708.4	3856.6
835.3619	764.7413	4722.5	3872.75
835.5069	766.8188	4788.25	3933.2
835.6519	768.8956	4830.9	3976.1
835.7969	770.9718	4895	4042.25
835.9419	773.0473	4870.5	4019.7
836.0869	775.1221	4832	3980.35
836.232	777.1962	4822.8	3968.55
836.377	779.2697	4844.3	3988.25
836.522	781.3426	4914.85	4043.15
836.667	783.4147	4990.95	4135.95
836.8121	785.4862	4983.55	4132.1
836.9571	787.557	4904.95	4051.35
837.1021	789.6271	4822.55	3968.85
837.2472	791.6966	4722.8	3868.1
837.3922	793.7654	4629.25	3774.65
837.5373	795.8335	4563.9	3707.7
837.6823	797.901	4548.1	3694.45
837.8274	799.9678	4521.6	3665.2
837.9724	802.0339	4516.65	3663.05
838.1175	804.0993	4519.4	3653.75
838.2626	806.1641	4502.85	3646.1
838.4076	808.2282	4469.85	3614.4
838.5527	810.2916	4470.6	3612.35
838.6978	812.3544	4468.25	3613.6
838.8428	814.4164	4449.15	3594.65
838.9879	816.4778	4438	3579.7
839.133	818.5385	4440.5	3583.95
839.2781	820.5986	4467.5	3609
839.4232	822.658	4508.75	3648.5
839.5682	824.7166	4512.55	3655.9
839.7133	826.7747	4608.95	3752.75
839.8584	828.832	4657.6	3797.05
840.0035	830.8886	4676.75	3817.65
840.1486	832.9446	4709.45	3847.35
840.2937	834.9999	4682	3823.55
840.4388	837.0545	4619.8	3758.35
840.5839	839.1085	4564.3	3706.15
840.729	841.1618	4488.5	3627.25
840.8741	843.2143	4454.4	3594.95
841.0192	845.2662	4403.95	3545.55
841.1643	847.3175	4398.95	3540.25
841.3095	849.368	4379.8	3517.05
841.4546	851.4179	4379.75	3521.1
841.5997	853.467	4350.6	3491.6
841.7448	855.5155	4362.1	3503.35
841.8899	857.5633	4340.55	3483.2
842.0351	859.6105	4346	3488.3
842.1802	861.6569	4329.6	3470.65
842.3253	863.7027	4320.15	3457.6
842.4704	865.7478	4294	3430.6
842.6156	867.7922	4292.55	3429.8
842.7607	869.8359	4267.85	3405.1
842.9058	871.8789	4265	3402.4
843.0509	873.9212	4273.2	3382.45
843.1961	875.9629	4237.05	3376.85
843.3412	878.0039	4250.1	3384.55
843.4863	880.0441	4260.35	3397.6
843.6315	882.0837	4288.55	3424.45
843.7766	884.1226	4280.45	3417.3
843.9218	886.1609	4300.65	3438.65
844.0669	888.1984	4332.45	3471.3
844.212	890.2352	4380.6	3518.45
844.3572	892.2714	4390.7	3523.4
844.5023	894.3069	4371.6	3505.7
844.6475	896.3416	4310.65	3445.5
844.7926	898.3757	4279.85	3414.25
844.9377	900.4091	4262.85	3397.2
845.0829	902.4418	4230.9	3362.85
845.228	904.4739	4234.65	3369.9
845.3732	906.5052	4251.5	3384.95
845.5183	908.5358	4257.9	3393.65
845.6635	910.5658	4238.25	3369.15
845.8086	912.595	4211.95	3344.8
845.9538	914.6236	4172.4	3306.95
846.0989	916.6515	4139.3	3274.9
846.2441	918.6786	4121.65	3254.25
846.3892	920.7051	4094.55	3224.6
846.5344	922.7309	4102.4	3237.85
846.6795	924.756	4072.75	3206.85
846.8246	926.7804	4092.7	3222.15
846.9698	928.8041	4071.1	3201.1
847.1149	930.8272	4097.8	3226.55
847.2601	932.8495	4071.05	3201
847.4052	934.8711	4073.85	3205.3
847.5504	936.892	4075.65	3208.05
847.6955	938.9123	4076.95	3208.9
847.8407	940.9318	4098.3	3230.45
847.9858	942.9506	4100.2	3229.8
848.131	944.9688	4088.1	3220.05
848.2761	946.9862	4070.75	3202.45
848.4213	949.003	4020.7	3153.25
848.5664	951.019	3998.35	3128.8
848.7115	953.0344	3968.45	3099.1
848.8567	955.0491	3958.9	3089.45
849.0018	957.063	3938.5	3069.8
849.147	959.0763	3962.65	3085.1
849.2921	961.0888	3914.75	3044.35
849.4373	963.1007	3933.75	3063.5
849.5824	965.1119	3919.4	3051.65
849.7275	967.1223	3908.1	3037.95
849.8727	969.1321	3897.7	3027.9
850.0178	971.1412	3881.85	3012.75
850.1629	973.1495	3863.3	2993.6
850.3081	975.1572	3880.7	2979.45
850.4532	977.1641	3860.3	2989.95
850.5983	979.1704	3850.85	2980.2
850.7435	981.1759	3838.55	2965.05
850.8886	983.1808	3829.55	2955.1
851.0337	985.1849	3809.3	2925.85
851.1788	987.1884	3797.55	2924.7
851.324	989.1911	3794.35	2918
851.4691	991.1932	3803.4	2930.25
851.6142	993.1945	3781.25	2910.05
851.7593	995.1951	3778.15	2905.45
851.9045	997.1951	3774.25	2895.1
852.0496	999.1943	3741.95	2870.7
852.1947	1001.1928	3744.05	2871.25
852.3398	1003.1906	3721.3	2849.1
852.4849	1005.1877	3754.4	2879.95
852.63	1007.1841	3748.45	2875.85
852.7751	1009.1798	3756.4	2883.3
852.9202	1011.1748	3737.45	2866.1
853.0653	1013.1691	3719.05	2845.7
853.2104	1015.1627	3688.8	2816.65
853.3555	1017.1556	3662.45	2789.1
853.5006	1019.1477	3617.4	2742.65
853.6457	1021.1392	3596.35	2725.65
853.7908	1023.1299	3585.2	2714
853.9359	1025.12	3581.4	2708.65
854.081	1027.1093	3548.85	2681.05
854.2261	1029.0979	3555.55	2687.5
854.3712	1031.0859	3567.95	2697.45
854.5163	1033.0731	3567.15	2692.5
854.6613	1035.0596	3575.8	2704.95
854.8064	1037.0454	3555.05	2681.85
854.9515	1039.0304	3540	2665.7
855.0965	1041.0148	3511.85	2638.8
855.2416	1042.9985	3480.6	2604.45
855.3867	1044.9814	3472.6	2598.2
855.5317	1046.9636	3454.5	2576.35
855.6768	1048.9452	3448.55	2576.1
855.8219	1050.926	3455.45	2580.2
855.9669	1052.9061	3450.7	2576.35
856.112	1054.8855	3454.7	2578.6
856.257	1056.8642	3452.75	2578.35
856.4021	1058.8421	3455.5	2575.3
856.5471	1060.8194	3432.2	2556.55
856.6921	1062.7959	3418.85	2543.6
856.8372	1064.7717	3430.8	2552.8
856.9822	1066.7469	3417.45	2541.95
857.1272	1068.7213	3414.6	2534.6
857.2723	1070.695	3401.75	2528.25
857.4173	1072.6679	3411.5	2536.25
857.5623	1074.6402	3420.15	2543.8
857.7073	1076.6117	3428.3	2546.05
857.8523	1078.5826	3430.95	2554.15
857.9973	1080.5527	3386.55	2506.95
858.1423	1082.5221	3344.55	2467.5
858.2873	1084.4908	3308.8	2432.6
858.4323	1086.4587	3296.1	2418.15
858.5773	1088.426	3273	2396.4
858.7223	1090.3925	3271.45	2390.1
858.8673	1092.3584	3273	2396.05
859.0123	1094.3235	3261.85	2386.9
859.1573	1096.2879	3267.9	2387.95
859.3022	1098.2515	3273.6	2397.15
859.4472	1100.2145	3282.75	2406.55
859.5922	1102.1767	3310.7	2433.5
859.7371	1104.1382	3329.95	2453.4
859.8821	1106.099	3371.55	2491.05
860.027	1108.0591	3405.6	2529.05
860.172	1110.0185	3417.75	2538.45
860.3169	1111.9771	3461.1	2583.7
860.4619	1113.9351	3488.45	2609.6
860.6068	1115.8923	3529.9	2651.7
860.7517	1117.8488	3561.15	2681.05
860.8967	1119.8045	3516.45	2636.45
861.0416	1121.7596	3448.9	2569.4
861.1865	1123.7139	3344.8	2465.5
861.3314	1125.6675	3275.35	2397.7
861.4763	1127.6204	3281	2403.45
861.6212	1129.5726	3284.05	2404.25
861.7661	1131.524	3293.3	2417.1
861.911	1133.4748	3262.35	2383.4
862.0559	1135.4248	3207.35	2328.8
862.2008	1137.3741	3147.3	2271.15
862.3457	1139.3226	3132.65	2252
862.4905	1141.2705	3113.15	2231.7
862.6354	1143.2176	3117.2	2230.7
862.7803	1145.164	3102.9	2221.45
862.9251	1147.1097	3119	2239.1
863.07	1149.0546	3099.35	2218.9
863.2148	1150.9989	3073	2193.15
863.3597	1152.9424	3054.55	2174.05
863.5045	1154.8852	3022.2	2141.6
863.6493	1156.8272	3024.65	2145.4
863.7942	1158.7686	3012.75	2125.55
863.939	1160.7092	3005.15	2123.65
864.0838	1162.6491	2997.8	2117.7
864.2286	1164.5883	2998.3	2117.8
864.3734	1166.5267	3019.35	2136.6
864.5182	1168.4644	3023.2	2141.6
864.663	1170.4014	3040.05	2153.5
864.8078	1172.3377	3070.95	2191.1
864.9526	1174.2732	3104.4	2222.9
865.0974	1176.2081	3160.25	2278.25
865.2421	1178.1421	3246.95	2363.6
865.3869	1180.0755	3349.45	2468.85
865.5317	1182.0082	3409.7	2529.45
865.6764	1183.9401	3410.55	2529.1
865.8212	1185.8713	3336.2	2456.6
865.9659	1187.8017	3231.3	2349.2
866.1106	1189.7315	3125.25	2247.4
866.2554	1191.6605	3048.55	2168.5
866.4001	1193.5888	2999.4	2119.6
866.5448	1195.5163	2977.3	2099.1
866.6895	1197.4432	2960	2077.65
866.8342	1199.3693	2923.15	2042
866.9789	1201.2947	2909.35	2025.25
867.1236	1203.2193	2895.3	2014.15
867.2683	1205.1432	2892.5	2012.25
867.413	1207.0664	2864.3	1983.6
867.5576	1208.9889	2867.35	1982.65
867.7023	1210.9106	2852	1970.55
867.847	1212.8316	2852.5	1971.6
867.9916	1214.7519	2859.95	1970.5
868.1363	1216.6715	2849.7	1969.9
868.2809	1218.5903	2858.05	1978.1
868.4255	1220.5084	2859.3	1977.45
868.5701	1222.4257	2862.05	1981.25
868.7148	1224.3424	2874.45	1993.7
868.8594	1226.2583	2882.2	1994.3
869.004	1228.1735	2872.85	1991.85
869.1486	1230.0879	2915.75	2035.65
869.2932	1232.0016	2940	2057.7
869.4377	1233.9146	2958.2	2075.45
869.5823	1235.8269	2961	2079.2
869.7269	1237.7384	2975.35	2093.65
869.8715	1239.6492	2964.55	2082.7
870.016	1241.5592	2973.7	2089.85
870.1606	1243.4686	2988.15	2107.3
870.3051	1245.3772	3035.85	2154.25
870.4496	1247.285	3098.4	2216.9
870.5941	1249.1922	3169.4	2288.55
870.7387	1251.0986	3213.15	2332.9
870.8832	1253.0042	3265.25	2382.55
871.0277	1254.9092	3334.1	2450.25
871.1722	1256.8134	3417.8	2534.7
871.3167	1258.7169	3484	2600
871.4611	1260.6196	3540.85	2658.3
871.6056	1262.5216	3565.35	2683.2
871.7501	1264.4229	3551.8	2670.8
871.8945	1266.3234	3532.5	2650.1
872.039	1268.2232	3500.9	2618.4
872.1834	1270.1223	3430.8	2547.05
872.3278	1272.0207	3404.05	2521.35
872.4723	1273.9183	3380.35	2490.75
872.6167	1275.8151	3367.35	2486.15
872.7611	1277.7113	3371.8	2490.25
872.9055	1279.6067	3441.7	2557.85
873.0499	1281.5014	3554.55	2668.85
873.1943	1283.3953	3690.2	2803.9
873.3386	1285.2885	3852.05	2968.45
873.483	1287.181	3992.75	3106.65
873.6274	1289.0727	4051.05	3168.15
873.7717	1290.9637	4015.05	3130.65
873.9161	1292.854	3920.4	3038.45
874.0604	1294.7435	3815.75	2932.55
874.2047	1296.6323	3693.55	2809.2
874.349	1298.5204	3596.15	2709.55
874.4933	1300.4077	3513.65	2629.9
874.6376	1302.2943	3480	2595.85
874.7819	1304.1802	3444.95	2560.4
874.9262	1306.0653	3409.6	2523.1
875.0705	1307.9497	3377.8	2493.4
875.2147	1309.8333	3359.05	2477.85
875.359	1311.7162	3327.9	2446.75
875.5032	1313.5984	3302.85	2417.05
875.6475	1315.4798	3289.2	2387.05
875.7917	1317.3605	3275.7	2385.65
875.9359	1319.2405	3285.6	2400.45
876.0801	1321.1197	3279.25	2392.95
876.2243	1322.9982	3248.35	2360
876.3685	1324.876	3201.45	2318.25
876.5127	1326.753	3127.8	2242.6
876.6569	1328.6293	3054.25	2169.8
876.801	1330.5048	2980.25	2093.8
876.9452	1332.3796	2892.75	2009.95
877.0893	1334.2537	2861.55	1953.7
877.2335	1336.127	2799.3	1915.75
877.3776	1337.9996	2773.85	1890.15
877.5217	1339.8714	2740.85	1856.65
877.6658	1341.7426	2757.55	1830.95
877.8099	1343.6129	2722.95	1838.15
877.954	1345.4826	2693.75	1809.4
878.0981	1347.3515	2691.15	1805.4
878.2422	1349.2196	2668	1784.05
878.3862	1351.087	2654.65	1769
878.5303	1352.9537	2654.5	1769.95
878.6743	1354.8197	2659.55	1774.6
878.8184	1356.6849	2652.7	1767.95
878.9624	1358.5493	2659.5	1773.45
879.1064	1360.4131	2664.25	1780.6
879.2504	1362.276	2691.75	1807.1
879.3944	1364.1383	2724.7	1840.9
879.5384	1365.9998	2740.75	1849.9
879.6823	1367.8606	2730.35	1847.3
879.8263	1369.7206	2717.5	1832.4
879.9702	1371.5799	2704.9	1817.5
880.1142	1373.4384	2713.15	1826.1
880.2581	1375.2962	2681.9	1795.6
880.402	1377.1533	2636.95	1753.2
880.5459	1379.0096	2601.05	1714.5
880.6898	1380.8652	2566.6	1681.6
880.8337	1382.7201	2538.4	1651.9
880.9776	1384.5742	2501.9	1617.6
881.1215	1386.4275	2488.45	1602.5
881.2653	1388.2802	2462.5	1577.95
881.4092	1390.132	2440.65	1558
881.553	1391.9832	2446.5	1559.8
881.6968	1393.8336	2429.85	1544.35
881.8406	1395.6832	2419	1532.9
881.9844	1397.5322	2413.15	1528.45
882.1282	1399.3803	2406.1	1516.6
882.272	1401.2278	2384	1497.45
882.4158	1403.0745	2386.1	1500.8
882.5595	1404.9204	2359.1	1477.5
882.7033	1406.7656	2347.75	1460.6
882.847	1408.6101	2347.45	1461.2
882.9908	1410.4538	2338.6	1451.05
883.1345	1412.2968	2329.4	1442
883.2782	1414.139	2321.75	1436.45
883.4219	1415.9805	2319.15	1433.9
883.5656	1417.8213	2356.05	1449.6
883.7092	1419.6613	2336.25	1451.55
883.8529	1421.5006	2366.25	1477.05
883.9965	1423.3391	2381.6	1496.75
884.1402	1425.1769	2414.75	1528.6
884.2838	1427.0139	2476.65	1589.65
884.4274	1428.8502	2547.6	1659.65
884.571	1430.6858	2588.9	1702.15
884.7146	1432.5206	2613.9	1728.95
884.8582	1434.3547	2623.4	1735.8
885.0018	1436.188	2593.95	1708.25
885.1453	1438.0206	2577.05	1689.75
885.2889	1439.8524	2570.8	1683.7
885.4324	1441.6835	2562.85	1676.1
885.5759	1443.5139	2564.1	1674.25
885.7194	1445.3435	2576.15	1688.3
885.8629	1447.1724	2580.65	1694.15
886.0064	1449.0005	2555.6	1667.85
886.1499	1450.8279	2553.2	1666.95
886.2933	1452.6545	2551.4	1666.95
886.4368	1454.4804	2551.75	1665.3
886.5802	1456.3056	2543.3	1649.55
886.7237	1458.13	2517.05	1634.4
886.8671	1459.9536	2504.45	1618.05
887.0105	1461.7766	2466.2	1579.95
887.1539	1463.5987	2435.3	1545.85
887.2972	1465.4202	2391.7	1504.2
887.4406	1467.2409	2371.25	1486.8
887.584	1469.0608	2343.3	1458.15
887.7273	1470.88	2303.1	1414.75
887.8706	1472.6984	2293.5	1408.2
888.0139	1474.5161	2263.8	1375.2
888.1572	1476.3331	2241.2	1354.05
888.3005	1478.1493	2240.45	1352.15
888.4438	1479.9648	2229.6	1342.7
888.5871	1481.7795	2226.05	1339.6
888.7303	1483.5935	2223.75	1339.3
888.8736	1485.4067	2230.65	1341.9
889.0168	1487.2192	2231.1	1344.55
889.16	1489.031	2223.15	1334.3
889.3032	1490.842	2229.7	1342.45
889.4464	1492.6522	2222.25	1334.7
889.5896	1494.4618	2201.2	1313.35
889.7327	1496.2705	2216.95	1329.55
889.8759	1498.0785	2206.9	1319.6
890.019	1499.8858	2190.35	1302.2
890.1622	1501.6924	2182.75	1296.8
890.3053	1503.4981	2195.1	1308.35
890.4484	1505.3032	2172.9	1286.85
890.5914	1507.1075	2165.4	1279.2
890.7345	1508.911	2162.15	1275.8
890.8776	1510.7138	2147.05	1261.2
891.0206	1512.5159	2133.05	1245.75
891.1637	1514.3172	2131.5	1244.9
891.3067	1516.1178	2121	1236.6
891.4497	1517.9176	2110.05	1220.35
891.5927	1519.7166	2121.2	1236.1
891.7357	1521.515	2107.6	1214.8
891.8786	1523.3126	2087.2	1198.5
892.0216	1525.1094	2083.2	1196.7
892.1645	1526.9055	2068.3	1180.45
892.3074	1528.7008	2067.1	1180.1
892.4503	1530.4954	2063.9	1176.15
892.5932	1532.2893	2047.25	1161.65
892.7361	1534.0824	2058.8	1168.25
892.879	1535.8747	2049.75	1162.7
893.0218	1537.6663	2042.7	1155.45
893.1647	1539.4572	2040.5	1152.45
893.3075	1541.2473	2042.3	1155.8
893.4503	1543.0367	2027.85	1141.95
893.5931	1544.8253	2031	1139.7
893.7359	1546.6132	2028.85	1140.8
893.8787	1548.4003	2036.05	1139.15
894.0214	1550.1867	2040.35	1143.45
894.1642	1551.9723	2044.55	1154.45
894.3069	1553.7572	2037.6	1149.2
894.4496	1555.5414	2062.4	1175.35
894.5923	1557.3247	2069.45	1183.6
894.735	1559.1074	2092.65	1208.25
894.8777	1560.8893	2120.6	1235.55
895.0204	1562.6705	2154.05	1267.35
895.163	1564.4509	2179.7	1294.1
895.3056	1566.2305	2182.9	1299.1
895.4482	1568.0094	2191.85	1307.45
895.5908	1569.7876	2183.3	1296.35
895.7334	1571.565	2178.3	1289.9
895.876	1573.3417	2175.95	1289.75
896.0186	1575.1176	2181.05	1294.65
896.1611	1576.8928	2194.05	1306.1
896.3036	1578.6672	2207.5	1322.55
896.4461	1580.4409	2219.7	1334.8
896.5886	1582.2138	2244.75	1356.35
896.7311	1583.986	2282.95	1395.3
896.8736	1585.7575	2311.15	1425.75
897.0161	1587.5282	2343.3	1457.9
897.1585	1589.2981	2370	1487.05
897.3009	1591.0673	2380.85	1494.65
897.4433	1592.8358	2405.35	1520.5
897.5857	1594.6035	2391.95	1503
897.7281	1596.3704	2362.2	1475.2
897.8705	1598.1366	2346.4	1460.85
898.0128	1599.9021	2318.55	1431.8
898.1551	1601.6668	2286.6	1400.4
898.2975	1603.4308	2263.95	1376.15
898.4398	1605.194	2280.35	1389.25
898.5821	1606.9564	2288.2	1401.6
898.7243	1608.7182	2330.7	1440.75
898.8666	1610.4791	2388.1	1503.7
899.0088	1612.2394	2462.05	1577.7
899.1511	1613.9988	2552.05	1668.8
899.2933	1615.7576	2644.4	1759.85
899.4355	1617.5156	2699.4	1806.45
899.5776	1619.2728	2682.1	1796.2
899.7198	1621.0293	2620.5	1734.35
899.862	1622.785	2508.3	1622
900.0041	1624.54	2386.55	1501.05
900.1462	1626.2942	2278.2	1391.3
900.2883	1628.0477	2193.85	1303.3
900.4304	1629.8005	2106.5	1216.3
900.5725	1631.5525	2052.25	1166.3
900.7145	1633.3037	1996.85	1111.3
900.8566	1635.0542	1949.05	1063.95
900.9986	1636.804	1921.45	1036.05
901.1406	1638.553	1936.3	1001.75
901.2826	1640.3013	1881	996.3
901.4245	1642.0488	1861.9	977.25
901.5665	1643.7955	1837.6	952.75
901.7085	1645.5416	1820.2	932.55
901.8504	1647.2868	1815.25	929.2
901.9923	1649.0313	1796.4	910.1
902.1342	1650.7751	1801.8	913.95
902.2761	1652.5181	1796.4	911.35
902.4179	1654.2604	1792.75	906.6
902.5598	1656.0019	1790.4	904.85
902.7016	1657.7427	1794.35	908.65
902.8434	1659.4828	1811.65	926.85
902.9852	1661.222	1829.6	942.4
903.127	1662.9606	1851.95	964.55
903.2687	1664.6984	1884.9	997.75
903.4105	1666.4354	1910.15	1021.5
903.5522	1668.1717	1893.45	1006.7
903.6939	1669.9072	1862	974.75
903.8356	1671.642	1826.85	938.9
903.9773	1673.3761	1776.9	892.25
904.119	1675.1094	1748.9	861.7
904.2606	1676.8419	1719.25	832.65
904.4022	1678.5737	1703.7	820.1
904.5439	1680.3048	1699.4	812.95
904.6855	1682.0351	1695.05	807.95
904.827	1683.7646	1677.45	786.95
904.9686	1685.4934	1666.2	779.25
905.1101	1687.2215	1663.35	776.2
905.2517	1688.9488	1649.6	764.35
905.3932	1690.6754	1648	764.25
905.5347	1692.4012	1646.15	759.6
905.6761	1694.1263	1641.35	754.9
905.8176	1695.8506	1640.25	752.35
905.9591	1697.5742	1632.8	745.95
906.1005	1699.297	1627.7	741.2
906.2419	1701.0191	1628.65	742.7
906.3833	1702.7404	1623.05	739.05
906.5246	1704.461	1617.8	728.85
906.666	1706.1808	1609.65	723.45
906.8073	1707.8999	1606.3	720.25
906.9487	1709.6182	1608.7	722.2
907.09	1711.3358	1602.85	717.6
907.2313	1713.0527	1598.2	715.7
907.3725	1714.7688	1598.45	708.2
907.5138	1716.4841	1594.45	705.6
907.655	1718.1987	1597.55	708.2
907.7962	1719.9126	1587.15	702.25
907.9374	1721.6257	1590.8	699.7
908.0786	1723.338	1582.2	695.8
908.2198	1725.0496	1572.25	687.1
908.3609	1726.7605	1582.6	695.8
908.502	1728.4706	1571.7	685.6
908.6431	1730.18	1565.5	677.85
908.7842	1731.8886	1564.1	677.6
908.9253	1733.5964	1579.55	688.25
909.0664	1735.3036	1565.9	679
909.2074	1737.0099	1567	680.25
909.3484	1738.7156	1557	671.4
909.4894	1740.4204	1555.5	666.5
909.6304	1742.1246	1559.3	672.6
909.7714	1743.8279	1555.05	670.55
909.9123	1745.5306	1556.25	671.7
910.0532	1747.2325	1551.05	667.1
910.1941	1748.9336	1550.4	664.05
910.335	1750.634	1556.55	668.85
910.4759	1752.3336	1551.9	666
910.6168	1754.0325	1544.4	658.25
910.7576	1755.7307	1546.15	660.95
910.8984	1757.4281	1544.95	660.65
911.0392	1759.1247	1547.9	653.55
911.18	1760.8206	1542.5	650.75
911.3208	1762.5158	1541.25	648.8
911.4615	1764.2102	1541.8	657.5
911.6022	1765.9039	1537.05	652.05
911.7429	1767.5968	1530.05	643.8
911.8836	1769.289	1527.7	641.1
912.0243	1770.9804	1527.65	640.1
912.1649	1772.6711	1523.3	638.1
912.3056	1774.361	1524.5	636.85
912.4462	1776.0502	1521.8	635.3
912.5868	1777.7386	1530.95	642.7
912.7274	1779.4263	1516.7	629.5
912.8679	1781.1132	1516.2	630.2
913.0084	1782.7994	1521.85	635.25
913.149	1784.4849	1518.2	632.3
913.2895	1786.1696	1522.45	632.75
913.4299	1787.8535	1513.7	628.9
913.5704	1789.5367	1503.9	619
913.7108	1791.2192	1509.65	623.7
913.8513	1792.9009	1534.85	621.8
913.9917	1794.5818	1512.45	626.85
914.132	1796.2621	1509.1	624.3
914.2724	1797.9415	1501.8	614.9
914.4128	1799.6202	1495.15	609.2
914.5531	1801.2982	1499.35	614
914.6934	1802.9755	1506.1	621.15
914.8337	1804.6519	1493	605.95
914.9739	1806.3277	1487.95	602.15
915.1142	1808.0027	1481.25	596.5
915.2544	1809.6769	1496.1	610.45
915.3946	1811.3504	1488.85	601.45
915.5348	1813.0231	1486.55	600.5
915.675	1814.6951	1473.6	587.85
915.8151	1816.3664	1480.25	591.65
915.9553	1818.0369	1482.5	596.65
916.0954	1819.7067	1475.6	590.2
916.2355	1821.3757	1480.1	591.65
916.3755	1823.044	1473.25	584.9
916.5156	1824.7115	1473.5	586.55
916.6556	1826.3783	1473.3	589
916.7956	1828.0443	1472.3	588.8
916.9356	1829.7096	1477.55	589.9
917.0756	1831.3741	1472.35	583.55
917.2155	1833.0379	1461.6	574.5
917.3555	1834.701	1467.75	580
917.4954	1836.3633	1472.45	585.55
917.6353	1838.0248	1469.9	582.25
917.7751	1839.6856	1459.65	573.05
917.915	1841.3457	1462.1	577.85
918.0548	1843.005	1458.8	574.15
918.1946	1844.6636	1453	569.4
918.3344	1846.3214	1449.65	561.5
918.4742	1847.9785	1452.3	567.2
918.6139	1849.6349	1453.45	567.1
918.7537	1851.2904	1460.5	563.45
918.8934	1852.9453	1448.85	559.6
919.0331	1854.5994	1448.5	559.9
919.1727	1856.2528	1453.75	562.9
919.3124	1857.9054	1438.85	552.2
919.452	1859.5572	1445.65	560.35
919.5916	1861.2083	1437.15	550.35
919.7312	1862.8587	1439.3	554.4
919.8708	1864.5084	1437.15	550.1
920.0103	1866.1572	1445.2	560.2
920.1498	1867.8054	1435.95	547.1
920.2893	1869.4528	1438.85	553.75
920.4288	1871.0994	1434.6	548.1
920.5683	1872.7453	1437.55	548.15
920.7077	1874.3905	1436	542.9
920.8471	1876.0349	1426.25	539.75
920.9865	1877.6786	1440	552.95
921.1259	1879.3215	1441.75	557.55
921.2653	1880.9637	1432.2	545.75
921.4046	1882.6051	1422.65	537
921.5439	1884.2458	1422.75	534.4
921.6832	1885.8858	1429.25	544.05
921.8225	1887.525	1419.25	531.8
921.9617	1889.1634	1418.9	531.75
922.101	1890.8011	1416.55	529.6
922.2402	1892.4381	1409.45	521.3
922.3794	1894.0743	1415.95	531.6
922.5185	1895.7098	1417.75	532.95
922.6577	1897.3446	1411.8	523.25
922.7968	1898.9786	1411.65	521.45
922.9359	1900.6118	1412.85	525.25
923.075	1902.2443	1407.95	521.95
923.214	1903.8761	1406.15	519.5
923.3531	1905.5071	1410	520.1
923.4921	1907.1374	1395.85	508.15
923.6311	1908.7669	1401.2	514.7
923.77	1910.3957	1399.75	513.45
923.909	1912.0237	1396.95	510.15
924.0479	1913.651	1397	508.5
924.1868	1915.2776	1391.95	507.55
924.3257	1916.9034	1396.25	510
924.4646	1918.5285	1393.95	508.25
924.6034	1920.1528	1396.5	509.5
924.7422	1921.7764	1387.2	501.85
924.881	1923.3992	1384.45	499.15
925.0198	1925.0213	1385.5	499.95
925.1586	1926.6427	1374.65	489.55
925.2973	1928.2633	1447.45	496.4
925.436	1929.8832	1384.85	497.3
925.5747	1931.5023	1376.3	489.65
925.7134	1933.1207	1377.05	490.95
925.852	1934.7383	1379.2	490.75
925.9906	1936.3552	1374.7	486.05
926.1292	1937.9714	1377.45	491.45
926.2678	1939.5868	1371.15	481.65
926.4064	1941.2015	1364.85	478.45
926.5449	1942.8154	1366.95	480.8
926.6834	1944.4286	1367.8	481.4
926.8219	1946.041	1386.95	477
926.9604	1947.6528	1364.75	474.3
927.0988	1949.2637	1360.35	474.2
927.2372	1950.8739	1356.25	471.15
927.3756	1952.4834	1353.65	467.4
927.514	1954.0921	1357.4	472.9
927.6523	1955.7001	1356.5	467.2
927.7907	1957.3074	1355.9	471.4
927.929	1958.9139	1346.25	460.05
928.0673	1960.5197	1351.3	463.8
928.2055	1962.1247	1349.75	464.9
928.3438	1963.729	1343.5	457.35
928.482	1965.3325	1368.3	458.7
928.6202	1966.9353	1341.5	454.75
928.7584	1968.5374	1344.05	458
928.8965	1970.1387	1344.75	459.3
929.0346	1971.7393	1333.85	449.1
929.1727	1973.3392	1335.45	450.4
929.3108	1974.9383	1339.25	454.15
929.4489	1976.5366	1331.6	446.95
929.5869	1978.1342	1340.5	452.7
929.7249	1979.7311	1334.9	445.8
929.8629	1981.3273	1328.8	443.7
930.0009	1982.9227	1327.75	441.7
930.1388	1984.5173	1329.65	444.6
930.2767	1986.1112	1333.95	448.5
930.4146	1987.7044	1329.15	443.9
930.5525	1989.2968	1327.45	439.8
930.6904	1990.8885	1318.95	430.05
930.8282	1992.4795	1330	443.9
930.966	1994.0697	1322.1	437.7
931.1038	1995.6592	1321.4	438.45
931.2415	1997.2479	1323.85	438.15
931.3793	1998.8359	1318.1	431.7
931.517	2000.4232	1313.75	429.1
931.6547	2002.0097	1310.45	427.85
931.7923	2003.5955	1312.9	427.5
931.93	2005.1805	1316.2	429.6
932.0676	2006.7648	1309.2	425.25
932.2052	2008.3484	1313.7	428.5
932.3427	2009.9312	1317.85	431.3
932.4803	2011.5133	1309.8	425.45
932.6178	2013.0946	1305.25	420.75
932.7553	2014.6752	1310.75	423.9
932.8928	2016.2551	1310.95	424.15
933.0302	2017.8342	1305	421.45
933.1676	2019.4126	1299.75	415
933.305	2020.9902	1301.45	417.9
933.4424	2022.5672	1305.9	419.6
933.5798	2024.1433	1309.4	418.15
933.7171	2025.7188	1294.7	412.75
933.8544	2027.2935	1299.3	412.65
933.9917	2028.8674	1296.15	412.8
934.129	2030.4406	1298.25	415.6
934.2662	2032.0131	1297.95	412.95
934.4034	2033.5849	1301.6	409.95
934.5406	2035.1559	1294	408.35
934.6778	2036.7261	1291.75	408.6
934.8149	2038.2957	1293.2	408
934.952	2039.8645	1291.35	405.4
935.0891	2041.4325	1292.7	405.85
935.2262	2042.9998	1290.75	405.25
935.3632	2044.5664	1288.85	400.65
935.5002	2046.1323	1284.9	399.4
935.6372	2047.6974	1287.85	404.3
935.7742	2049.2617	1286.5	402.9
935.9111	2050.8254	1296.6	407.7
936.048	2052.3883	1286.1	398.6
936.1849	2053.9504	1288.5	402.5
936.3218	2055.5118	1288.1	403.55
936.4586	2057.0725	1287.95	400.25
936.5955	2058.6325	1285.9	399.4
936.7323	2060.1917	1282	396.95
936.869	2061.7502	1287.15	399.55
937.0058	2063.3079	1282.95	399.3
937.1425	2064.8649	1281.5	393.45
937.2792	2066.4212	1279.35	392.9
937.4159	2067.9767	1273	387.75
937.5525	2069.5315	1274.4	390.85
937.6891	2071.0856	1267.55	382.35
937.8257	2072.6389	1282.25	396.15
937.9623	2074.1915	1270.6	387.85
938.0989	2075.7433	1271.55	387.1
938.2354	2077.2945	1273.45	391.25
938.3719	2078.8448	1273.45	388.2
938.5084	2080.3945	1267.95	383.8
938.6448	2081.9434	1278	392.45
938.7812	2083.4916	1272.6	387.25
938.9176	2085.039	1270.3	384.55
939.054	2086.5857	1272.15	384.55
939.1903	2088.1317	1269.65	385.9
939.3267	2089.677	1264.2	378.7
939.463	2091.2215	1261.95	376.8
939.5992	2092.7652	1269.8	381.05
939.7355	2094.3083	1263.35	376.55
939.8717	2095.8506	1264.1	380.4
940.0079	2097.3921	1260.2	374.35
940.1441	2098.933	1261.95	378.05
940.2802	2100.4731	1266.95	382.4
940.4163	2102.0124	1283.35	383.3
940.5524	2103.5511	1260.2	374.2
940.6885	2105.089	1260.9	376.3
940.8245	2106.6261	1264.3	379.45
940.9606	2108.1626	1260.15	371.95
941.0965	2109.6983	1290.35	375.45
941.2325	2111.2332	1265.45	379.75
941.3684	2112.7675	1260.25	375.75
941.5044	2114.301	1257.45	369.1
941.6403	2115.8337	1263.15	378.9
941.7761	2117.3657	1255.45	372.4
941.912	2118.897	1257.4	371.6
942.0478	2120.4276	1261.35	371.7
942.1835	2121.9575	1257.05	369.7
942.3193	2123.4866	1274.05	378.75
942.455	2125.0149	1259.1	370.15
942.5907	2126.5426	1254.85	370.95
942.7264	2128.0695	1255.95	366.05
942.8621	2129.5956	1251.55	367.25
942.9977	2131.1211	1253.8	362.4
943.1333	2132.6458	1252.25	368.2
943.2689	2134.1698	1247.9	362.65
943.4044	2135.693	1249.9	362.7
943.54	2137.2155	1245.25	358.15
943.6755	2138.7373	1245.4	361.35
943.8109	2140.2584	1246.7	360.6
943.9464	2141.7787	1242.55	352.25
944.0818	2143.2983	1244.75	361.45
944.2172	2144.8171	1241.35	356.1
944.3526	2146.3353	1241	353.7
944.4879	2147.8527	1238.45	353.4
944.6232	2149.3693	1236.45	352.05
944.7585	2150.8853	1241.5	357.9
944.8938	2152.4005	1238.85	353.65
945.029	2153.9149	1239.2	353.35
945.1642	2155.4287	1335.95	352
945.2994	2156.9417	1241.35	353.05
945.4346	2158.454	1232.4	344.8
945.5697	2159.9655	1238.85	353.55
945.7048	2161.4764	1240.55	357.4
945.8399	2162.9865	1232.75	349.4
945.9749	2164.4958	1233.4	347.6
946.1099	2166.0045	1236.55	347.9
946.2449	2167.5124	1230.3	343.85
946.3799	2169.0195	1230.45	347.1
946.5148	2170.526	1230.1	344.7
946.6498	2172.0317	1232.6	347.6
946.7846	2173.5367	1226.6	341.45
946.9195	2175.0409	1227.55	342
947.0543	2176.5445	1224.55	340.3
947.1891	2178.0473	1220.7	336.5
947.3239	2179.5494	1230.1	342.4
947.4587	2181.0507	1221.7	336.6
947.5934	2182.5513	1223.75	338.45
947.7281	2184.0512	1225.25	339.75
947.8628	2185.5504	1221.2	338.15
947.9974	2187.0488	1215.35	330.3
948.132	2188.5465	1215.3	331.65
948.2666	2190.0435	1218.3	332.6
948.4012	2191.5397	1214.55	329.1
948.5357	2193.0353	1216.3	331.55
948.6702	2194.5301	1216.85	328.25
948.8047	2196.0241	1212	325.25
948.9392	2197.5175	1209.8	326.2
949.0736	2199.0101	1212.2	324.2
949.208	2200.502	1212.3	328.8
949.3424	2201.9931	1208.5	324
949.4767	2203.4835	1208.8	324
949.611	2204.9733	1226	324.55
949.7453	2206.4622	1204.45	318.5
949.8796	2207.9505	1210.6	323.25
950.0138	2209.438	1205.55	322.3
950.148	2210.9248	1209.4	322.15
950.2822	2212.4109	1203.25	319.95
950.4164	2213.8962	1205.15	316.8
950.5505	2215.3809	1205.45	319.55
950.6846	2216.8648	1204.6	321.95
950.8186	2218.3479	1202.25	312.1
950.9527	2219.8304	1196.65	309.8
951.0867	2221.3121	1201.95	313.65
951.2207	2222.7931	1200.5	315.5
951.3546	2224.2733	1197.65	312.05
951.4886	2225.7529	1197.25	311.1
951.6225	2227.2317	1198.55	310.95
951.7563	2228.7098	1194.6	309.75
951.8902	2230.1872	1190.25	305.95
952.024	2231.6638	1191.05	305.75
952.1578	2233.1397	1196.05	307.05
952.2916	2234.6149	1190.95	306.5
952.4253	2236.0894	1194.05	309
952.559	2237.5632	1186.5	299.5
952.6927	2239.0362	1183.35	298.2
952.8263	2240.5085	1181.45	296.35
952.9599	2241.9801	1181.4	295.6
953.0935	2243.4509	1180.85	297.2
953.2271	2244.921	1183.95	298.65
953.3606	2246.3904	1179.85	293.9
953.4941	2247.8591	1181.15	295.85
953.6276	2249.3271	1179.5	294.45
953.7611	2250.7943	1178.65	293.95
953.8945	2252.2608	1175	291.9
954.0279	2253.7266	1172.9	288.85
954.1612	2255.1917	1175.75	290.7
954.2946	2256.656	1174.4	287.1
954.4279	2258.1197	1169.35	286.5
954.5612	2259.5826	1177.8	291.35
954.6944	2261.0447	1173.75	286.2
954.8276	2262.5062	1170.75	281.9
954.9608	2263.9669	1177.15	291.5
955.094	2265.4269	1166.7	281.6
955.2271	2266.8862	1167.05	283.2
955.3602	2268.3448	1175.1	288.4
955.4933	2269.8026	1169.35	283.7
955.6264	2271.2598	1170.65	284.65
955.7594	2272.7162	1168.5	284.05
955.8924	2274.1719	1170.15	285.85
956.0253	2275.6268	1164	281.7
956.1583	2277.0811	1167	280.85
956.2912	2278.5346	1163.9	280.3
956.4241	2279.9874	1170.7	285.35
956.5569	2281.4395	1164.35	280.8
956.6897	2282.8908	1167.25	276.65
956.8225	2284.3414	1156.2	269.45
956.9553	2285.7914	1161	275.5
957.088	2287.2406	1161.8	275.05
957.2207	2288.689	1157.05	272.2
957.3534	2290.1368	1159.7	273.25
957.486	2291.5838	1157.05	269.25
957.6186	2293.0302	1155.2	268.05
957.7512	2294.4758	1156.2	269.9
957.8838	2295.9206	1158.5	271.75
958.0163	2297.3648	1153.95	269.75
958.1488	2298.8082	1156.9	271.25
958.2813	2300.251	1154.3	269.85
958.4137	2301.693	1160.4	272.9
958.5461	2303.1343	1151.55	265.55
958.6785	2304.5748	1146.45	259.95
958.8108	2306.0147	1152.1	266.25
958.9432	2307.4538	1153.45	267.65
959.0754	2308.8922	1146.8	263.1
959.2077	2310.3299	1148.45	264
959.3399	2311.7669	1144.75	259.75
959.4721	2313.2031	1144.6	258.45
959.6043	2314.6387	1141.35	256.85
959.7365	2316.0735	1144.9	261.95
959.8686	2317.5076	1149.2	263.75
960.0006	2318.941	1144.6	260.3
960.1327	2320.3737	1149.6	266.15
960.2647	2321.8056	1146.9	260.35
960.3967	2323.2369	1146	260.3
960.5287	2324.6674	1142.95	254.1
960.6606	2326.0972	1142.6	256.3
960.7925	2327.5263	1142.45	258.9
960.9244	2328.9547	1144.15	256.8
961.0562	2330.3823	1141.7	257.5
961.1881	2331.8092	1138.1	251.05
961.3198	2333.2355	1136.4	250.15
961.4516	2334.661	1139.05	252.35
961.5833	2336.0858	1134.95	247.8
961.715	2337.5098	1136.1	250.9
961.8467	2338.9332	1135.05	248.2
961.9783	2340.3558	1134.5	246.55
962.1099	2341.7778	1130.4	244.1
962.2415	2343.199	1135.65	246.65
962.373	2344.6195	1133.1	248
962.5045	2346.0393	1130.5	247.25
962.636	2347.4583	1134.35	248.3
962.7675	2348.8767	1127.6	239.2
962.8989	2350.2943	1132	246.05
963.0303	2351.7113	1132.1	245.75
963.1617	2353.1275	1130.75	244.45
963.293	2354.543	1150	239.7
963.4243	2355.9578	1124.95	239.6
963.5556	2357.3718	1123.25	240.1
963.6868	2358.7852	1130.15	242.05
963.818	2360.1978	1123.65	238.3
963.9492	2361.6098	1121	236.8
964.0803	2363.021	1129.8	239.8
964.2114	2364.4315	1127.4	242.55
964.3425	2365.8413	1120.1	229.3
964.4736	2367.2504	1120	233.65
964.6046	2368.6587	1115.75	230.4
964.7356	2370.0664	1118.15	233.2
964.8666	2371.4733	1124.95	237
964.9975	2372.8795	1118.45	234.35
965.1284	2374.285	1117.5	229.85
965.2593	2375.6899	1115.05	230.4
965.3901	2377.0939	1115.65	230.4
965.5209	2378.4973	1112.1	228.3
965.6517	2379.9	1114.1	228.95
965.7825	2381.3019	1110.35	224.95
965.9132	2382.7032	1107.9	223.6
966.0439	2384.1037	1113.6	228.9
966.1745	2385.5035	1107	219.6
966.3051	2386.9027	1106.2	220.25
966.4357	2388.3011	1111.5	222.5
966.5663	2389.6987	1110.3	225.2
966.6968	2391.0957	1103.45	219.6
966.8273	2392.492	1106.1	221.05
966.9578	2393.8876	1105.9	220.4
967.0882	2395.2824	1099.55	213.35
967.2186	2396.6765	1099.6	214.3
967.349	2398.07	1101.95	216.55
967.4793	2399.4627	1100.9	212.7
967.6097	2400.8547	1099.35	212.35
967.7399	2402.246	1111.1	218.25
967.8702	2403.6366	1101.15	214.45
968.0004	2405.0265	1097.2	212.85
968.1306	2406.4156	1104.1	213.7
968.2607	2407.8041	1099.65	207.8
968.3909	2409.1918	1097.95	210
968.521	2410.5789	1095.55	211.9
968.651	2411.9652	1098.4	211.5
968.781	2413.3508	1092.05	205.85
968.911	2414.7358	1089.9	202.15
969.041	2416.12	1095.2	208
969.1709	2417.5035	1091.45	204.9
969.3008	2418.8863	1095.3	206.05
969.4307	2420.2684	1092	205.6
969.5606	2421.6497	1092.45	206.15
969.6904	2423.0304	1086.35	201.25
969.8201	2424.4104	1084.65	196.9
969.9499	2425.7896	1085.75	197.65
970.0796	2427.1682	1085.2	199.55
970.2093	2428.546	1086.35	197.6
970.3389	2429.9232	1086.1	198.9
970.4685	2431.2996	1085.75	200.8
970.5981	2432.6753	1083.85	199.4
970.7277	2434.0503	1083.8	197.2
970.8572	2435.4246	1077.45	192.05
970.9867	2436.7982	1086.5	200.75
971.1161	2438.1711	1077.95	194.5
971.2456	2439.5433	1081.3	194.45
971.375	2440.9148	1082.5	191.55
971.5043	2442.2856	1078.45	193.45
971.6336	2443.6557	1078.9	193.45
971.7629	2445.025	1076.35	189.4
971.8922	2446.3937	1077.25	191.05
972.0214	2447.7617	1074.8	188.4
972.1506	2449.1289	1078.6	193.75
972.2798	2450.4955	1077	186.5
972.4089	2451.8613	1078.5	193.95
972.538	2453.2265	1070.85	184
972.6671	2454.5909	1074.25	185.8
972.7961	2455.9546	1069.65	184.75
972.9251	2457.3177	1071.95	187.2
973.0541	2458.68	1075.5	187.3
973.1831	2460.0416	1070.2	184.75
973.312	2461.4025	1073.3	185.75
973.4408	2462.7627	1080.75	183.5
973.5697	2464.1222	1066.1	181.4
973.6985	2465.4811	1067.7	178.15
973.8273	2466.8392	1069.85	185.05
973.956	2468.1966	1070.35	183.55
974.0847	2469.5533	1072.6	186.05
974.2134	2470.9093	1071.5	185
974.3421	2472.2645	1069.6	184.85
974.4707	2473.6191	1064.3	179.2
974.5993	2474.973	1065.1	178.95
974.7278	2476.3262	1067.15	180.85
974.8563	2477.6787	1071.6	187.05
974.9848	2479.0305	1060.1	175.35
975.1132	2480.3816	1063.9	177.45
975.2417	2481.7319	1062.8	177.05
975.37	2483.0816	1063.8	176.9
975.4984	2484.4306	1063.3	176.75
975.6267	2485.7789	1062.25	178.15
975.755	2487.1264	1061.6	174.35
975.8833	2488.4733	1059.6	174.3
976.0115	2489.8195	1067.95	175.25
976.1397	2491.165	1065.65	176.75
976.2678	2492.5097	1065.6	179.3
976.3959	2493.8538	1054.05	167.6
976.524	2495.1972	1058.35	173.55
976.6521	2496.5398	1057.25	170
976.7801	2497.8818	1062.7	175.5
976.9081	2499.2231	1056.2	170.4
977.036	2500.5637	1055.85	168.95
977.164	2501.9035	1055.6	167.85
977.2918	2503.2427	1057.05	166.05
977.4197	2504.5812	1056.65	169.65
977.5475	2505.919	1058.6	173.3
977.6753	2507.256	1053.45	167.8
977.8031	2508.5924	1050.25	165.8
977.9308	2509.9281	1058	167.1
978.0585	2511.2631	1048.35	161.85
978.1861	2512.5974	1046.85	163.6
978.3137	2513.9309	1054.05	167.15
978.4413	2515.2638	1072.3	164.75
978.5689	2516.596	1047.75	162.95
978.6964	2517.9275	1049.6	163.9
978.8239	2519.2583	1041	155.15
978.9513	2520.5884	1048.45	161.5
979.0788	2521.9178	1043.3	157.45
979.2062	2523.2465	1045.6	159.55
979.3335	2524.5745	1044.25	158.65
979.4608	2525.9018	1044.4	156.7
979.5881	2527.2284	1042.55	160.35
979.7154	2528.5543	1042.35	158.6
979.8426	2529.8796	1043.55	156.1
979.9698	2531.2041	1043.15	158.35
980.0969	2532.5279	1040.15	157
980.224	2533.851	1039.1	152.8
980.3511	2535.1735	1038.55	151.7
980.4781	2536.4952	1040.6	156.4
980.6052	2537.8163	1042.1	156.25
980.7321	2539.1366	1040.05	156.45
980.8591	2540.4562	1041.3	154.85
980.986	2541.7752	1036.85	153.35
981.1129	2543.0935	1042.25	157
981.2397	2544.411	1040.2	154.8
981.3665	2545.7279	1037.2	150.55
981.4933	2547.0441	1035.35	150.55
981.62	2548.3596	1036.95	148.25
981.7467	2549.6744	1035.95	151.45
981.8734	2550.9885	1045.35	149.65
982.0001	2552.3019	1034.1	147.9
982.1267	2553.6146	1035.05	150.25
982.2532	2554.9266	1033.95	148
982.3798	2556.2379	1031.9	143.4
982.5063	2557.5485	1032.3	147.95
982.6327	2558.8585	1038.45	145.35
982.7592	2560.1677	1035.5	146.5
982.8856	2561.4762	1029.8	142.35
983.0119	2562.7841	1036.35	147.25
983.1383	2564.0913	1030	145.95
983.2646	2565.3977	1031.55	145.4
983.3908	2566.7035	1034.1	149.55
983.517	2568.0086	1032.3	144.95
983.6432	2569.313	1031.65	144.5
983.7694	2570.6167	1027.95	137.3
983.8955	2571.9197	1033.1	149.15
984.0216	2573.222	1030.75	141.95
984.1476	2574.5236	1030.4	145.3
984.2737	2575.8246	1033.15	145.55
984.3996	2577.1248	1029.4	141.3
984.5256	2578.4244	1028.4	143.55
984.6515	2579.7232	1027.2	140.8
984.7774	2581.0214	1055.35	138.9
984.9032	2582.3189	1025.25	139.85
985.029	2583.6157	1037.9	139
985.1548	2584.9118	1026.9	140.75
985.2806	2586.2072	1023.6	138.55
985.4063	2587.5019	1025.4	138.9
985.5319	2588.7959	1027.7	140.4
985.6576	2590.0893	1028.95	142.25
985.7832	2591.3819	1025.95	141.25
985.9087	2592.6739	1024.35	141.85
986.0343	2593.9652	1025.85	139.55
986.1597	2595.2557	1025.65	142.2
986.2852	2596.5456	1022.65	136.95
986.4106	2597.8348	1023.9	138.35
986.536	2599.1234	1022.9	137
986.6614	2600.4112	1019.35	133.05
986.7867	2601.6983	1026.15	136.85
986.912	2602.9848	1024.55	139.85
987.0372	2604.2705	1031.6	139
987.1624	2605.5556	1023.45	138.15
987.2876	2606.84	1020.45	135.3
987.4128	2608.1237	1020.3	135.4
987.5379	2609.4067	1018	131.25
987.6629	2610.689	1026.75	132.15
987.788	2611.9707	1020.75	130.05
987.913	2613.2516	1024.05	134.3
988.0379	2614.5319	1016.5	132.1
988.1629	2615.8115	1017.15	133.1
988.2878	2617.0903	1015.95	128.9
988.4126	2618.3685	1017.05	130.9
988.5375	2619.6461	1014.25	128.25
988.6622	2620.9229	1012.9	127.35
988.787	2622.199	1013.85	126.3
988.9117	2623.4745	1009.5	122.75
989.0364	2624.7493	1014.15	128.55
989.161	2626.0234	1007.95	124.2
989.2857	2627.2968	1013.75	127.15
989.4102	2628.5695	1013.5	127.65
989.5348	2629.8415	1010.3	125
989.6593	2631.1128	1011.7	124.75
989.7837	2632.3835	1008.75	124.95
989.9082	2633.6535	1007.75	122.8
990.0326	2634.9228	1008.65	124.4
990.1569	2636.1914	1005.85	121.05
990.2812	2637.4593	1014.4	121.75
990.4055	2638.7265	1007.95	122.8
990.5298	2639.9931	1006.15	120.25
990.654	2641.259	1007.7	120.25
990.7782	2642.5242	1005.1	120.05
990.9023	2643.7887	1002.15	116.95
991.0264	2645.0525	1008.25	122.05
991.1505	2646.3156	1017.6	116.15
991.2745	2647.5781	1002.95	117.45
991.3985	2648.8398	1002	117.05
991.5225	2650.1009	1005.2	112.65
991.6464	2651.3613	1003.9	119
991.7703	2652.6211	1002.7	117.6
991.8942	2653.8801	1001.3	116.5
992.018	2655.1385	1004.6	115.9
992.1418	2656.3961	1003.1	117.4
992.2655	2657.6531	998.3	113.85
992.3892	2658.9094	1003.05	116.9
992.5129	2660.1651	1000	115
992.6366	2661.42	1000.6	116.1
992.7602	2662.6743	996.8	109.15
992.8837	2663.9279	997.45	113.15
993.0073	2665.1808	998	110.15
993.1307	2666.433	997.55	108.15
993.2542	2667.6846	1000.2	114.95
993.3776	2668.9354	1001.35	113.7
993.501	2670.1856	1002.25	115.7
993.6244	2671.4351	1001	116.05
993.7477	2672.6839	1002.85	117.25
993.8709	2673.9321	999.4	114.8
993.9942	2675.1795	1000.5	114.8
994.1174	2676.4263	999	112.1
994.2405	2677.6724	995.9	111.3
994.3637	2678.9179	999.15	112.55
994.4868	2680.1626	997.95	115.7
994.6098	2681.4067	999.1	111.4
994.7328	2682.6501	999.2	114.45
994.8558	2683.8928	994.65	108.5
994.9788	2685.1348	990.95	106.45
995.1017	2686.3761	993.9	110.1
995.2245	2687.6168	992	107.95
995.3474	2688.8568	992.65	106.85
995.4702	2690.0961	990.4	105.05
995.5929	2691.3348	992.15	106.5
995.7156	2692.5727	990.2	105.4
995.8383	2693.81	987.3	103.5
995.961	2695.0466	989.45	104.4
996.0836	2696.2826	991.8	106.05
996.2062	2697.5178	994.85	106.25
996.3287	2698.7524	990.95	106.65
996.4512	2699.9863	990.75	105.5
996.5737	2701.2195	988.9	103.9
996.6961	2702.452	992.25	104.45
996.8185	2703.6839	986.75	101.45
996.9408	2704.9151	988.5	103.9
997.0631	2706.1456	991	104.35
997.1854	2707.3755	993.45	106.65
997.3077	2708.6046	995.7	108.9
997.4299	2709.8331	989.5	104.5
997.552	2711.0609	989.55	105.85
997.6742	2712.2881	987.4	101.5
997.7963	2713.5145	991.8	103.05
997.9183	2714.7403	990.95	107.55
998.0403	2715.9654	992.85	106
998.1623	2717.1899	1006.4	105.65
998.2842	2718.4136	989.85	103.9
998.4062	2719.6367	990.85	104.75
998.528	2720.8591	995.25	104.8
998.6498	2722.0809	991.55	104.6
998.7716	2723.3019	997.65	109.35
998.8934	2724.5223	994.45	106.35
999.0151	2725.7421	989.25	102.2
999.1368	2726.9611	992.8	108.85
999.2584	2728.1795	995	104.65
999.38	2729.3972	989.75	104
999.5016	2730.6142	997.6	105.2
999.6231	2731.8306	985.9	97.8
999.7446	2733.0462	988.65	101.8
999.8661	2734.2612	990.65	101.25
999.9875	2735.4756	987.95	101.55
1000.1089	2736.6892	980.35	94.55
1000.2302	2737.9022	979.8	95.15
1000.3515	2739.1145	977.9	93.8
1000.4728	2740.3262	985.3	95.35
1000.594	2741.5372	977.55	92.2
1000.7152	2742.7475	976.55	92.45
1000.8363	2743.9571	980.7	95.05
1000.9575	2745.1661	980.95	92.45
1001.0785	2746.3744	979.6	93.95
1001.1996	2747.582	976.95	92.7
1001.3206	2748.7889	974.4	89.2
1001.4415	2749.9952	974.8	89.5
1001.5625	2751.2008	976.05	88.15
1001.6833	2752.4057	974.2	87.3
1001.8042	2753.61	972.65	84.75
1001.925	2754.8136	974.55	88.75
1002.0458	2756.0165	970.3	85.25
1002.1665	2757.2188	967.7	84.55
1002.2872	2758.4204	968.75	82.55
1002.4078	2759.6213	972.05	83.2
1002.5285	2760.8215	977.7	91
1002.649	2762.0211	974.35	86.4
1002.7696	2763.22	974.45	85.75
1002.8901	2764.4182	971.9	85.75
1003.0106	2765.6158	972.7	85.75
1003.131	2766.8127	968.45	83.25
1003.2514	2768.009	966.8	82.85
1003.3717	2769.2045	967.75	82.45
1003.492	2770.3994	966.7	80
1003.6123	2771.5936	971.6	85.75
1003.7325	2772.7872	965.6	82.6
1003.8527	2773.9801	967.35	81.25
1003.9729	2775.1723	985.5	80.8
1004.093	2776.3639	966.7	82.9
1004.2131	2777.5548	964.65	77.85
1004.3331	2778.745	968.3	82.2
1004.4531	2779.9346	966.6	82.3
1004.5731	2781.1235	962.35	75.95
1004.693	2782.3117	965.45	81.85
1004.8129	2783.4992	961.95	77.45
1004.9328	2784.6861	962.6	76.35
1005.0526	2785.8723	969	84.4
1005.1723	2787.0579	964.75	78.75
1005.2921	2788.2428	961.45	76.15
1005.4118	2789.427	962.75	75.95
1005.5314	2790.6106	962.95	78.5
1005.651	2791.7935	963.1	75.05
1005.7706	2792.9757	966.25	81.45
1005.8902	2794.1573	965.15	77.85
1006.0097	2795.3382	965.7	80.65
1006.1291	2796.5184	960.6	74.95
1006.2485	2797.698	962.15	76.4
1006.3679	2798.8769	963.45	81.25
1006.4873	2800.0551	963.75	77.4
1006.6066	2801.2327	965.5	78.75
1006.7258	2802.4096	963.7	79.15
1006.8451	2803.5859	962.4	75.95
1006.9642	2804.7615	961.8	75.35
1007.0834	2805.9364	962.35	78.2
1007.2025	2807.1106	962.4	78.9
1007.3216	2808.2842	966.1	77.8
1007.4406	2809.4572	964.7	79.5
1007.5596	2810.6294	970.4	83.1
1007.6785	2811.801	966.3	82.4
1007.7975	2812.972	965.9	79.95
1007.9163	2814.1423	967.95	83.7
1008.0352	2815.3119	970.35	83.2
1008.154	2816.4808	975.5	89.25
1008.2727	2817.6491	975.8	88.05
1008.3914	2818.8167	976.6	93.15
1008.5101	2819.9837	983.9	92.6
1008.6288	2821.15	990.25	106.25
1008.7474	2822.3157	990.35	106.3
1008.8659	2823.4807	998.15	112.3
1008.9844	2824.645	1002.15	115.65
1009.1029	2825.8086	1012.35	127.3
1009.2214	2826.9716	1015.25	131.65
1009.3398	2828.134	1024.9	138.8
1009.4581	2829.2957	1027.65	142.05
1009.5764	2830.4567	1030.55	145.45
1009.6947	2831.617	1037	151.05
1009.813	2832.7767	1037.75	155.25
1009.9312	2833.9358	1038.8	155.2
1010.0493	2835.0941	1037.75	151.15
1010.1675	2836.2519	1035	149.3
1010.2855	2837.4089	1036.55	151.5
1010.4036	2838.5653	1026.1	140.2
1010.5216	2839.7211	1027	142.9
1010.6396	2840.8761	1032.25	145.45
1010.7575	2842.0306	1021.25	138.8
1010.8754	2843.1843	1023.65	138.65
1010.9932	2844.3374	1021.65	138
1011.111	2845.4899	1023.6	138
1011.2288	2846.6417	1028.5	144.6
1011.3465	2847.7928	1025.2	141.35
1011.4642	2848.9433	1026.65	140.45
1011.5818	2850.0931	1031.15	145.95
1011.6995	2851.2422	1033.05	146.75
1011.817	2852.3907	1032.4	146.05
1011.9345	2853.5385	1034.8	148.15
1012.052	2854.6857	1037.8	145.9
1012.1695	2855.8323	1029.95	145.3
1012.2869	2856.9781	1033.1	148.15
1012.4042	2858.1233	1036.8	152.5
1012.5216	2859.2679	1040.8	156.85
1012.6389	2860.4118	1041.8	156.5
1012.7561	2861.555	1051.7	163.05
1012.8733	2862.6976	1047.5	160.05
1012.9905	2863.8395	1050.8	166.6
1013.1076	2864.9808	1050.4	164.55
1013.2247	2866.1214	1051.5	168.9
1013.3417	2867.2614	1054.75	169.6
1013.4587	2868.4007	1055.95	169.75
1013.5757	2869.5393	1059.05	172.2
1013.6926	2870.6773	1064.65	176.4
1013.8095	2871.8146	1062.45	174.65
1013.9263	2872.9513	1065.35	178
1014.0431	2874.0874	1065.8	181
1014.1599	2875.2227	1068.75	183.25
1014.2766	2876.3574	1066.45	183.7
1014.3933	2877.4915	1069.85	187.2
1014.51	2878.6249	1068.15	183.8
1014.6266	2879.7577	1073.2	187.65
1014.7431	2880.8898	1087.95	190.95
1014.8596	2882.0212	1076.25	190.25
1014.9761	2883.152	1084.25	197.75
1015.0925	2884.2821	1076.25	194.25
1015.2089	2885.4116	1076.1	191.55
1015.3253	2886.5405	1083.8	198.95
1015.4416	2887.6686	1085.15	197.5
1015.5579	2888.7962	1080.8	197.2
1015.6741	2889.923	1087.95	203.3
1015.7903	2891.0493	1084.7	201
1015.9065	2892.1748	1088.8	204
1016.0226	2893.2997	1080.9	196.3
1016.1387	2894.424	1080.6	196.5
1016.2547	2895.5476	1087.6	202.6
1016.3707	2896.6706	1080.9	195.85
1016.4866	2897.7929	1083.8	197.85
1016.6025	2898.9145	1086.1	199.15
1016.7184	2900.0355	1085.2	199.8
1016.8342	2901.1559	1081.5	193.2
1016.95	2902.2756	1084.65	197.7
1017.0658	2903.3946	1080.2	195.25
1017.1815	2904.513	1080.2	193.6
1017.2971	2905.6308	1076	190.25
1017.4127	2906.7479	1077.45	191.7
1017.5283	2907.8643	1075.3	190.65
1017.6439	2908.9801	1080.65	196.15
1017.7594	2910.0953	1079.95	196.3
1017.8748	2911.2098	1079.25	191
1017.9902	2912.3236	1084	193.3
1018.1056	2913.4368	1077.7	190.15
1018.2209	2914.5494	1073.8	189.8
1018.3362	2915.6613	1079.2	188.55
1018.4515	2916.7725	1075.55	187.2
1018.5667	2917.8831	1073.3	188.6
1018.6819	2918.9931	1066.65	179.5
1018.797	2920.1024	1064.35	179.15
1018.9121	2921.211	1059.15	173.95
1019.0271	2922.319	1057.25	171.2
1019.1421	2923.4264	1056.4	171.5
1019.2571	2924.5331	1052.7	168.85
1019.372	2925.6391	1057	173.2
1019.4869	2926.7445	1056.05	172.45
1019.6017	2927.8493	1053.9	167.45
1019.7165	2928.9534	1060.15	175.7
1019.8313	2930.0569	1060.3	173.35
1019.946	2931.1597	1057.8	171.95
1020.0606	2932.2619	1059.45	177.35
1020.1753	2933.3634	1062.7	177.25
1020.2899	2934.4643	1068.65	177.45
1020.4044	2935.5645	1070.75	180.15
1020.5189	2936.6641	1070.85	180.2
1020.6334	2937.763	1062.55	180.8
1020.7478	2938.8613	1060.45	175.8
1020.8622	2939.959	1068.05	177.75
1020.9765	2941.056	1060	175.5
1021.0908	2942.1523	1057.25	169.4
1021.2051	2943.248	1048.5	164.05
1021.3193	2944.3431	1042.35	156.85
1021.4334	2945.4375	1034.4	150.05
1021.5476	2946.5313	1026.4	143.55
1021.6617	2947.6244	1019.35	134.25
1021.7757	2948.7169	1015.9	132.7
1021.8897	2949.8087	1010.95	127.75
1022.0037	2950.8999	1006.3	119.6
1022.1176	2951.9904	999.3	113.4
1022.2315	2953.0803	990.7	104.1
1022.3453	2954.1696	989.75	104.05
1022.4591	2955.2582	986.4	103.25
1022.5728	2956.3462	985.6	101.45
1022.6865	2957.4335	985.95	102.3
1022.8002	2958.5202	985.35	99.75
1022.9138	2959.6062	981.65	95.05
1023.0274	2960.6916	983.75	100.7
1023.141	2961.7764	984.7	99.45
1023.2545	2962.8605	986	100.4
1023.3679	2963.9439	983.8	101.2
1023.4813	2965.0267	983.1	97.35
1023.5947	2966.1089	1002.3	98.6
1023.708	2967.1905	982.55	97.8
1023.8213	2968.2714	981.15	97.15
1023.9346	2969.3516	975.8	90.8
1024.0478	2970.4312	984.85	91.2
1024.1609	2971.5102	979.35	95.95
1024.274	2972.5885	976.6	92
1024.3871	2973.6662	984.2	96.25
1024.5002	2974.7432	983.9	101.8
1024.6132	2975.8196	978.6	93.4
1024.7261	2976.8954	979.8	96.05
1024.839	2977.9705	978.4	93.5
1024.9519	2979.045	978.5	94.65
1025.0647	2980.1188	978.8	94.9
1025.1775	2981.192	974.2	89.3
1025.2902	2982.2645	974.95	91.2
1025.4029	2983.3364	977.95	94.05
1025.5156	2984.4077	973.5	89.1
1025.6282	2985.4783	975	84.95
1025.7407	2986.5483	966.85	82.75
1025.8532	2987.6177	967.5	85.05
1025.9657	2988.6864	963.65	76.9
1026.0782	2989.7545	961.85	75.85
1026.1906	2990.8219	959.95	76.45
1026.3029	2991.8887	960.7	73.25
1026.4152	2992.9548	957.05	71.4
1026.5275	2994.0204	953	71.1
1026.6397	2995.0852	947.2	62.9
1026.7519	2996.1495	949.5	65.15
1026.864	2997.2131	945.4	60.2
1026.9761	2998.276	944.6	59.55
1027.0882	2999.3383	944.6	58.05
1027.2002	3000.4	941.35	55
1027.3122	3001.4611	938.35	54.45
1027.4241	3002.5215	937.05	51.35
1027.536	3003.5812	935	51.95
1027.6478	3004.6404	934.6	51.3
1027.7596	3005.6989	936.85	51.2
1027.8714	3006.7567	932.35	47.1
1027.9831	3007.8139	953.8	50.75
1028.0947	3008.8705	928.5	44
1028.2064	3009.9264	933.3	46.8
1028.3179	3010.9818	927.7	43.3
1028.4295	3012.0364	930.6	47.05
1028.541	3013.0905	931	47.75
1028.6524	3014.1439	924.5	40.9
1028.7638	3015.1966	928.5	45.25
1028.8752	3016.2487	929.25	45.55
1028.9865	3017.3002	930.25	42
1029.0978	3018.3511	926.65	43.2
1029.209	3019.4013	923.2	39
1029.3202	3020.4509	925.75	43.05
1029.4314	3021.4998	925	39.6
1029.5425	3022.5481	922.15	39.45
1029.6535	3023.5958	923.3	40
1029.7645	3024.6428	926	39.4
1029.8755	3025.6892	926.2	42.15
1029.9864	3026.735	922.75	35.7
1030.0973	3027.7802	922.85	37.35
1030.2082	3028.8247	925.4	40.55
1030.319	3029.8685	925.05	40.9
1030.4297	3030.9118	922.9	37.75
1030.5404	3031.9544	922.55	40
1030.6511	3032.9963	922.4	36.95
1030.7617	3034.0376	924.9	41.45
1030.8723	3035.0783	925.1	36.25
1030.9829	3036.1184	925.85	42.95
1031.0934	3037.1578	925	41.4
1031.2038	3038.1966	924.1	38.75
1031.3142	3039.2348	923.1	40.9
1031.4246	3040.2723	934.4	41.5
1031.5349	3041.3092	924.85	43.15
1031.6452	3042.3455	923.8	39.5
1031.7554	3043.3811	924.85	40.85
1031.8656	3044.4161	925.6	41.2
1031.9758	3045.4505	922.8	39.35
1032.0859	3046.4842	921.15	36.6
1032.1959	3047.5173	921.9	37.8
1032.3059	3048.5498	924.7	40
1032.4159	3049.5816	923.3	38.7
1032.5258	3050.6128	923.8	38.7
1032.6357	3051.6434	924.45	37.35
1032.7455	3052.6734	925.15	38.35
1032.8553	3053.7027	923.95	38.05
1032.9651	3054.7314	923.75	39.8
1033.0748	3055.7594	922.15	37.15
1033.1845	3056.7868	925.95	40.8
1033.2941	3057.8136	925.1	41.45
1033.4037	3058.8398	924.1	41.05
1033.5132	3059.8653	923.25	38.65
1033.6227	3060.8902	923.15	39.3
1033.7321	3061.9145	925.35	42.35
1033.8415	3062.9381	925.3	39.45
1033.9509	3063.9612	938.8	37.9
1034.0602	3064.9835	924.5	39.7
1034.1694	3066.0053	926.5	39.6
1034.2787	3067.0264	924.75	41.5
1034.3878	3068.0469	926.7	40.45
1034.497	3069.0668	926.7	40.3
1034.6061	3070.086	923.1	41.05
1034.7151	3071.1046	927.3	40.2
1034.8241	3072.1226	922.7	37.9
1034.9331	3073.1399	921.9	39.4
1035.042	3074.1567	924.45	39.55
1035.1508	3075.1727	924.8	36.25
1035.2597	3076.1882	922.2	37.15
1035.3684	3077.203	922.65	36.5
1035.4772	3078.2173	921.15	34.45
1035.5859	3079.2308	923.7	36.15
1035.6945	3080.2438	923.55	36.95
1035.8031	3081.2561	919.35	35.55
1035.9117	3082.2678	917.3	33.75
1036.0202	3083.2789	919.75	36.6
1036.1286	3084.2893	917	31.95
1036.2371	3085.2991	918.4	35.3
1036.3454	3086.3083	920.3	31.9
1036.4538	3087.3169	918.35	30.2
1036.562	3088.3248	917.15	29.35
1036.6703	3089.3321	918.45	33.05
1036.7785	3090.3388	912.9	29.7
1036.8866	3091.3449	915.5	31.4
1036.9948	3092.3503	918.2	30.65
1037.1028	3093.3551	914.75	31.7
1037.2108	3094.3593	912.25	30.35
1037.3188	3095.3629	914.5	29.4
1037.4267	3096.3658	914.2	30.25
1037.5346	3097.3681	914.45	30.95
1037.6425	3098.3698	915.4	29.25
1037.7503	3099.3708	919.35	26.5
1037.858	3100.3713	911.55	29.25
1037.9657	3101.3711	911.85	27.8
1038.0734	3102.3702	1043.7	26.25
1038.181	3103.3688	913.9	28
1038.2886	3104.3667	911.2	27.65
1038.3961	3105.364	912.95	30.5
1038.5036	3106.3607	913.65	28.05
1038.611	3107.3568	913.6	29.7
1038.7184	3108.3522	910.6	26.6
1038.8257	3109.347	910.25	25
1038.933	3110.3412	914	24.75
1039.0403	3111.3348	911.2	27.85
1039.1475	3112.3277	908.4	25.75
1039.2547	3113.32	906.4	24.25
1039.3618	3114.3117	910.2	24.8
1039.4689	3115.3028	910.25	26.4
1039.5759	3116.2932	909.6	24.6
1039.6829	3117.2831	912.1	23.15
1039.7898	3118.2723	907.7	23.15
1039.8967	3119.2608	906.7	22.05
1040.0035	3120.2488	908.25	23.75
1040.1103	3121.2361	909.25	26.5
1040.2171	3122.2229	905.9	22.25
1040.3238	3123.209	911.85	27.5
1040.4305	3124.1944	907.4	23.6
1040.5371	3125.1793	908.2	22.6
1040.6437	3126.1635	906.1	20.35
1040.7502	3127.1471	905.85	22.7
1040.8567	3128.1301	905.75	22.55
1040.9631	3129.1125	906.4	22.8
1041.0695	3130.0942	906.15	21.85
1041.1759	3131.0753	916.35	25.05
1041.2822	3132.0558	908.7	21.45
1041.3884	3133.0357	907.2	21.1
1041.4946	3134.015	907.7	22.7
1041.6008	3134.9936	906.65	20.4
1041.7069	3135.9716	923.3	20.45
1041.813	3136.949	904.45	20.3
1041.919	3137.9258	920.65	19.2
1042.025	3138.902	912.3	22.45
1042.1309	3139.8775	904.3	20.65
1042.2368	3140.8524	903.75	18.25
1042.3427	3141.8267	906.1	20.95
1042.4485	3142.8004	906.65	22.7
1042.5542	3143.7735	911.9	23.8
1042.6599	3144.7459	908.65	21.55
1042.7656	3145.7178	906.15	21
1042.8712	3146.689	906.2	22.45
1042.9768	3147.6596	906	20.05
1043.0823	3148.6295	902	16.2
1043.1878	3149.5989	903.95	19.45
1043.2932	3150.5676	902.7	18.95
1043.3986	3151.5357	902.8	19.85
1043.5039	3152.5032	902.25	18.15
1043.6092	3153.4701	903.25	21.85
1043.7145	3154.4364	903.55	17.05
1043.8197	3155.402	903.95	21.1
1043.9248	3156.367	905.7	19.05
1044.03	3157.3315	940.9	20.05
1044.135	3158.2952	902.2	17.25
1044.24	3159.2584	901.95	18.7
1044.345	3160.221	902.15	19.05
1044.4499	3161.1829	902.55	16.5
1044.5548	3162.1442	900.8	16.3
1044.6596	3163.105	902.15	17.5
1044.7644	3164.065	900.4	16
1044.8692	3165.0245	904.9	18.65
1044.9739	3165.9834	902.45	20.9
1045.0785	3166.9416	899.65	14.2
1045.1831	3167.8993	902.1	15.5
1045.2877	3168.8563	901.6	16.15
1045.3922	3169.8127	902.3	19.45
1045.4966	3170.7684	900.5	15.7
1045.6011	3171.7236	900.8	15.25
1045.7054	3172.6782	901	19.05
1045.8098	3173.6321	901.45	16.4
1045.914	3174.5854	904.15	17
1046.0183	3175.5381	900.85	13.4
1046.1224	3176.4902	901.1	17.7
1046.2266	3177.4417	900.85	15.65
1046.3307	3178.3926	900.1	16.45
1046.4347	3179.3428	899.4	15.85
1046.5387	3180.2924	899	15.45
1046.6427	3181.2415	901.45	16.95
1046.7466	3182.1899	902.15	17.1
1046.8504	3183.1377	900.3	16.65
1046.9542	3184.0848	905.45	18.5
1047.058	3185.0314	899.55	15.8
1047.1617	3185.9773	899.7	15.45
1047.2654	3186.9227	901.85	14.6
1047.369	3187.8674	900.3	16.75
1047.4726	3188.8115	903.8	16.05
1047.5761	3189.755	901.05	16.35
1047.6796	3190.6979	899.3	16.3
1047.783	3191.6402	899.55	16.55
1047.8864	3192.5818	900.25	15.75
1047.9898	3193.5229	905.25	16.2
1048.0931	3194.4633	901.3	17.2
1048.1963	3195.4031	899.65	16.15
1048.2995	3196.3423	897.4	13.7
1048.4027	3197.2809	896.5	13.1
1048.5058	3198.2189	897.45	11.5
1048.6089	3199.1563	905.15	12.25
1048.7119	3200.0931	898.55	14.65
1048.8148	3201.0292	898.25	14.65
1048.9178	3201.9648	899.65	14.7
1049.0206	3202.8997	903.35	16.6
1049.1235	3203.834	899.65	14.9
1049.2262	3204.7677	897.3	12
1049.329	3205.7008	899.15	12.75
1049.4317	3206.6333	899.3	14.65
1049.5343	3207.5652	900.15	13.9
1049.6369	3208.4964	898.3	14.9
1049.7394	3209.4271	897.3	14.9
1049.8419	3210.3571	895.65	10.5
1049.9444	3211.2865	900	13.5
1050.0468	3212.2154	899.4	15.45
1050.1491	3213.1436	901.2	15.55
1050.2514	3214.0712	904.2	13.25
1050.3537	3214.9982	896.45	9.9
1050.4559	3215.9246	896.3	9.7
1050.5581	3216.8503	893.9	9.95
1050.6602	3217.7755	898.25	14.5
1050.7623	3218.7001	896.75	12.35
1050.8643	3219.624	896.4	11.4
1050.9663	3220.5473	898.25	14.35
1051.0682	3221.4701	898.55	15.05
1051.1701	3222.3922	899.25	13.2
1051.2719	3223.3137	897.5	12.05
1051.3737	3224.2346	896.45	12.95
1051.4754	3225.1549	898	12.05
1051.5771	3226.0746	894.4	11.2
1051.6788	3226.9937	897.1	11.15
1051.7804	3227.9121	896	13.4
1051.8819	3228.83	898	13.95
1051.9834	3229.7473	896.45	12.6
1052.0849	3230.6639	897.3	11.95
1052.1863	3231.5799	899.1	16.1
1052.2876	3232.4954	898.05	13.65
1052.3889	3233.4102	894.45	10
1052.4902	3234.3244	897	13.5
1052.5914	3235.238	895.35	11.15
1052.6926	3236.151	910.9	12.6
1052.7937	3237.0634	894.3	11.35
1052.8948	3237.9752	895.15	12
1052.9958	3238.8864	896.1	12.75
1053.0968	3239.797	895.1	11.15
1053.1977	3240.7069	895.55	10.15
1053.2986	3241.6163	897.95	11.15
1053.3994	3242.5251	895.35	12.45
1053.5002	3243.4332	895.15	11
1053.6009	3244.3408	897.1	13.1
1053.7016	3245.2477	896.5	13
1053.8022	3246.154	895.9	8.9
1053.9028	3247.0598	897.25	11.4
1054.0034	3247.9649	894.9	10.35
1054.1039	3248.8694	894	10.35
1054.2043	3249.7733	894.15	9.35
1054.3047	3250.6766	895.1	11.9
1054.4051	3251.5793	894.45	9.55
1054.5054	3252.4814	894.9	12.8
1054.6056	3253.3829	893.2	7.55
1054.7058	3254.2838	896.5	12.35
1054.806	3255.1841	896.05	14.05
1054.9061	3256.0838	894.25	10.3
1055.0061	3256.9829	894.75	12.95
1055.1062	3257.8814	896.1	9.15
1055.2061	3258.7792	894.05	9.35
1055.306	3259.6765	895.55	9.1
1055.4059	3260.5731	894.7	11.4
1055.5057	3261.4692	893.8	7.7
1055.6055	3262.3647	896.45	11.1
1055.7052	3263.2595	894.5	8.9
1055.8049	3264.1538	892.8	8.25
1055.9045	3265.0474	892.85	9.1
1056.0041	3265.9404	892.4	6.5
1056.1036	3266.8329	893.2	9.3
1056.2031	3267.7247	901.65	6
1056.3025	3268.616	892.35	8.35
1056.4019	3269.5066	891.25	6.6
1056.5013	3270.3966	891.6	5.95
1056.6005	3271.286	892.45	8
