Software Version:	3.9.2.0
Unit SN:	10000200
Spectrometer SN:	6960
Date:	3/26/2024 2:12:02 PM
Data Line Index:	25
Spectral Points:	2048
Integration time (ms):	125
Averages:	20
Delay (ms):	30000
Sequence Number:	1
Processing:	dark subtract
Laser Power (mW):	305
Laser Current (mA):	820
Laser Diode Temp (C):	25
Laser Case Temp (C):	27.6
System Temp (C):	27.5
Spectrometer Temp (C):	25.5
CCD Temp (C):	0.01
Secondary Temp (C):	20.006
Heatsink Temp (C):	22.87
CCDPCB Temp (C):	36.929
SecondaryPCB Temp (C):	34.239

Wavelength	RamanShift	Raw Counts	Dark Subtracted
787.061	30.1047	677.5	266.75
787.2016	32.3739	688.3	276.65
787.3422	34.6426	707.7	296.25
787.4828	36.9109	724.15	309.5
787.6235	39.1787	747.55	331.3
787.7642	41.4461	771.3	348.95
787.9049	43.7131	791.2	365.1
788.0456	45.9796	826.45	398.4
788.1863	48.2456	856.35	424.35
788.3271	50.5112	893.5	456.15
788.4679	52.7764	919.3	480.95
788.6087	55.0411	949.5	507.2
788.7496	57.3054	984.5	535.8
788.8904	59.5692	1022.05	573.05
789.0313	61.8326	1064.9	612.2
789.1722	64.0955	1102.55	645.3
789.3132	66.3579	1154.75	691.5
789.4541	68.6199	1221.25	757.85
789.5951	70.8815	1328.45	861.55
789.7361	73.1426	1551.05	1080.55
789.8771	75.4032	2105.1	1629.55
790.0181	77.6634	3537.35	3053.45
790.1592	79.9231	7030.85	6537.85
790.3003	82.1824	15166.7	14652.2
790.4414	84.4412	36195.3	35645.8
790.5825	86.6995	63399.75	62798.25
790.7237	88.9574	65535	64887.35
790.8648	91.2148	65535	64858
791.006	93.4717	65535	64835.9
791.1472	95.7282	65535	64825.9
791.2885	97.9842	65535	64816.25
791.4297	100.2398	65535	64811.55
791.571	102.4949	65535	64812
791.7123	104.7495	65535	64812.4
791.8536	107.0036	65535	64805.95
791.9949	109.2573	65535	64807.05
792.1363	111.5105	65535	64805.6
792.2777	113.7632	65535	64802.55
792.4191	116.0154	65535	64792.05
792.5605	118.2672	65535	64802.65
792.7019	120.5185	65535	64797.75
792.8434	122.7693	65535	64795.25
792.9849	125.0197	65535	64792.3
793.1264	127.2696	65535	64794.15
793.2679	129.519	65535	64788.1
793.4094	131.7679	65535	64781.25
793.551	134.0163	65535	64775.15
793.6926	136.2642	65535	64775.05
793.8342	138.5117	65535	64766.95
793.9758	140.7587	65535	64772.75
794.1175	143.0052	65535	64767.3
794.2591	145.2512	65535	64768.1
794.4008	147.4967	65535	64767.25
794.5425	149.7417	65535	64763.35
794.6842	151.9863	65535	64761.4
794.826	154.2304	65535	64754.45
794.9677	156.4739	65535	64753.8
795.1095	158.717	65535	64753.45
795.2513	160.9596	65535	64745.6
795.3931	163.2017	65535	64743.55
795.535	165.4433	65535	64745.3
795.6768	167.6844	65535	64745.95
795.8187	169.925	65535	64744
795.9606	172.1651	65535	64745
796.1025	174.4047	65535	64743.4
796.2445	176.6439	65535	64735.9
796.3864	178.8825	65535	64735.1
796.5284	181.1206	65535	64727
796.6704	183.3582	65535	64723.5
796.8124	185.5954	65535	64724.1
796.9544	187.832	65535	64716.2
797.0965	190.0681	65535	64717.35
797.2386	192.3037	65535	64713
797.3806	194.5388	65535	64710.2
797.5228	196.7734	65535	64706.35
797.6649	199.0075	65535	64695.5
797.807	201.2411	65535	64699.25
797.9492	203.4742	65535	64700.55
798.0914	205.7068	65535	64701.9
798.2336	207.9389	65535	64697.1
798.3758	210.1704	65535	64695.8
798.518	212.4015	65535	64691.95
798.6603	214.632	65535	64693.6
798.8025	216.862	65535	64700.9
798.9448	219.0915	65535	64708.35
799.0871	221.3205	65535	64708.7
799.2294	223.549	65535	64711.6
799.3718	225.777	65535	64714.85
799.5141	228.0044	65535	64712.2
799.6565	230.2314	65535	64715.65
799.7989	232.4578	65535	64717.8
799.9413	234.6837	65535	64713
800.0837	236.909	65535	64710.35
800.2262	239.1339	65535	64675.65
800.3687	241.3582	65535	64697.2
800.5111	243.582	65535	64667.6
800.6536	245.8053	65535	64676.15
800.7961	248.0281	65535	64683.75
800.9387	250.2503	65535	64678.65
801.0812	252.472	65535	64672.45
801.2238	254.6932	65535	64670
801.3664	256.9139	65535	64669.1
801.509	259.134	65535	64668.85
801.6516	261.3536	65535	64666.1
801.7942	263.5727	65535	64663.75
801.9369	265.7912	65535	64661.55
802.0795	268.0092	65535	64662.75
802.2222	270.2267	65535	64664.55
802.3649	272.4436	65535	64664.2
802.5076	274.6601	65535	64658.95
802.6504	276.8759	65535	64667.25
802.7931	279.0913	65535	64658.25
802.9359	281.3061	65535	64663.5
803.0787	283.5204	65535	64656.4
803.2215	285.7341	65535	64651.65
803.3643	287.9473	65535	64637.35
803.5071	290.16	65535	64648.2
803.6499	292.3721	65535	64650.85
803.7928	294.5837	65535	64651.65
803.9357	296.7947	65535	64648.3
804.0786	299.0052	65535	64649.95
804.2215	301.2152	65535	64648.6
804.3644	303.4246	65535	64656.95
804.5074	305.6334	65535	64653
804.6503	307.8418	65535	64653.6
804.7933	310.0495	65535	64642.15
804.9363	312.2568	65535	64644.55
805.0793	314.4635	65535	64647.35
805.2223	316.6696	65535	64651.3
805.3653	318.8752	65535	64633.25
805.5084	321.0802	65535	64643.45
805.6514	323.2847	65535	64636.3
805.7945	325.4887	65535	64635.95
805.9376	327.692	65535	64639.6
806.0807	329.8949	65535	64642.3
806.2238	332.0972	65535	64640.15
806.367	334.2989	65535	64631.4
806.5101	336.5001	65535	64632.95
806.6533	338.7007	65535	64634.15
806.7965	340.9008	65535	64632.3
806.9397	343.1003	65535	64630.95
807.0829	345.2992	65535	64626.95
807.2261	347.4976	65535	64628.45
807.3693	349.6955	65535	64621.3
807.5126	351.8927	65535	64620.8
807.6559	354.0895	65535	64611.65
807.7991	356.2856	65535	64621.7
807.9424	358.4812	65535	64626.65
808.0857	360.6763	65535	64625.4
808.2291	362.8707	65535	64619.6
808.3724	365.0646	65535	64624.5
808.5158	367.258	65535	64621.6
808.6591	369.4508	65535	64615.55
808.8025	371.643	65535	64612.3
808.9459	373.8346	65535	64614.1
809.0893	376.0257	65535	64615.3
809.2327	378.2162	65535	64613.35
809.3762	380.4062	65535	64606.85
809.5196	382.5956	65535	64611.4
809.6631	384.7844	65535	64613.95
809.8066	386.9726	65535	64611.05
809.9501	389.1603	65535	64611.5
810.0936	391.3474	65535	64583.75
810.2371	393.5339	65535	64615.85
810.3806	395.7199	65535	64613.95
810.5241	397.9052	65535	64621.15
810.6677	400.09	65535	64621.35
810.8113	402.2743	65535	64621.35
810.9548	404.4579	65535	64625.5
811.0984	406.641	65535	64620.35
811.2421	408.8235	65535	64625.25
811.3857	411.0054	65535	64624.05
811.5293	413.1868	65535	64616
811.673	415.3675	65535	64613.25
811.8166	417.5477	65535	64612.3
811.9603	419.7273	65535	64613.9
812.104	421.9064	65535	64608.95
812.2477	424.0848	65535	64611.8
812.3914	426.2627	65535	64607.95
812.5351	428.4399	65535	64609.65
812.6788	430.6166	65535	64604.05
812.8226	432.7928	65535	64598.4
812.9663	434.9683	65535	64609.35
813.1101	437.1432	65535	64603.15
813.2539	439.3176	65535	64616.65
813.3977	441.4914	65535	64614.75
813.5415	443.6645	65535	64607.85
813.6853	445.8371	65535	64605.05
813.8291	448.0091	65535	64601.55
813.973	450.1806	65535	64609.25
814.1168	452.3514	65535	64610.1
814.2607	454.5216	65535	64603.05
814.4046	456.6913	65535	64603.95
814.5485	458.8603	65535	64608.35
814.6924	461.0288	65535	64615.1
814.8363	463.1967	65535	64616.2
814.9802	465.3639	65535	64608.85
815.1241	467.5306	65535	64609.75
815.2681	469.6967	65535	64612.7
815.412	471.8622	65535	64618.45
815.556	474.0271	65535	64611.55
815.7	476.1914	65535	64602.75
815.844	478.3551	65535	64609.25
815.988	480.5182	65535	64608
816.132	482.6807	65535	64617.65
816.276	484.8426	65535	64624.2
816.4201	487.0039	65535	64611.65
816.5641	489.1647	65535	64607.85
816.7082	491.3248	65535	64607.35
816.8522	493.4843	65535	64616.2
816.9963	495.6432	65535	64614
817.1404	497.8015	65535	64600.2
817.2845	499.9592	65535	64596.95
817.4286	502.1163	65535	64596.5
817.5727	504.2728	65535	64605.6
817.7168	506.4287	65535	64615.55
817.861	508.5839	65535	64612.15
818.0051	510.7386	65535	64607.6
818.1493	512.8927	65535	64595.05
818.2935	515.0461	65535	64599.75
818.4377	517.199	65535	64600
818.5818	519.3512	65535	64598.25
818.726	521.5029	65535	64596.6
818.8703	523.6539	65535	64598.6
819.0145	525.8043	65535	64599.55
819.1587	527.9541	65535	64597.65
819.303	530.1033	65535	64591.65
819.4472	532.2519	65535	64601.45
819.5915	534.3999	65535	64597.35
819.7357	536.5472	65535	64603.25
819.88	538.694	65535	64601.45
820.0243	540.8401	65535	64596.65
820.1686	542.9856	65535	64586.8
820.3129	545.1305	65535	64578.65
820.4572	547.2748	65535	64575.95
820.6016	549.4185	65535	64577.55
820.7459	551.5615	65535	64575.85
820.8902	553.704	65535	64585.7
821.0346	555.8458	65535	64582.75
821.1789	557.987	65535	64588.3
821.3233	560.1276	65535	64585
821.4677	562.2675	65535	64579.9
821.6121	564.4069	65535	64584.2
821.7565	566.5456	65535	64585.1
821.9009	568.6837	65535	64590.8
822.0453	570.8212	65535	64587.1
822.1897	572.958	65535	64587.2
822.3342	575.0942	65535	64593.05
822.4786	577.2299	65535	64596.4
822.6231	579.3648	65535	64613.05
822.7675	581.4992	65535	64623.65
822.912	583.6329	65535	64624.75
823.0565	585.766	65535	64616.5
823.201	587.8985	65535	64609.75
823.3454	590.0304	65535	64585.35
823.4899	592.1616	65535	64592.7
823.6345	594.2922	65535	64587.55
823.779	596.4222	65535	64587
823.9235	598.5515	65535	64581.9
824.068	600.6802	65535	64578.8
824.2126	602.8083	65535	64587.05
824.3571	604.9358	65535	64583.1
824.5017	607.0626	65535	64583.6
824.6462	609.1888	65535	64576.25
824.7908	611.3144	65535	64577.85
824.9354	613.4393	65535	64578.45
825.08	615.5636	65535	64577
825.2246	617.6873	65535	64578.25
825.3692	619.8103	65535	64581.35
825.5138	621.9327	65535	64582.35
825.6584	624.0544	65535	64589.4
825.803	626.1756	65535	64588.75
825.9477	628.2961	65535	64579.9
826.0923	630.4159	65535	64580.85
826.237	632.5351	65535	64583.15
826.3816	634.6537	65535	64577.55
826.5263	636.7716	65535	64570.85
826.6709	638.8889	65535	64569.4
826.8156	641.0056	65535	64572.35
826.9603	643.1216	65535	64572.75
827.105	645.237	65535	64579.8
827.2497	647.3518	65535	64587.75
827.3944	649.4659	65535	64587.15
827.5391	651.5793	65535	64590.75
827.6838	653.6922	65535	64589.7
827.8285	655.8043	65535	64583.55
827.9733	657.9159	65535	64579.55
828.118	660.0268	65535	64584.45
828.2627	662.137	65535	64582.15
828.4075	664.2466	65535	64570.5
828.5522	666.3556	65535	64577.2
828.697	668.4639	65535	64579.55
828.8418	670.5716	65535	64589.5
828.9865	672.6786	65535	64582.15
829.1313	674.785	65535	64574.9
829.2761	676.8907	65535	64578.8
829.4209	678.9958	65535	64583.1
829.5657	681.1002	65535	64581.05
829.7105	683.204	65535	64572.2
829.8553	685.3072	65535	64571.35
830.0001	687.4097	65535	64577.05
830.1449	689.5115	65535	64577.6
830.2898	691.6127	65535	64580.8
830.4346	693.7132	65535	64585.35
830.5794	695.8131	65535	64558.3
830.7243	697.9123	65535	64567.9
830.8691	700.0109	65535	64567.35
831.014	702.1089	65535	64572.85
831.1588	704.2061	65535	64578.15
831.3037	706.3028	65535	64569.45
831.4486	708.3987	65535	64570.75
831.5935	710.4941	65535	64575.2
831.7383	712.5887	65535	64580.95
831.8832	714.6827	65535	64571.65
832.0281	716.7761	65535	64582.25
832.173	718.8688	65535	64576.6
832.3179	720.9608	65535	64568.3
832.4628	723.0522	65535	64559.4
832.6077	725.1429	65535	64567.9
832.7527	727.233	65535	64571.3
832.8976	729.3224	65535	64572.75
833.0425	731.4112	65535	64572.3
833.1874	733.4993	65535	64573.5
833.3324	735.5867	65535	64570.55
833.4773	737.6735	65535	64571.45
833.6222	739.7596	65535	64569.25
833.7672	741.845	65535	64570.35
833.9122	743.9298	65535	64571.6
834.0571	746.014	65535	64573.05
834.2021	748.0974	65535	64560.5
834.347	750.1802	65535	64563
834.492	752.2624	65535	64567.5
834.637	754.3439	65535	64564.25
834.782	756.4247	65535	64561.35
834.9269	758.5048	65535	64569.05
835.0719	760.5843	65535	64564.6
835.2169	762.6631	65535	64564.75
835.3619	764.7413	65535	64568.35
835.5069	766.8188	65535	64566.35
835.6519	768.8956	65535	64563.8
835.7969	770.9718	65535	64563.95
835.9419	773.0473	65535	64568.15
836.0869	775.1221	65535	64569.65
836.232	777.1962	65535	64569.05
836.377	779.2697	65535	64561.95
836.522	781.3426	65535	64543.65
836.667	783.4147	65535	64561.65
836.8121	785.4862	65535	64560.1
836.9571	787.557	65535	64564.4
837.1021	789.6271	65535	64558.35
837.2472	791.6966	65535	64568.25
837.3922	793.7654	65535	64564.25
837.5373	795.8335	65535	64570.5
837.6823	797.901	65535	64565.6
837.8274	799.9678	65535	64561.1
837.9724	802.0339	65535	64561.7
838.1175	804.0993	65535	64549.35
838.2626	806.1641	65535	64563.95
838.4076	808.2282	65535	64565.95
838.5527	810.2916	65535	64564.35
838.6978	812.3544	65535	64565.15
838.8428	814.4164	65535	64569.5
838.9879	816.4778	65535	64561.65
839.133	818.5385	65535	64562.1
839.2781	820.5986	65535	64561.2
839.4232	822.658	65535	64559.85
839.5682	824.7166	65535	64564.25
839.7133	826.7747	65535	64558.6
839.8584	828.832	65535	64564.2
840.0035	830.8886	65535	64559.3
840.1486	832.9446	65535	64562.4
840.2937	834.9999	65535	64563
840.4388	837.0545	65535	64558.75
840.5839	839.1085	65535	64560.85
840.729	841.1618	65535	64556.85
840.8741	843.2143	65535	64562.65
841.0192	845.2662	65535	64568.55
841.1643	847.3175	65535	64559.5
841.3095	849.368	65535	64562.25
841.4546	851.4179	65535	64562.65
841.5997	853.467	65535	64561.95
841.7448	855.5155	65535	64561.05
841.8899	857.5633	65535	64559.9
842.0351	859.6105	65535	64560.05
842.1802	861.6569	65535	64562.5
842.3253	863.7027	65527.4	64550.35
842.4704	865.7478	65533.35	64561.4
842.6156	867.7922	65531.15	64557.55
842.7607	869.8359	65535	64561.95
842.9058	871.8789	65527.5	64553.65
843.0509	873.9212	65534	64528.05
843.1961	875.9629	65535	64560.1
843.3412	878.0039	65532.4	64556.05
843.4863	880.0441	65528.45	64558.65
843.6315	882.0837	65531.05	64558.25
843.7766	884.1226	65525.15	64552.45
843.9218	886.1609	65523.45	64548.65
844.0669	888.1984	65514.15	64542.35
844.212	890.2352	65527.9	64554.05
844.3572	892.2714	65503.65	64524.2
844.5023	894.3069	65519.3	64545.55
844.6475	896.3416	65503.4	64525.35
844.7926	898.3757	65498.05	64522.75
844.9377	900.4091	65419.85	64445.6
845.0829	902.4418	65519.95	64540.9
845.228	904.4739	65472.35	64494
845.3732	906.5052	65480.5	64503.6
845.5183	908.5358	65449.75	64473.25
845.6635	910.5658	65423.65	64445.8
845.8086	912.595	65423.35	64450.95
845.9538	914.6236	65303.25	64327.4
846.0989	916.6515	65460.75	64484.3
846.2441	918.6786	65290.25	64312.3
846.3892	920.7051	65336.2	64356.35
846.5344	922.7309	65308.4	64330.3
846.6795	924.756	65343.6	64369.95
846.8246	926.7804	65298.5	64320.35
846.9698	928.8041	65167.4	64192.4
847.1149	930.8272	65267.2	64287.7
847.2601	932.8495	65293.05	64314.6
847.4052	934.8711	65190.75	64214.15
847.5504	936.892	65105.3	64125.25
847.6955	938.9123	65144.75	64168.55
847.8407	940.9318	65065	64092.95
847.9858	942.9506	65040.35	64063.95
848.131	944.9688	65063.6	64087.75
848.2761	946.9862	64841.6	63866.75
848.4213	949.003	64960.7	63985.25
848.5664	951.019	64708.25	63731.3
848.7115	953.0344	64765.3	63793.3
848.8567	955.0491	64712.35	63736.8
849.0018	957.063	64811.65	63835.3
849.147	959.0763	64822.9	63843.2
849.2921	961.0888	64614.9	63640.5
849.4373	963.1007	64774.45	63802.25
849.5824	965.1119	64776.3	63807.25
849.7275	967.1223	64623.1	63662.1
849.8727	969.1321	64825.25	63867.4
850.0178	971.1412	64548.65	63583.85
850.1629	973.1495	64409.8	63439.5
850.3081	975.1572	64599.95	63569.55
850.4532	977.1641	64455.6	63480.35
850.5983	979.1704	64440.25	63465.25
850.7435	981.1759	64467.95	63488.25
850.8886	983.1808	64217.5	63239
851.0337	985.1849	64229.4	63242.95
851.1788	987.1884	64372.05	63401
851.324	989.1911	64526.75	63551.75
851.4691	991.1932	63866.2	62891.85
851.6142	993.1945	64063.9	63093.4
851.7593	995.1951	64278.8	63309.95
851.9045	997.1951	63854.85	62874.25
852.0496	999.1943	63787.9	62811.35
852.1947	1001.1928	63645.35	62670.15
852.3398	1003.1906	63771.6	62801.1
852.4849	1005.1877	63089.35	62117.3
852.63	1007.1841	62980.45	62008.55
852.7751	1009.1798	63002.3	62032.4
852.9202	1011.1748	62923.7	61952.8
853.0653	1013.1691	62802.85	61828.55
853.2104	1015.1627	61129.2	60159.35
853.3555	1017.1556	61949.45	60979.1
853.5006	1019.1477	62133.35	61165
853.6457	1021.1392	61368.15	60406.25
853.7908	1023.1299	60311.05	59350.7
853.9359	1025.12	61087.55	60133.95
854.081	1027.1093	60574.8	59631.95
854.2261	1029.0979	60508.45	59565.65
854.3712	1031.0859	60387.95	59440.85
854.5163	1033.0731	59601.3	58644.9
854.6613	1035.0596	59963.9	59005.3
854.8064	1037.0454	59725.55	58759.8
854.9515	1039.0304	59238.6	58270.65
855.0965	1041.0148	58282.2	57317.1
855.2416	1042.9985	58475.5	57504.85
855.3867	1044.9814	59030.15	58065.95
855.5317	1046.9636	58009	57042.45
855.6768	1048.9452	58111.4	57146.95
855.8219	1050.926	57855	56890.5
855.9669	1052.9061	57834.3	56863.6
856.112	1054.8855	57910.65	56940.9
856.257	1056.8642	57422.55	56452.7
856.4021	1058.8421	57086.4	56109.65
856.5471	1060.8194	57117.45	56150.25
856.6921	1062.7959	56758.85	55792.2
856.8372	1064.7717	57105.4	56140.5
856.9822	1066.7469	56770.05	55799.85
857.1272	1068.7213	56844.05	55874.8
857.2723	1070.695	56420.8	55452
857.4173	1072.6679	55888	54920.45
857.5623	1074.6402	56076.95	55110
857.7073	1076.6117	55683.1	54709.05
857.8523	1078.5826	55662.95	54694.5
857.9973	1080.5527	55704.15	54731.5
858.1423	1082.5221	55391.4	54421.05
858.2873	1084.4908	55672.45	54704.4
858.4323	1086.4587	55623.75	54653.3
858.5773	1088.426	55676.2	54709.15
858.7223	1090.3925	55444.75	54472.55
858.8673	1092.3584	55306.35	54339.1
859.0123	1094.3235	54723.1	53752.7
859.1573	1096.2879	54552.35	53587.25
859.3022	1098.2515	54520.95	53553.9
859.4472	1100.2145	54332.45	53366.25
859.5922	1102.1767	54197.05	53225.15
859.7371	1104.1382	54254.95	53287.85
859.8821	1106.099	54234.5	53263.75
860.027	1108.0591	54207.15	53239.05
860.172	1110.0185	53801.5	52835.5
860.3169	1111.9771	54226.15	53258.85
860.4619	1113.9351	53721.5	52754.65
860.6068	1115.8923	53114.9	52149
860.7517	1117.8488	52629.1	51660.55
860.8967	1119.8045	52011.5	51047.55
861.0416	1121.7596	52024.15	51061.4
861.1865	1123.7139	51680.75	50715.95
861.3314	1125.6675	51598	50634.45
861.4763	1127.6204	51554.35	50589.15
861.6212	1129.5726	51272.35	50309.65
861.7661	1131.524	51339.6	50372.3
861.911	1133.4748	51356.65	50390.85
862.0559	1135.4248	51072.8	50106.55
862.2008	1137.3741	51041	50075.3
862.3457	1139.3226	50855.3	49887.2
862.4905	1141.2705	50773.8	49808.35
862.6354	1143.2176	50508.95	49538.8
862.7803	1145.164	50286.1	49318.65
862.9251	1147.1097	50276.95	49314.8
863.07	1149.0546	50183.45	49214.4
863.2148	1150.9989	50048.9	49083.8
863.3597	1152.9424	49757.6	48796.2
863.5045	1154.8852	49506.8	48541.8
863.6493	1156.8272	49206.85	48238.25
863.7942	1158.7686	49276.9	48303.95
863.939	1160.7092	48781.95	47812.85
864.0838	1162.6491	48568.85	47599.45
864.2286	1164.5883	48670.85	47709.15
864.3734	1166.5267	48509.2	47544.65
864.5182	1168.4644	48645.35	47684.05
864.663	1170.4014	48653.35	47688.5
864.8078	1172.3377	48849.75	47890.85
864.9526	1174.2732	49001.45	48036.9
865.0974	1176.2081	48952.2	47991.25
865.2421	1178.1421	48969.7	48001.6
865.3869	1180.0755	49136.75	48174.5
865.5317	1182.0082	48869.35	47909.45
865.6764	1183.9401	48754.15	47794.4
865.8212	1185.8713	48393.45	47441.35
865.9659	1187.8017	48048.95	47099
866.1106	1189.7315	47779.1	46837.6
866.2554	1191.6605	47271.35	46330.15
866.4001	1193.5888	46931.05	45989.05
866.5448	1195.5163	46743.85	45791.5
866.6895	1197.4432	46470	45510.85
866.8342	1199.3693	46284.25	45324.8
866.9789	1201.2947	46009.5	45043.35
867.1236	1203.2193	45849.55	44888.75
867.2683	1205.1432	45764.1	44807.05
867.413	1207.0664	45656.35	44700.05
867.5576	1208.9889	45574.35	44611.1
867.7023	1210.9106	45432.85	44472.5
867.847	1212.8316	45322.7	44365.2
867.9916	1214.7519	45352.6	44384.65
868.1363	1216.6715	45157.5	44198.35
868.2809	1218.5903	45064.95	44103.9
868.4255	1220.5084	44890.95	43929.4
868.5701	1222.4257	44785.75	43827.45
868.7148	1224.3424	44406.15	43451.9
868.8594	1226.2583	44364.4	43407.25
869.004	1228.1735	44366.4	43408.1
869.1486	1230.0879	44210	43245.9
869.2932	1232.0016	44238.25	43278.55
869.4377	1233.9146	44164.25	43205.8
869.5823	1235.8269	43923.85	42967.3
869.7269	1237.7384	43797.75	42838.25
869.8715	1239.6492	43404.4	42447.35
870.016	1241.5592	43266.1	42310.55
870.1606	1243.4686	42923.1	41965.75
870.3051	1245.3772	42813.95	41857.15
870.4496	1247.285	42627.45	41667.2
870.5941	1249.1922	42369.1	41411.6
870.7387	1251.0986	42312.4	41354.9
870.8832	1253.0042	42114.3	41156.3
871.0277	1254.9092	42073.15	41117.25
871.1722	1256.8134	42007.4	41055.05
871.3167	1258.7169	42143.95	41187.95
871.4611	1260.6196	42127.7	41169.6
871.6056	1262.5216	42234.5	41277.95
871.7501	1264.4229	42201.4	41244.1
871.8945	1266.3234	42314.8	41359.75
872.039	1268.2232	42293.6	41332.1
872.1834	1270.1223	42113	41153.75
872.3278	1272.0207	42012.25	41058.6
872.4723	1273.9183	41827.05	40863.6
872.6167	1275.8151	41663.2	40710
872.7611	1277.7113	41514.85	40559.8
872.9055	1279.6067	41218.1	40263.35
873.0499	1281.5014	40973.65	40020.3
873.1943	1283.3953	40726.15	39767.95
873.3386	1285.2885	40598.3	39642.75
873.483	1287.181	40433.75	39480.1
873.6274	1289.0727	40397.4	39446.6
873.7717	1290.9637	40265.9	39311.6
873.9161	1292.854	40345.45	39390.15
874.0604	1294.7435	40330.45	39377.05
874.2047	1296.6323	40433.05	39477.8
874.349	1298.5204	40640.6	39680.85
874.4933	1300.4077	40809.8	39852.85
874.6376	1302.2943	40863.75	39908.3
874.7819	1304.1802	40948.4	39994.65
874.9262	1306.0653	40769.75	39812.05
875.0705	1307.9497	40551.65	39598.3
875.2147	1309.8333	40408.95	39454.55
875.359	1311.7162	40369.75	39414
875.5032	1313.5984	40316.15	39357.15
875.6475	1315.4798	40337.6	39364.1
875.7917	1317.3605	40339.25	39377.95
875.9359	1319.2405	40477.5	39526.55
876.0801	1321.1197	40451.9	39498.45
876.2243	1322.9982	40243	39283.8
876.3685	1324.876	40226.55	39276.5
876.5127	1326.753	40082.9	39129.55
876.6569	1328.6293	40096.9	39141.25
876.801	1330.5048	40119.9	39159.65
876.9452	1332.3796	39916.35	38964.9
877.0893	1334.2537	39876.6	38898.9
877.2335	1336.127	39700.7	38747.2
877.3776	1337.9996	39616.1	38661.95
877.5217	1339.8714	39481.4	38523.75
877.6658	1341.7426	39335.45	38332.4
877.8099	1343.6129	39235.3	38277
877.954	1345.4826	39035.4	38080.1
878.0981	1347.3515	38963.95	38001.85
878.2422	1349.2196	38858.65	37904.05
878.3862	1351.087	38821.65	37863.5
878.5303	1352.9537	38778.9	37822.8
878.6743	1354.8197	38840.1	37880.45
878.8184	1356.6849	38982.8	38026.6
878.9624	1358.5493	38867.7	37911.9
879.1064	1360.4131	38834	37882.2
879.2504	1362.276	38618.8	37666.25
879.3944	1364.1383	38407.95	37458.35
879.5384	1365.9998	38065.85	37107
879.6823	1367.8606	37689.45	36734.3
879.8263	1369.7206	37387.4	36433.4
879.9702	1371.5799	37090.55	36135.3
880.1142	1373.4384	36866.7	35913.1
880.2581	1375.2962	36684.2	35730.95
880.402	1377.1533	36304.4	35354.6
880.5459	1379.0096	35886.7	34934
880.6898	1380.8652	35568	34619.65
880.8337	1382.7201	35246.55	34297.3
880.9776	1384.5742	34916.75	33964.9
881.1215	1386.4275	34682.15	33729.5
881.2653	1388.2802	34444.65	33489.5
881.4092	1390.132	34225.6	33272.55
881.553	1391.9832	34153.7	33199.35
881.6968	1393.8336	33903.2	32950
881.8406	1395.6832	33782.25	32828.45
881.9844	1397.5322	33608.5	32661.2
882.1282	1399.3803	33480.6	32525.75
882.272	1401.2278	33271.65	32319
882.4158	1403.0745	33218.85	32270.75
882.5595	1404.9204	33070.35	32119.1
882.7033	1406.7656	33016.05	32065.5
882.847	1408.6101	32879.75	31928.45
882.9908	1410.4538	32740.75	31790.95
883.1345	1412.2968	32716.3	31765
883.2782	1414.139	32540.45	31590.95
883.4219	1415.9805	32621.85	31674.2
883.5656	1417.8213	32560.35	31590.25
883.7092	1419.6613	32541.6	31593.3
883.8529	1421.5006	32660.1	31707.7
883.9965	1423.3391	32812.65	31865.75
884.1402	1425.1769	32993.35	32042.25
884.2838	1427.0139	33442.25	32491.6
884.4274	1428.8502	33981.75	33033.05
884.571	1430.6858	34411.7	33459.7
884.7146	1432.5206	34673	33726.3
884.8582	1434.3547	34906.2	33957.75
885.0018	1436.188	34926.35	33978.2
885.1453	1438.0206	34800.15	33852.8
885.2889	1439.8524	34543.25	33589.8
885.4324	1441.6835	34374.4	33428.5
885.5759	1443.5139	34277.15	33329.7
885.7194	1445.3435	34092.6	33144.35
885.8629	1447.1724	33991.45	33048.4
886.0064	1449.0005	33871.1	32924.4
886.1499	1450.8279	33673.15	32727.25
886.2933	1452.6545	33596.75	32651.7
886.4368	1454.4804	33590.05	32643.95
886.5802	1456.3056	33492.4	32541.25
886.7237	1458.13	33382.05	32437.7
886.8671	1459.9536	33176.6	32230.25
887.0105	1461.7766	32741.1	31795.6
887.1539	1463.5987	32272.3	31323.9
887.2972	1465.4202	31837.15	30892.15
887.4406	1467.2409	31421.8	30473.1
887.584	1469.0608	31142.85	30196.65
887.7273	1470.88	30830.15	29879.15
887.8706	1472.6984	30557.85	29612.95
888.0139	1474.5161	30257.2	29305.7
888.1572	1476.3331	30051.65	29106.55
888.3005	1478.1493	29910.15	28964.6
888.4438	1479.9648	29734.35	28784.25
888.5871	1481.7795	29608.5	28657.1
888.7303	1483.5935	29493.2	28547.65
888.8736	1485.4067	29401.25	28454.1
889.0168	1487.2192	29328.4	28380.75
889.16	1489.031	29191.3	28246.25
889.3032	1490.842	29103.9	28159.2
889.4464	1492.6522	29032.5	28090.25
889.5896	1494.4618	28936.05	27990.55
889.7327	1496.2705	28851.75	27906.7
889.8759	1498.0785	28810.7	27866.6
890.019	1499.8858	28665.45	27720.85
890.1622	1501.6924	28611.75	27665
890.3053	1503.4981	28602.2	27659.65
890.4484	1505.3032	28488.95	27543.1
890.5914	1507.1075	28449.25	27505.9
890.7345	1508.911	28352.4	27408.95
890.8776	1510.7138	28242.4	27298.65
891.0206	1512.5159	28115.25	27173.75
891.1637	1514.3172	28011.4	27069.8
891.3067	1516.1178	27829.7	26886.7
891.4497	1517.9176	27817.6	26868.7
891.5927	1519.7166	27722.9	26778.8
891.7357	1521.515	27635.35	26687.1
891.8786	1523.3126	27540.85	26599.2
892.0216	1525.1094	27424.85	26480.45
892.1645	1526.9055	27350.15	26411
892.3074	1528.7008	27189.25	26246.2
892.4503	1530.4954	27009.05	26061.95
892.5932	1532.2893	27041.85	26105.05
892.7361	1534.0824	26847.5	25905.6
892.879	1535.8747	26838.4	25904.45
893.0218	1537.6663	26723.3	25787.45
893.1647	1539.4572	26620.15	25680.55
893.3075	1541.2473	26583.8	25645.55
893.4503	1543.0367	26509.9	25574.25
893.5931	1544.8253	26382.55	25440.85
893.7359	1546.6132	26373.25	25428.45
893.8787	1548.4003	26232	25284.5
894.0214	1550.1867	26170.55	25223.6
894.1642	1551.9723	26143.8	25200.65
894.3069	1553.7572	26094.05	25158.15
894.4496	1555.5414	26033.75	25102.75
894.5923	1557.3247	25945.75	25014.65
894.735	1559.1074	25921.35	24993.6
894.8777	1560.8893	25915.85	24986.1
895.0204	1562.6705	25885.65	24955.95
895.163	1564.4509	25929.4	24999.9
895.3056	1566.2305	25871.65	24947.65
895.4482	1568.0094	25992.6	25066
895.5908	1569.7876	26008.35	25079.85
895.7334	1571.565	25976.15	25046.65
895.876	1573.3417	25999.25	25067.8
896.0186	1575.1176	25945.5	25016.7
896.1611	1576.8928	25884.8	24959.35
896.3036	1578.6672	25721.7	24802.25
896.4461	1580.4409	25548.8	24629.65
896.5886	1582.2138	25353.65	24431.35
896.7311	1583.986	25178.3	24254.9
896.8736	1585.7575	25071.5	24146.35
897.0161	1587.5282	24928.35	24007.7
897.1585	1589.2981	24826.75	23909.85
897.3009	1591.0673	24625.3	23711.05
897.4433	1592.8358	24583.45	23662.15
897.5857	1594.6035	24516.15	23590.9
897.7281	1596.3704	24405.4	23480.9
897.8705	1598.1366	24387.5	23464.85
898.0128	1599.9021	24298.9	23378.4
898.1551	1601.6668	24231.35	23305.6
898.2975	1603.4308	24225.3	23298.05
898.4398	1605.194	24222.1	23296.05
898.5821	1606.9564	24299.8	23381.75
898.7243	1608.7182	24351.35	23438.65
898.8666	1610.4791	24327.95	23421.45
899.0088	1612.2394	24376.3	23469.85
899.1511	1613.9988	24545.95	23636.55
899.2933	1615.7576	24679.75	23767.8
899.4355	1617.5156	24895.45	23968.65
899.5776	1619.2728	25049.6	24124.2
899.7198	1621.0293	25194.3	24269.15
899.862	1622.785	25180.15	24263.1
900.0041	1624.54	25044.4	24128.75
900.1462	1626.2942	24927.3	24015.2
900.2883	1628.0477	24541.95	23624.15
900.4304	1629.8005	24291.15	23373.65
900.5725	1631.5525	24020.45	23105.2
900.7145	1633.3037	23733	22819.85
900.8566	1635.0542	23577.05	22662.9
900.9986	1636.804	23370.95	22458.1
901.1406	1638.553	23270.1	22308.7
901.2826	1640.3013	23098	22181.95
901.4245	1642.0488	23037.05	22121.1
901.5665	1643.7955	22947.2	22035.55
901.7085	1645.5416	22898.75	21987.15
901.8504	1647.2868	22941.85	22027.9
901.9923	1649.0313	22924.55	22010.65
902.1342	1650.7751	23015.05	22096.9
902.2761	1652.5181	23144.9	22229.35
902.4179	1654.2604	23222.95	22309.35
902.5598	1656.0019	23467.7	22554.75
902.7016	1657.7427	23789.25	22876.05
902.8434	1659.4828	24080.65	23161.25
902.9852	1661.222	24248.05	23330.05
903.127	1662.9606	24270.8	23354.25
903.2687	1664.6984	24121.9	23201.9
903.4105	1666.4354	23785.15	22864.35
903.5522	1668.1717	23297.25	22377.25
903.6939	1669.9072	22796.95	21877.85
903.8356	1671.642	22389.45	21465.55
903.9773	1673.3761	22077.45	21158
904.119	1675.1094	21804.55	20888.8
904.2606	1676.8419	21509.55	20592.4
904.4022	1678.5737	21317.15	20400.65
904.5439	1680.3048	21141	20219.55
904.6855	1682.0351	20982.6	20064.65
904.827	1683.7646	20848	19926.15
904.9686	1685.4934	20736.55	19823.6
905.1101	1687.2215	20653.15	19738.8
905.2517	1688.9488	20550.9	19636.85
905.3932	1690.6754	20428.1	19513.65
905.5347	1692.4012	20434.7	19518.4
905.6761	1694.1263	20302.25	19386.5
905.8176	1695.8506	20269.65	19355.9
905.9591	1697.5742	20165.7	19252.5
906.1005	1699.297	20097	19186.55
906.2419	1701.0191	19965.7	19056.85
906.3833	1702.7404	19891.45	18981.7
906.5246	1704.461	19780.5	18869.65
906.666	1706.1808	19702.1	18791.35
906.8073	1707.8999	19617.8	18708.1
906.9487	1709.6182	19562.25	18658.95
907.09	1711.3358	19503	18597.95
907.2313	1713.0527	19395.7	18491.15
907.3725	1714.7688	19317.85	18403.4
907.5138	1716.4841	19276.65	18365.45
907.655	1718.1987	19262.95	18348.2
907.7962	1719.9126	19180.55	18275.5
907.9374	1721.6257	19101.45	18196.8
908.0786	1723.338	19038.45	18134.2
908.2198	1725.0496	18958.5	18049.3
908.3609	1726.7605	18893.2	17982.4
908.502	1728.4706	18833.3	17927.45
908.6431	1730.18	18722.85	17814.65
908.7842	1731.8886	18686.75	17782.75
908.9253	1733.5964	18658.5	17732.4
909.0664	1735.3036	18589.45	17681.85
909.2074	1737.0099	18530.6	17627
909.3484	1738.7156	18513.05	17611.75
909.4894	1740.4204	18405.7	17499
909.6304	1742.1246	18393	17483.7
909.7714	1743.8279	18340.7	17436.75
909.9123	1745.5306	18297.8	17395.6
910.0532	1747.2325	18208.4	17305.4
910.1941	1748.9336	18133.15	17230.1
910.335	1750.634	18091.15	17184.45
910.4759	1752.3336	18039.45	17134.95
910.6168	1754.0325	18027.7	17126.6
910.7576	1755.7307	17985.5	17084.15
910.8984	1757.4281	17965.6	17061.85
911.0392	1759.1247	17937.05	17020.55
911.18	1760.8206	17868	16956.85
911.3208	1762.5158	17858.7	16946.9
911.4615	1764.2102	17759.45	16855.05
911.6022	1765.9039	17716	16813.55
911.7429	1767.5968	17640.45	16741.5
911.8836	1769.289	17624.85	16722.7
912.0243	1770.9804	17594.45	16691
912.1649	1772.6711	17557	16651.55
912.3056	1774.361	17492.05	16581.85
912.4462	1776.0502	17471.95	16563.95
912.5868	1777.7386	17448.15	16537.65
912.7274	1779.4263	17379.05	16474.5
912.8679	1781.1132	17347.6	16448.5
913.0084	1782.7994	17236.5	16333
913.149	1784.4849	17233	16334.15
913.2895	1786.1696	17195.8	16277.05
913.4299	1787.8535	17143.65	16244.3
913.5704	1789.5367	17114.45	16217.2
913.7108	1791.2192	17077.15	16178.2
913.8513	1792.9009	17000.7	16070.3
913.9917	1794.5818	16972.2	16066.2
914.132	1796.2621	16920.45	16018.1
914.2724	1797.9415	16860.2	15955
914.4128	1799.6202	16801.25	15895.35
914.5531	1801.2982	16814.55	15911.2
914.6934	1802.9755	16695.9	15787.3
914.8337	1804.6519	16692.65	15787.3
914.9739	1806.3277	16636.15	15735.5
915.1142	1808.0027	16574.9	15677.3
915.2544	1809.6769	16558.9	15660.75
915.3946	1811.3504	16504.2	15604.05
915.5348	1813.0231	16453.2	15555.1
915.675	1814.6951	16423.5	15525.5
915.8151	1816.3664	16440.85	15537.25
915.9553	1818.0369	16400.45	15497.15
916.0954	1819.7067	16326	15422.25
916.2355	1821.3757	16297.65	15391.95
916.3755	1823.044	16254.5	15347.3
916.5156	1824.7115	16236.45	15332.15
916.6556	1826.3783	16138.15	15235.25
916.7956	1828.0443	16102.85	15200.2
916.9356	1829.7096	16077.4	15173.95
917.0756	1831.3741	16076	15170.7
917.2155	1833.0379	16015.25	15113.95
917.3555	1834.701	15966.4	15066.8
917.4954	1836.3633	15920.1	15024.25
917.6353	1838.0248	15888.9	14989.35
917.7751	1839.6856	15822.65	14920
917.915	1841.3457	15830	14929.15
918.0548	1843.005	15796.95	14893.55
918.1946	1844.6636	15746.75	14844.35
918.3344	1846.3214	15728.3	14825.95
918.4742	1847.9785	15713.95	14814.6
918.6139	1849.6349	15648.05	14744.9
918.7537	1851.2904	15657.25	14743.55
918.8934	1852.9453	15612.5	14709.95
919.0331	1854.5994	15546.4	14638.3
919.1727	1856.2528	15554.95	14649.15
919.3124	1857.9054	15522.6	14621.2
919.452	1859.5572	15503.3	14601.5
919.5916	1861.2083	15445.1	14541.85
919.7312	1862.8587	15439.5	14535.7
919.8708	1864.5084	15425.8	14520.15
920.0103	1866.1572	15298.4	14393.7
920.1498	1867.8054	15252.6	14349
920.2893	1869.4528	15231.55	14327.9
920.4288	1871.0994	15204	14299.2
920.5683	1872.7453	15192.85	14287.9
920.7077	1874.3905	15121.75	14212.15
920.8471	1876.0349	15056.1	14151.7
920.9865	1877.6786	15045.65	14139.35
921.1259	1879.3215	15052.85	14150.1
921.2653	1880.9637	15006	14101.25
921.4046	1882.6051	14984.65	14084.1
921.5439	1884.2458	14940.95	14037.35
921.6832	1885.8858	14869.7	13969.6
921.8225	1887.525	14824.05	13920.05
921.9617	1889.1634	14785.35	13881.75
922.101	1890.8011	14763.4	13859.9
922.2402	1892.4381	14689.85	13787.4
922.3794	1894.0743	14678.3	13776.05
922.5185	1895.7098	14663.6	13761.25
922.6577	1897.3446	14616.1	13711.6
922.7968	1898.9786	14583.95	13678.1
922.9359	1900.6118	14535	13634.3
923.075	1902.2443	14462.05	13560.1
923.214	1903.8761	14433.15	13529.8
923.3531	1905.5071	14366.05	13462.65
923.4921	1907.1374	14326.7	13424.95
923.6311	1908.7669	14311.05	13411
923.77	1910.3957	14247.5	13345.15
923.909	1912.0237	14157.4	13258.45
924.0479	1913.651	14155.2	13252.4
924.1868	1915.2776	14153.1	13254.45
924.3257	1916.9034	14097.15	13198.8
924.4646	1918.5285	14013.6	13114.45
924.6034	1920.1528	13929.15	13026.95
924.7422	1921.7764	13924.45	13022.4
924.881	1923.3992	13890.65	12990.25
925.0198	1925.0213	13769.7	12869.8
925.1586	1926.6427	13748.35	12847.2
925.2973	1928.2633	13775.15	12806.3
925.436	1929.8832	13734.5	12830.75
925.5747	1931.5023	13650.9	12749.55
925.7134	1933.1207	13616.5	12714.45
925.852	1934.7383	13593.45	12692.8
925.9906	1936.3552	13523.1	12626.05
926.1292	1937.9714	13476.05	12575.15
926.2678	1939.5868	13445.25	12544.2
926.4064	1941.2015	13372.9	12474.25
926.5449	1942.8154	13324.9	12421.75
926.6834	1944.4286	13275.9	12372.25
926.8219	1946.041	13229.7	12310.45
926.9604	1947.6528	13155.75	12250.05
927.0988	1949.2637	13118.45	12217.55
927.2372	1950.8739	13074.35	12174.4
927.3756	1952.4834	13033.45	12134.25
927.514	1954.0921	13037	12135.5
927.6523	1955.7001	12991.95	12087.6
927.7907	1957.3074	12945.15	12050.35
927.929	1958.9139	12866.2	11969.3
928.0673	1960.5197	12829.7	11931.1
928.2055	1962.1247	12794.7	11897.5
928.3438	1963.729	12729.95	11834.4
928.482	1965.3325	12690.35	11771.5
928.6202	1966.9353	12637.5	11740.5
928.7584	1968.5374	12614.9	11720.5
928.8965	1970.1387	12592.7	11695.95
929.0346	1971.7393	12529.1	11630.3
929.1727	1973.3392	12480.3	11583.15
929.3108	1974.9383	12448.75	11554.7
929.4489	1976.5366	12360.5	11468.95
929.5869	1978.1342	12371.6	11477.55
929.7249	1979.7311	12321.35	11426.55
929.8629	1981.3273	12285.3	11393.4
930.0009	1982.9227	12268.95	11373.7
930.1388	1984.5173	12218.3	11327.4
930.2767	1986.1112	12147.9	11257.4
930.4146	1987.7044	12120.55	11227.9
930.5525	1989.2968	12084.95	11192.55
930.6904	1990.8885	12073.25	11177.7
930.8282	1992.4795	12020.35	11128.65
930.966	1994.0697	11994.8	11105.6
931.1038	1995.6592	11946.2	11053.8
931.2415	1997.2479	11908.75	11017
931.3793	1998.8359	11881.4	10989.5
931.517	2000.4232	11831.5	10943.65
931.6547	2002.0097	11768.3	10884.3
931.7923	2003.5955	11736.95	10848
931.93	2005.1805	11744.15	10853.9
932.0676	2006.7648	11721.05	10832.9
932.2052	2008.3484	11648.35	10759.1
932.3427	2009.9312	11673.45	10784.95
932.4803	2011.5133	11614.55	10729.3
932.6178	2013.0946	11587.65	10701.2
932.7553	2014.6752	11550.75	10663.75
932.8928	2016.2551	11504.9	10616.2
933.0302	2017.8342	11488.45	10599.1
933.1676	2019.4126	11435.6	10548.8
933.305	2020.9902	11377.35	10493.05
933.4424	2022.5672	11358.75	10472.2
933.5798	2024.1433	11316.65	10423.85
933.7171	2025.7188	11280.85	10396.4
933.8544	2027.2935	11260	10374.6
933.9917	2028.8674	11232.15	10348.35
934.129	2030.4406	11194.15	10311.05
934.2662	2032.0131	11134.35	10252.7
934.4034	2033.5849	11102	10213.85
934.5406	2035.1559	11105.3	10220.65
934.6778	2036.7261	11093.1	10205.75
934.8149	2038.2957	11067.05	10179.4
934.952	2039.8645	11030.5	10141
935.0891	2041.4325	10985.5	10091.5
935.2262	2042.9998	10936.45	10047.3
935.3632	2044.5664	10923.85	10034.9
935.5002	2046.1323	10936.25	10052.7
935.6372	2047.6974	10867	9983.2
935.7742	2049.2617	10812	9927.2
935.9111	2050.8254	10796.95	9905.85
936.048	2052.3883	10802.25	9913.35
936.1849	2053.9504	10763.05	9873.5
936.3218	2055.5118	10728.7	9836.05
936.4586	2057.0725	10689.3	9797.2
936.5955	2058.6325	10660.65	9774.5
936.7323	2060.1917	10609	9723.4
936.869	2061.7502	10613.6	9725.7
937.0058	2063.3079	10558.05	9674.8
937.1425	2064.8649	10519.5	9632.15
937.2792	2066.4212	10481.3	9593.4
937.4159	2067.9767	10477.3	9589.65
937.5525	2069.5315	10410.7	9521.7
937.6891	2071.0856	10382.15	9494.4
937.8257	2072.6389	10352.75	9465.25
937.9623	2074.1915	10288.6	9406.1
938.0989	2075.7433	10253.7	9364.6
938.2354	2077.2945	10244.9	9357.1
938.3719	2078.8448	10212.85	9322.45
938.5084	2080.3945	10159.35	9268.4
938.6448	2081.9434	10178.6	9289.6
938.7812	2083.4916	10160.6	9268.7
938.9176	2085.039	10111.7	9215.95
939.054	2086.5857	10082.95	9185
939.1903	2088.1317	10069.55	9171.9
939.3267	2089.677	10032.9	9136
939.463	2091.2215	10005.65	9108.55
939.5992	2092.7652	9950.65	9051.35
939.7355	2094.3083	9947.1	9052.05
939.8717	2095.8506	9931.85	9037.6
940.0079	2097.3921	9934.85	9043.4
940.1441	2098.933	9891.8	8998.55
940.2802	2100.4731	9876.3	8983.25
940.4163	2102.0124	9870.7	8971.1
940.5524	2103.5511	9822.35	8929.3
940.6885	2105.089	9792.7	8900.7
940.8245	2106.6261	9785.15	8891.45
940.9606	2108.1626	9748.3	8853.5
941.0965	2109.6983	9739.6	8822.15
941.2325	2111.2332	9683.35	8791.4
941.3684	2112.7675	9655.7	8761.1
941.5044	2114.301	9639.25	8745.3
941.6403	2115.8337	9610.35	8717.7
941.7761	2117.3657	9619.15	8727.15
941.912	2118.897	9576.5	8682.35
942.0478	2120.4276	9547	8646.7
942.1835	2121.9575	9475.95	8579.8
942.3193	2123.4866	9510.65	8615.3
942.455	2125.0149	9480.25	8586.75
942.5907	2126.5426	9404.65	8516.1
942.7264	2128.0695	9373.5	8481.85
942.8621	2129.5956	9378.95	8493.95
942.9977	2131.1211	9343.5	8449.6
943.1333	2132.6458	9334.25	8443.1
943.2689	2134.1698	9322.55	8428.3
943.4044	2135.693	9270.7	8373.05
943.54	2137.2155	9270.85	8374.75
943.6755	2138.7373	9250.7	8357.5
943.8109	2140.2584	9214.3	8327.35
943.9464	2141.7787	9200.2	8309.05
944.0818	2143.2983	9152.3	8267.05
944.2172	2144.8171	9097.3	8212.35
944.3526	2146.3353	9074.5	8185.95
944.4879	2147.8527	9055.45	8165.85
944.6232	2149.3693	9039	8145.3
944.7585	2150.8853	9013.05	8120.55
944.8938	2152.4005	8969.7	8073.8
945.029	2153.9149	8981.35	8084.85
945.1642	2155.4287	9007.9	8002.4
945.2994	2156.9417	8947.95	8052.3
945.4346	2158.454	8870.6	7979.4
945.5697	2159.9655	8855.9	7967.35
945.7048	2161.4764	8847	7957.2
945.8399	2162.9865	8816.15	7926.55
945.9749	2164.4958	8781	7889.2
946.1099	2166.0045	8773.3	7881.45
946.2449	2167.5124	8747.05	7854.15
946.3799	2169.0195	8721.5	7828.75
946.5148	2170.526	8704	7811.95
946.6498	2172.0317	8679.8	7790.35
946.7846	2173.5367	8663.1	7771.85
946.9195	2175.0409	8633.35	7743.3
947.0543	2176.5445	8629.65	7738.4
947.1891	2178.0473	8591.25	7695.2
947.3239	2179.5494	8556.6	7656.75
947.4587	2181.0507	8512.3	7617.45
947.5934	2182.5513	8494.35	7600.45
947.7281	2184.0512	8461.15	7566.15
947.8628	2185.5504	8443.65	7552.7
947.9974	2187.0488	8397.4	7509.4
948.132	2188.5465	8387.1	7497.75
948.2666	2190.0435	8371.85	7478.85
948.4012	2191.5397	8326.05	7433.25
948.5357	2193.0353	8320	7426.05
948.6702	2194.5301	8277.4	7380.55
948.8047	2196.0241	8257.95	7359
948.9392	2197.5175	8230.15	7332.3
949.0736	2199.0101	8219.75	7318.55
949.208	2200.502	8148.25	7256.6
949.3424	2201.9931	8146.4	7255.6
949.4767	2203.4835	8101.2	7211.5
949.611	2204.9733	8088.85	7184.35
949.7453	2206.4622	8088.15	7199.1
949.8796	2207.9505	8044.1	7152.7
950.0138	2209.438	7972.55	7087.1
950.148	2210.9248	7967.45	7077.4
950.2822	2212.4109	7969.25	7077.6
950.4164	2213.8962	7957.35	7059.35
950.5505	2215.3809	7943.55	7046.15
950.6846	2216.8648	7941.4	7043.85
950.8186	2218.3479	7901.2	6998.3
950.9527	2219.8304	7845.55	6945.95
951.0867	2221.3121	7825.65	6926.4
951.2207	2222.7931	7793.8	6898
951.3546	2224.2733	7764.15	6870
951.4886	2225.7529	7729.65	6834.85
951.6225	2227.2317	7710.35	6816.5
951.7563	2228.7098	7702	6814.25
951.8902	2230.1872	7651.7	6762.1
952.024	2231.6638	7669.5	6779
952.1578	2233.1397	7637.5	6743.8
952.2916	2234.6149	7601.4	6714
952.4253	2236.0894	7573.9	6683.85
952.559	2237.5632	7548.05	6653.7
952.6927	2239.0362	7505.75	6614.45
952.8263	2240.5085	7505.25	6614.1
952.9599	2241.9801	7474.2	6582.2
953.0935	2243.4509	7462.05	6568.05
953.2271	2244.921	7447.35	6551.3
953.3606	2246.3904	7401.1	6500.95
953.4941	2247.8591	7372	6475.2
953.6276	2249.3271	7364.25	6469.85
953.7611	2250.7943	7331.05	6436.6
953.8945	2252.2608	7289.2	6394.1
954.0279	2253.7266	7288.3	6394.85
954.1612	2255.1917	7266.75	6375.6
954.2946	2256.656	7252.15	6357.45
954.4279	2258.1197	7230.4	6338.8
954.5612	2259.5826	7192.25	6299.35
954.6944	2261.0447	7191.5	6298.5
954.8276	2262.5062	7181	6282.65
954.9608	2263.9669	7163.2	6270.95
955.094	2265.4269	7136.9	6243.4
955.2271	2266.8862	7133.65	6239.8
955.3602	2268.3448	7107.25	6214.35
955.4933	2269.8026	7090.6	6199.9
955.6264	2271.2598	7067	6175.45
955.7594	2272.7162	7039.2	6145.7
955.8924	2274.1719	7025.15	6131.85
956.0253	2275.6268	7019.25	6123.95
956.1583	2277.0811	7007.15	6109.9
956.2912	2278.5346	6979.6	6086.7
956.4241	2279.9874	6971.65	6080.8
956.5569	2281.4395	6951.7	6064.25
956.6897	2282.8908	6922.4	6026.25
956.8225	2284.3414	6907.75	6013.4
956.9553	2285.7914	6879.8	5987.5
957.088	2287.2406	6880.1	5984.15
957.2207	2288.689	6851.9	5958.1
957.3534	2290.1368	6827.6	5927.65
957.486	2291.5838	6794.75	5890.65
957.6186	2293.0302	6788.25	5887.35
957.7512	2294.4758	6758.85	5863.35
957.8838	2295.9206	6752.7	5856.25
958.0163	2297.3648	6734.15	5842.25
958.1488	2298.8082	6720.35	5826.5
958.2813	2300.251	6699.35	5804.8
958.4137	2301.693	6663.55	5763.85
958.5461	2303.1343	6665.6	5769.5
958.6785	2304.5748	6621.25	5726.55
958.8108	2306.0147	6608.5	5716.65
958.9432	2307.4538	6586.35	5694.45
959.0754	2308.8922	6585.75	5697.6
959.2077	2310.3299	6565.7	5676.6
959.3399	2311.7669	6531.1	5641.35
959.4721	2313.2031	6482.35	5588.3
959.6043	2314.6387	6492.3	5598.05
959.7365	2316.0735	6468.25	5573.2
959.8686	2317.5076	6438.65	5545.8
960.0006	2318.941	6436.5	5540.25
960.1327	2320.3737	6428	5532.95
960.2647	2321.8056	6420.25	5522.65
960.3967	2323.2369	6377.4	5484.15
960.5287	2324.6674	6362.6	5466.55
960.6606	2326.0972	6351.7	5457.85
960.7925	2327.5263	6316.2	5421.3
960.9244	2328.9547	6317.85	5423.35
961.0562	2330.3823	6287.35	5389.8
961.1881	2331.8092	6272.2	5367.8
961.3198	2333.2355	6250.25	5353.7
961.4516	2334.661	6242.8	5346.95
961.5833	2336.0858	6221.85	5325.35
961.715	2337.5098	6218	5323.9
961.8467	2338.9332	6206.1	5310.65
961.9783	2340.3558	6192.35	5294.85
962.1099	2341.7778	6154.35	5260.85
962.2415	2343.199	6133.6	5240.35
962.373	2344.6195	6134.25	5241.9
962.5045	2346.0393	6115.1	5222.4
962.636	2347.4583	6099	5204.15
962.7675	2348.8767	6084.7	5189.1
962.8989	2350.2943	6076.55	5180.3
963.0303	2351.7113	6066.9	5165.8
963.1617	2353.1275	6044.3	5145.7
963.293	2354.543	6016.6	5113.75
963.4243	2355.9578	6003.85	5105.3
963.5556	2357.3718	5950.7	5058.2
963.6868	2358.7852	5939.65	5046.7
963.818	2360.1978	5924.55	5032.7
963.9492	2361.6098	5926.45	5034.35
964.0803	2363.021	5903.25	5004.3
964.2114	2364.4315	5879.95	4986.2
964.3425	2365.8413	5870.8	4977.1
964.4736	2367.2504	5826.85	4934.6
964.6046	2368.6587	5803	4912
964.7356	2370.0664	5782.6	4890.95
964.8666	2371.4733	5767.85	4870.9
964.9975	2372.8795	5774.15	4881.65
965.1284	2374.285	5732.25	4836.7
965.2593	2375.6899	5690.25	4798.4
965.3901	2377.0939	5666.8	4775.5
965.5209	2378.4973	5670.15	4778.95
965.6517	2379.9	5646.8	4754.15
965.7825	2381.3019	5632.9	4739.85
965.9132	2382.7032	5625.35	4735.7
966.0439	2384.1037	5604.65	4717.05
966.1745	2385.5035	5585.55	4697.15
966.3051	2386.9027	5569.3	4681.85
966.4357	2388.3011	5560.25	4668.3
966.5663	2389.6987	5548.65	4658.25
966.6968	2391.0957	5522.75	4633.65
966.8273	2392.492	5488.05	4596.05
966.9578	2393.8876	5459.15	4570.1
967.0882	2395.2824	5453.6	4561.9
967.2186	2396.6765	5423.35	4529.5
967.349	2398.07	5401.65	4508.2
967.4793	2399.4627	5415.85	4521.4
967.6097	2400.8547	5390.5	4499.25
967.7399	2402.246	5371.6	4472.9
967.8702	2403.6366	5337.5	4444.85
968.0004	2405.0265	5302.25	4412.35
968.1306	2406.4156	5293.8	4399.4
968.2607	2407.8041	5278.15	4382.3
968.3909	2409.1918	5275.75	4380.4
968.521	2410.5789	5248.1	4355.5
968.651	2411.9652	5254.4	4357.85
968.781	2413.3508	5223.05	4329.45
968.911	2414.7358	5220.9	4326.15
969.041	2416.12	5180.05	4289.45
969.1709	2417.5035	5193	4301
969.3008	2418.8863	5168.95	4276.3
969.4307	2420.2684	5161.55	4269.75
969.5606	2421.6497	5110.3	4217.8
969.6904	2423.0304	5105.7	4214.35
969.8201	2424.4104	5101.4	4210.45
969.9499	2425.7896	5068	4174.7
970.0796	2427.1682	5055	4164.55
970.2093	2428.546	5029.8	4138.35
970.3389	2429.9232	5028.3	4133.45
970.4685	2431.2996	5020	4127.75
970.5981	2432.6753	4996.45	4104.5
970.7277	2434.0503	4991.95	4099.75
970.8572	2435.4246	4975.45	4081.75
970.9867	2436.7982	4967.2	4071.55
971.1161	2438.1711	4939.05	4046.65
971.2456	2439.5433	4929.1	4034.45
971.375	2440.9148	4918.5	4020.1
971.5043	2442.2856	4893.75	4000.55
971.6336	2443.6557	4888.7	3996.3
971.7629	2445.025	4880.45	3987
971.8922	2446.3937	4876.7	3985.05
972.0214	2447.7617	4861.85	3969.05
972.1506	2449.1289	4824.95	3930.9
972.2798	2450.4955	4816.7	3921.3
972.4089	2451.8613	4820.55	3928.3
972.538	2453.2265	4791.45	3898.25
972.6671	2454.5909	4783.3	3888.75
972.7961	2455.9546	4782.2	3890.45
972.9251	2457.3177	4768.3	3875.45
973.0541	2458.68	4761.15	3866
973.1831	2460.0416	4758.15	3864.95
973.312	2461.4025	4750.45	3856.8
973.4408	2462.7627	4734.8	3832.85
973.5697	2464.1222	4702.3	3812.5
973.6985	2465.4811	4696.85	3806.35
973.8273	2466.8392	4673.7	3783.7
973.956	2468.1966	4668.15	3773.85
974.0847	2469.5533	4667.55	3770.7
974.2134	2470.9093	4676	3784.85
974.3421	2472.2645	4648.35	3755.7
974.4707	2473.6191	4635.6	3743.6
974.5993	2474.973	4613.6	3721.05
974.7278	2476.3262	4585.05	3689.55
974.8563	2477.6787	4585.35	3692.65
974.9848	2479.0305	4552.1	3659.75
975.1132	2480.3816	4551.3	3656.25
975.2417	2481.7319	4531.5	3639.95
975.37	2483.0816	4531.6	3637.6
975.4984	2484.4306	4505.95	3612.45
975.6267	2485.7789	4484.95	3594.5
975.755	2487.1264	4472	3577.5
975.8833	2488.4733	4455.7	3564.45
976.0115	2489.8195	4458.9	3551.9
976.1397	2491.165	4431.1	3535.15
976.2678	2492.5097	4410.65	3519.9
976.3959	2493.8538	4395.35	3504.65
976.524	2495.1972	4372.45	3479.2
976.6521	2496.5398	4358.4	3463
976.7801	2497.8818	4365.3	3468.85
976.9081	2499.2231	4348	3455.3
977.036	2500.5637	4348.5	3451.1
977.164	2501.9035	4311.95	3417.3
977.2918	2503.2427	4306.25	3409.6
977.4197	2504.5812	4302.25	3409.2
977.5475	2505.919	4293.8	3399.9
977.6753	2507.256	4290.2	3397.1
977.8031	2508.5924	4278.9	3386.45
977.9308	2509.9281	4270.2	3371.85
978.0585	2511.2631	4241.35	3348.25
978.1861	2512.5974	4225.25	3334.35
978.3137	2513.9309	4213.75	3322.75
978.4413	2515.2638	4232.25	3311.65
978.5689	2516.596	4196.8	3302.95
978.6964	2517.9275	4164.1	3270.4
978.8239	2519.2583	4165.9	3271.5
978.9513	2520.5884	4146.05	3252.45
979.0788	2521.9178	4135.2	3242.35
979.2062	2523.2465	4140.2	3248
979.3335	2524.5745	4116.05	3223.95
979.4608	2525.9018	4099.05	3206.7
979.5881	2527.2284	4082.45	3192.75
979.7154	2528.5543	4088.1	3197.05
979.8426	2529.8796	4083.25	3191.05
979.9698	2531.2041	4056.7	3163.3
980.0969	2532.5279	4066.45	3175.4
980.224	2533.851	4054.3	3161.35
980.3511	2535.1735	4043.65	3151.2
980.4781	2536.4952	4030.55	3138.6
980.6052	2537.8163	4023.75	3129.95
980.7321	2539.1366	4005.75	3112.05
980.8591	2540.4562	3992.1	3099.25
980.986	2541.7752	3977.45	3084.65
981.1129	2543.0935	3982.15	3089.7
981.2397	2544.411	3970.95	3078.15
981.3665	2545.7279	3992.5	3099.7
981.4933	2547.0441	3967.75	3073.1
981.62	2548.3596	3965	3068.5
981.7467	2549.6744	3954.15	3059.75
981.8734	2550.9885	3944.6	3047.6
982.0001	2552.3019	3926.9	3034.4
982.1267	2553.6146	3916.2	3019.9
982.2532	2554.9266	3896.8	3003.4
982.3798	2556.2379	3892.15	2996.7
982.5063	2557.5485	3883.15	2991.5
982.6327	2558.8585	3880.75	2979.2
982.7592	2560.1677	3878.4	2981.45
982.8856	2561.4762	3862.65	2968.8
983.0119	2562.7841	3856.15	2958.8
983.1383	2564.0913	3858.25	2965.7
983.2646	2565.3977	3845.35	2952.5
983.3908	2566.7035	3838.45	2942.95
983.517	2568.0086	3818.75	2921.5
983.6432	2569.313	3821.9	2926.75
983.7694	2570.6167	3809.65	2910.75
983.8955	2571.9197	3802.4	2908
984.0216	2573.222	3788.5	2890.55
984.1476	2574.5236	3794.2	2900.6
984.2737	2575.8246	3770.2	2874.1
984.3996	2577.1248	3762.8	2865.65
984.5256	2578.4244	3765.1	2873
984.6515	2579.7232	3762.35	2870.15
984.7774	2581.0214	3779.7	2855
984.9032	2582.3189	3751.3	2859.05
985.029	2583.6157	3748.3	2849.75
985.1548	2584.9118	3756.6	2862.85
985.2806	2586.2072	3737.05	2845
985.4063	2587.5019	3706	2811.45
985.5319	2588.7959	3706.8	2811.9
985.6576	2590.0893	3705	2809.25
985.7832	2591.3819	3699.45	2807.6
985.9087	2592.6739	3687.55	2793.8
986.0343	2593.9652	3678.75	2782.2
986.1597	2595.2557	3665.15	2771.2
986.2852	2596.5456	3661.9	2766.1
986.4106	2597.8348	3657.4	2763.05
986.536	2599.1234	3654.25	2760.3
986.6614	2600.4112	3638.7	2743.9
986.7867	2601.6983	3630.75	2733.4
986.912	2602.9848	3638	2745.6
987.0372	2604.2705	3617.3	2716.05
987.1624	2605.5556	3603.2	2710
987.2876	2606.84	3591.8	2698.15
987.4128	2608.1237	3588.75	2693.5
987.5379	2609.4067	3578.6	2683.55
987.6629	2610.689	3565.55	2663.5
987.788	2611.9707	3557.55	2658.85
987.913	2613.2516	3558.5	2659.85
988.0379	2614.5319	3528.95	2634.5
988.1629	2615.8115	3514.55	2622.05
988.2878	2617.0903	3508	2613.5
988.4126	2618.3685	3496.25	2602.05
988.5375	2619.6461	3490.75	2599
988.6622	2620.9229	3480.7	2587.05
988.787	2622.199	3466.2	2572.45
988.9117	2623.4745	3464.8	2571.3
989.0364	2624.7493	3466.6	2573.5
989.161	2626.0234	3447.45	2556.25
989.2857	2627.2968	3431	2537.95
989.4102	2628.5695	3431.65	2538.65
989.5348	2629.8415	3419.35	2527.65
989.6593	2631.1128	3391	2496
989.7837	2632.3835	3389.85	2496.1
989.9082	2633.6535	3382.55	2489.95
990.0326	2634.9228	3380.65	2490.3
990.1569	2636.1914	3368.7	2474.25
990.2812	2637.4593	3348	2446.45
990.4055	2638.7265	3354.3	2458.65
990.5298	2639.9931	3346.75	2451.5
990.654	2641.259	3343.7	2449.35
990.7782	2642.5242	3331.15	2436.2
990.9023	2643.7887	3306.9	2412.7
991.0264	2645.0525	3315.4	2422.45
991.1505	2646.3156	3316.2	2410.3
991.2745	2647.5781	3295.1	2402.6
991.3985	2648.8398	3279.2	2387
991.5225	2650.1009	3265.6	2366.45
991.6464	2651.3613	3270.75	2380.6
991.7703	2652.6211	3254.95	2360.9
991.8942	2653.8801	3252.05	2360.9
992.018	2655.1385	3246.35	2350.9
992.1418	2656.3961	3231.2	2338.65
992.2655	2657.6531	3237.2	2343.75
992.3892	2658.9094	3219.5	2325.35
992.5129	2660.1651	3213.35	2322.3
992.6366	2661.42	3211.65	2318.55
992.7602	2662.6743	3223.4	2329.15
992.8837	2663.9279	3221.5	2330.45
993.0073	2665.1808	3200.35	2309.4
993.1307	2666.433	3201.25	2306.75
993.2542	2667.6846	3189.65	2297.8
993.3776	2668.9354	3181.9	2285.9
993.501	2670.1856	3184.35	2290.1
993.6244	2671.4351	3188.15	2297.05
993.7477	2672.6839	3177.25	2284.9
993.8709	2673.9321	3175.6	2283.45
993.9942	2675.1795	3168.15	2276.6
994.1174	2676.4263	3155.2	2261.65
994.2405	2677.6724	3148.7	2258.5
994.3637	2678.9179	3147.4	2254.95
994.4868	2680.1626	3133.2	2243.15
994.6098	2681.4067	3128.35	2236
994.7328	2682.6501	3123.35	2230.7
994.8558	2683.8928	3120.2	2227.35
994.9788	2685.1348	3102.2	2211.75
995.1017	2686.3761	3086.2	2194.4
995.2245	2687.6168	3082.35	2189.55
995.3474	2688.8568	3084.15	2191.7
995.4702	2690.0961	3065	2175.2
995.5929	2691.3348	3064.65	2171.8
995.7156	2692.5727	3045.5	2150.75
995.8383	2693.81	3036.65	2144.55
995.961	2695.0466	3032.8	2142.3
996.0836	2696.2826	3027.7	2134.35
996.2062	2697.5178	3030.65	2134.05
996.3287	2698.7524	3007.7	2116.85
996.4512	2699.9863	3013	2118.2
996.5737	2701.2195	3012.85	2123.5
996.6961	2702.452	2999.7	2105.7
996.8185	2703.6839	3008.55	2115.9
996.9408	2704.9151	2994.9	2105.45
997.0631	2706.1456	2990.2	2099.25
997.1854	2707.3755	2998.8	2105.8
997.3077	2708.6046	2996.55	2100.95
997.4299	2709.8331	2990	2098.15
997.552	2711.0609	2997	2104.35
997.6742	2712.2881	2996.3	2103.65
997.7963	2713.5145	3013.1	2118.4
997.9183	2714.7403	2988.45	2098.15
998.0403	2715.9654	3009.3	2117.15
998.1623	2717.1899	3014.95	2108.25
998.2842	2718.4136	3010.45	2120.2
998.4062	2719.6367	3018.9	2125.6
998.528	2720.8591	3012.75	2113.5
998.6498	2722.0809	3020.3	2129.15
998.7716	2723.3019	3026.9	2133.7
998.8934	2724.5223	3020.3	2128.8
999.0151	2725.7421	3022.4	2130.75
999.1368	2726.9611	3010.25	2116
999.2584	2728.1795	3005.55	2109.5
999.38	2729.3972	2983.9	2092.65
999.5016	2730.6142	2980.1	2082.05
999.6231	2731.8306	2958.45	2064.75
999.7446	2733.0462	2932.55	2042.45
999.8661	2734.2612	2914.65	2019.2
999.9875	2735.4756	2892.7	2000.4
1000.1089	2736.6892	2870.65	1978.75
1000.2302	2737.9022	2853.7	1965.45
1000.3515	2739.1145	2827.15	1938.55
1000.4728	2740.3262	2823.45	1924.85
1000.594	2741.5372	2795.9	1907.7
1000.7152	2742.7475	2783.25	1892.9
1000.8363	2743.9571	2769.95	1877.15
1000.9575	2745.1661	2764.7	1869.15
1001.0785	2746.3744	2747	1856.2
1001.1996	2747.582	2734.2	1843.05
1001.3206	2748.7889	2726.75	1833.9
1001.4415	2749.9952	2711.55	1820.8
1001.5625	2751.2008	2693.3	1802.15
1001.6833	2752.4057	2682.75	1791.1
1001.8042	2753.61	2680.95	1790.6
1001.925	2754.8136	2668.05	1773.75
1002.0458	2756.0165	2668.8	1777.9
1002.1665	2757.2188	2649.5	1757.8
1002.2872	2758.4204	2651.75	1759.75
1002.4078	2759.6213	2636.4	1744.95
1002.5285	2760.8215	2641.8	1748.3
1002.649	2762.0211	2645.25	1753.05
1002.7696	2763.22	2639.5	1745.9
1002.8901	2764.4182	2621.9	1730.7
1003.0106	2765.6158	2608.55	1719.6
1003.131	2766.8127	2609.95	1721.1
1003.2514	2768.009	2597.95	1710.95
1003.3717	2769.2045	2601.35	1710.55
1003.492	2770.3994	2590.45	1699.15
1003.6123	2771.5936	2581.35	1690.25
1003.7325	2772.7872	2553.2	1662.95
1003.8527	2773.9801	2558	1666.65
1003.9729	2775.1723	2565.2	1660.15
1004.093	2776.3639	2559.3	1669.95
1004.2131	2777.5548	2537.5	1644.75
1004.3331	2778.745	2541.85	1650.4
1004.4531	2779.9346	2552.1	1661.65
1004.5731	2781.1235	2535.9	1644.15
1004.693	2782.3117	2532.3	1644.4
1004.8129	2783.4992	2537.7	1649
1004.9328	2784.6861	2528.6	1639.75
1005.0526	2785.8723	2525	1634.4
1005.1723	2787.0579	2541.45	1651.9
1005.2921	2788.2428	2535.15	1646.05
1005.4118	2789.427	2544.3	1654.8
1005.5314	2790.6106	2534.1	1643
1005.651	2791.7935	2545.4	1653.25
1005.7706	2792.9757	2542.1	1652.9
1005.8902	2794.1573	2547.45	1655.5
1006.0097	2795.3382	2559.9	1671
1006.1291	2796.5184	2558.6	1671.2
1006.2485	2797.698	2589.1	1698.7
1006.3679	2798.8769	2593.9	1704.3
1006.4873	2800.0551	2603.95	1713.6
1006.6066	2801.2327	2614.05	1721.6
1006.7258	2802.4096	2625.45	1735.5
1006.8451	2803.5859	2642.85	1752.45
1006.9642	2804.7615	2653.7	1762.8
1007.0834	2805.9364	2667.45	1780.35
1007.2025	2807.1106	2690.05	1801.5
1007.3216	2808.2842	2721.65	1832.6
1007.4406	2809.4572	2756.9	1867.75
1007.5596	2810.6294	2775.9	1884.45
1007.6785	2811.801	2814.15	1925.5
1007.7975	2812.972	2844.55	1956.05
1007.9163	2814.1423	2883.45	1994.95
1008.0352	2815.3119	2924.85	2036.35
1008.154	2816.4808	2959.8	2071.7
1008.2727	2817.6491	3012.75	2122.55
1008.3914	2818.8167	3049.65	2162.9
1008.5101	2819.9837	3080.45	2185.6
1008.6288	2821.15	3123.75	2237.05
1008.7474	2822.3157	3168.45	2281.8
1008.8659	2823.4807	3200.5	2312.3
1008.9844	2824.645	3255.8	2366.55
1009.1029	2825.8086	3279.55	2391.6
1009.2214	2826.9716	3316.35	2430.3
1009.3398	2828.134	3354.9	2468.05
1009.4581	2829.2957	3394.5	2505.25
1009.5764	2830.4567	3414.5	2528.2
1009.6947	2831.617	3425.55	2538.55
1009.813	2832.7767	3436	2549.9
1009.9312	2833.9358	3432.45	2543.75
1010.0493	2835.0941	3433.5	2544.8
1010.1675	2836.2519	3432.55	2544.6
1010.2855	2837.4089	3400.5	2513.15
1010.4036	2838.5653	3389.95	2503.25
1010.5216	2839.7211	3377	2490.4
1010.6396	2840.8761	3388.85	2498.15
1010.7575	2842.0306	3404.05	2517.3
1010.8754	2843.1843	3440.9	2554.6
1010.9932	2844.3374	3487.35	2600.1
1011.111	2845.4899	3533.7	2645.5
1011.2288	2846.6417	3589.7	2700.25
1011.3465	2847.7928	3676.1	2788.45
1011.4642	2848.9433	3724.15	2837.6
1011.5818	2850.0931	3809.5	2923.8
1011.6995	2851.2422	3880.55	2990.85
1011.817	2852.3907	3960.05	3072.65
1011.9345	2853.5385	4009.55	3118.9
1012.052	2854.6857	4069	3172.4
1012.1695	2855.8323	4115.9	3228.4
1012.2869	2856.9781	4158.65	3271.4
1012.4042	2858.1233	4199.5	3310.35
1012.5216	2859.2679	4238	3351.75
1012.6389	2860.4118	4271	3382.8
1012.7561	2861.555	4304.75	3410.55
1012.8733	2862.6976	4347.55	3455.25
1012.9905	2863.8395	4366	3481
1013.1076	2864.9808	4384.85	3496.65
1013.2247	2866.1214	4407.4	3521.5
1013.3417	2867.2614	4412.7	3522.65
1013.4587	2868.4007	4416.05	3526.9
1013.5757	2869.5393	4436.5	3546.25
1013.6926	2870.6773	4434.65	3545
1013.8095	2871.8146	4436.95	3545.4
1013.9263	2872.9513	4438.8	3547.4
1014.0431	2874.0874	4428.2	3539.75
1014.1599	2875.2227	4421.45	3533.5
1014.2766	2876.3574	4399.7	3513.3
1014.3933	2877.4915	4368.75	3482.5
1014.51	2878.6249	4338.5	3451
1014.6266	2879.7577	4326.45	3438.9
1014.7431	2880.8898	4296.85	3398.3
1014.8596	2882.0212	4267.1	3378.55
1014.9761	2883.152	4263.65	3375.2
1015.0925	2884.2821	4233.75	3348.65
1015.2089	2885.4116	4222	3335.6
1015.3253	2886.5405	4241.45	3355.55
1015.4416	2887.6686	4238.6	3349.15
1015.5579	2888.7962	4242.2	3356.4
1015.6741	2889.923	4257.8	3371.35
1015.7903	2891.0493	4260.5	3373.25
1015.9065	2892.1748	4262.05	3376.1
1016.0226	2893.2997	4262.75	3374.7
1016.1387	2894.424	4271.2	3386.35
1016.2547	2895.5476	4288.95	3402.15
1016.3707	2896.6706	4298.5	3415.05
1016.4866	2897.7929	4324.35	3437.9
1016.6025	2898.9145	4332.15	3446.1
1016.7184	2900.0355	4351.5	3465.85
1016.8342	2901.1559	4401.1	3513.4
1016.95	2902.2756	4437.5	3552.6
1017.0658	2903.3946	4454.4	3571.05
1017.1815	2904.513	4484.9	3595.1
1017.2971	2905.6308	4502.75	3619.3
1017.4127	2906.7479	4509.6	3621.65
1017.5283	2907.8643	4532.05	3644.65
1017.6439	2908.9801	4547.5	3662.1
1017.7594	2910.0953	4541.9	3655.9
1017.8748	2911.2098	4540.15	3651.75
1017.9902	2912.3236	4557.25	3662.6
1018.1056	2913.4368	4529.45	3640.2
1018.2209	2914.5494	4496.55	3612.1
1018.3362	2915.6613	4481.15	3589.15
1018.4515	2916.7725	4444.3	3554.2
1018.5667	2917.8831	4427.1	3538.85
1018.6819	2918.9931	4377	3486.45
1018.797	2920.1024	4348.75	3460.9
1018.9121	2921.211	4346.8	3461.9
1019.0271	2922.319	4307.55	3419.4
1019.1421	2923.4264	4303.55	3416.6
1019.2571	2924.5331	4284.25	3399.35
1019.372	2925.6391	4250.35	3363.4
1019.4869	2926.7445	4231.8	3346.8
1019.6017	2927.8493	4245.8	3358.6
1019.7165	2928.9534	4212.35	3326.95
1019.8313	2930.0569	4207.9	3318.75
1019.946	2931.1597	4199.5	3311.55
1020.0606	2932.2619	4200.1	3315.6
1020.1753	2933.3634	4193.2	3306.8
1020.2899	2934.4643	4175.55	3282.65
1020.4044	2935.5645	4152.75	3262.95
1020.5189	2936.6641	4121.55	3232.15
1020.6334	2937.763	4083.45	3198.5
1020.7478	2938.8613	4035.8	3150.15
1020.8622	2939.959	3978.55	3089.2
1020.9765	2941.056	3898.45	3013.7
1021.0908	2942.1523	3827.3	2938.75
1021.2051	2943.248	3743.15	2857
1021.3193	2944.3431	3655.3	2771
1021.4334	2945.4375	3550.15	2665.1
1021.5476	2946.5313	3438.45	2554.6
1021.6617	2947.6244	3345.45	2459.15
1021.7757	2948.7169	3246.25	2360.25
1021.8897	2949.8087	3149.15	2263.85
1022.0037	2950.8999	3055.45	2170.3
1022.1176	2951.9904	2979.4	2094
1022.2315	2953.0803	2919.05	2032.15
1022.3453	2954.1696	2843.8	1956.35
1022.4591	2955.2582	2789.1	1905.05
1022.5728	2956.3462	2739.9	1853.9
1022.6865	2957.4335	2705	1819.6
1022.8002	2958.5202	2667.25	1780.1
1022.9138	2959.6062	2642.55	1756.2
1023.0274	2960.6916	2605.1	1719.7
1023.141	2961.7764	2585.3	1699.75
1023.2545	2962.8605	2555.6	1669.65
1023.3679	2963.9439	2558.3	1673.65
1023.4813	2965.0267	2542.65	1657.25
1023.5947	2966.1089	2554.65	1648.7
1023.708	2967.1905	2522.5	1635.65
1023.8213	2968.2714	2519.55	1633.5
1023.9346	2969.3516	2505.7	1621.65
1024.0478	2970.4312	2515.9	1621.95
1024.1609	2971.5102	2503.9	1618.9
1024.274	2972.5885	2491.15	1606.6
1024.3871	2973.6662	2511.35	1620.8
1024.5002	2974.7432	2490.55	1605.85
1024.6132	2975.8196	2495.4	1609.1
1024.7261	2976.8954	2479.45	1595.45
1024.839	2977.9705	2451.3	1566.15
1024.9519	2979.045	2449	1564.75
1025.0647	2980.1188	2436.35	1551.75
1025.1775	2981.192	2412.2	1527.7
1025.2902	2982.2645	2403.7	1520.4
1025.4029	2983.3364	2373.3	1487.6
1025.5156	2984.4077	2340.9	1457.25
1025.6282	2985.4783	2313.5	1424.2
1025.7407	2986.5483	2268.85	1386.05
1025.8532	2987.6177	2235	1351.9
1025.9657	2988.6864	2202.95	1319.15
1026.0782	2989.7545	2165.7	1279.75
1026.1906	2990.8219	2137.25	1252.05
1026.3029	2991.8887	2103.95	1216.25
1026.4152	2992.9548	2072.7	1185.85
1026.5275	2994.0204	2038.5	1153.8
1026.6397	2995.0852	2013.35	1128.15
1026.7519	2996.1495	1995.15	1109.35
1026.864	2997.2131	1955.85	1070.7
1026.9761	2998.276	1935.15	1050.3
1027.0882	2999.3383	1915.9	1031.35
1027.2002	3000.4	1895.15	1009.35
1027.3122	3001.4611	1889.9	1005.25
1027.4241	3002.5215	1858.8	975.55
1027.536	3003.5812	1846.05	961.1
1027.6478	3004.6404	1837.05	952.95
1027.7596	3005.6989	1829.15	943.6
1027.8714	3006.7567	1815	930.1
1027.9831	3007.8139	1828.45	923.7
1028.0947	3008.8705	1795.85	911.15
1028.2064	3009.9264	1801.9	899.65
1028.3179	3010.9818	1784.05	899.2
1028.4295	3012.0364	1782.8	898.75
1028.541	3013.0905	1773.95	889.3
1028.6524	3014.1439	1769	882.75
1028.7638	3015.1966	1773.3	888
1028.8752	3016.2487	1762.35	878.2
1028.9865	3017.3002	1766.5	873.7
1029.0978	3018.3511	1760.8	876.85
1029.209	3019.4013	1760.9	875.2
1029.3202	3020.4509	1752.85	868.65
1029.4314	3021.4998	1752.8	868.35
1029.5425	3022.5481	1757.1	873.15
1029.6535	3023.5958	1749.05	864
1029.7645	3024.6428	1743.35	859.6
1029.8755	3025.6892	1750.95	867.15
1029.9864	3026.735	1749.45	865.95
1030.0973	3027.7802	1749.35	863.15
1030.2082	3028.8247	1754.2	870.2
1030.319	3029.8685	1749.4	864.95
1030.4297	3030.9118	1753.5	868.95
1030.5404	3031.9544	1758.25	874.4
1030.6511	3032.9963	1758.2	874.4
1030.7617	3034.0376	1753.35	866.05
1030.8723	3035.0783	1761.55	876.25
1030.9829	3036.1184	1759.25	876.5
1031.0934	3037.1578	1769.35	887.85
1031.2038	3038.1966	1764.4	879.2
1031.3142	3039.2348	1755.15	871.25
1031.4246	3040.2723	1780.4	888.4
1031.5349	3041.3092	1760.05	875.6
1031.6452	3042.3455	1757.6	873.65
1031.7554	3043.3811	1748.75	864
1031.8656	3044.4161	1746.25	862.05
1031.9758	3045.4505	1735.35	852.5
1032.0859	3046.4842	1733.8	850.45
1032.1959	3047.5173	1716.75	833.75
1032.3059	3048.5498	1717.15	832.95
1032.4159	3049.5816	1708.2	823.4
1032.5258	3050.6128	1716.55	832.3
1032.6357	3051.6434	1705.95	821.4
1032.7455	3052.6734	1686.1	800.6
1032.8553	3053.7027	1679.9	798.1
1032.9651	3054.7314	1673.05	789.2
1033.0748	3055.7594	1664.9	783.1
1033.1845	3056.7868	1666.85	781.5
1033.2941	3057.8136	1648.2	764.75
1033.4037	3058.8398	1644.3	761.15
1033.5132	3059.8653	1635.65	752.6
1033.6227	3060.8902	1636.1	753.35
1033.7321	3061.9145	1627	741.8
1033.8415	3062.9381	1623.9	738.5
1033.9509	3063.9612	1628	729.4
1034.0602	3064.9835	1606.55	724.45
1034.1694	3066.0053	1591.3	707.05
1034.2787	3067.0264	1593.65	710.3
1034.3878	3068.0469	1589.9	706.15
1034.497	3069.0668	1566.55	679.3
1034.6061	3070.086	1566.25	683.95
1034.7151	3071.1046	1553.6	668.6
1034.8241	3072.1226	1545.35	661.1
1034.9331	3073.1399	1535.95	652.5
1035.042	3074.1567	1528.3	643.7
1035.1508	3075.1727	1519.45	633.65
1035.2597	3076.1882	1504.9	621.6
1035.3684	3077.203	1491.8	608.55
1035.4772	3078.2173	1491.05	606.3
1035.5859	3079.2308	1475.5	591.1
1035.6945	3080.2438	1470.65	586.3
1035.8031	3081.2561	1461.55	577.6
1035.9117	3082.2678	1447.8	565.4
1036.0202	3083.2789	1447.4	564.15
1036.1286	3084.2893	1430.45	546.5
1036.2371	3085.2991	1430.2	546
1036.3454	3086.3083	1425.8	537.45
1036.4538	3087.3169	1417.05	531.55
1036.562	3088.3248	1422.15	538.1
1036.6703	3089.3321	1405.9	522.25
1036.7785	3090.3388	1402.2	520.55
1036.8866	3091.3449	1390.8	506.9
1036.9948	3092.3503	1391.15	505.4
1037.1028	3093.3551	1383.7	502.05
1037.2108	3094.3593	1384.9	502.85
1037.3188	3095.3629	1376.3	495.15
1037.4267	3096.3658	1373.25	488.35
1037.5346	3097.3681	1364.5	480.95
1037.6425	3098.3698	1362.35	478.5
1037.7503	3099.3708	1362.25	474.1
1037.858	3100.3713	1350.45	468
1037.9657	3101.3711	1352.25	466.6
1038.0734	3102.3702	1473.45	459.3
1038.181	3103.3688	1347.35	461.7
1038.2886	3104.3667	1340.35	459.25
1038.3961	3105.364	1332.2	450.3
1038.5036	3106.3607	1328	443.5
1038.611	3107.3568	1330.75	445.6
1038.7184	3108.3522	1325.45	444.45
1038.8257	3109.347	1326.1	442.2
1038.933	3110.3412	1327.25	439.7
1039.0403	3111.3348	1313.2	427.2
1039.1475	3112.3277	1313.85	430.75
1039.2547	3113.32	1314.1	432.85
1039.3618	3114.3117	1307.15	423.65
1039.4689	3115.3028	1303.35	421.6
1039.5759	3116.2932	1303.2	416.9
1039.6829	3117.2831	1308.9	419.65
1039.7898	3118.2723	1298.6	418.6
1039.8967	3119.2608	1296.4	412.05
1040.0035	3120.2488	1288.25	404.15
1040.1103	3121.2361	1290.4	406.1
1040.2171	3122.2229	1289.25	406
1040.3238	3123.209	1281.75	398.4
1040.4305	3124.1944	1280.5	397.35
1040.5371	3125.1793	1278.45	392.5
1040.6437	3126.1635	1277.3	396.4
1040.7502	3127.1471	1269.9	388.3
1040.8567	3128.1301	1271.5	392.6
1040.9631	3129.1125	1265.15	382.95
1041.0695	3130.0942	1268.65	386.75
1041.1759	3131.0753	1279.95	387.1
1041.2822	3132.0558	1260.75	374.9
1041.3884	3133.0357	1264.3	380.3
1041.4946	3134.015	1259.35	375.55
1041.6008	3134.9936	1256.95	373.15
1041.7069	3135.9716	1270.8	368.7
1041.813	3136.949	1246.35	362.45
1041.919	3137.9258	1271	371.85
1042.025	3138.902	1255.55	369
1042.1309	3139.8775	1244.75	364.05
1042.2368	3140.8524	1240.95	356.8
1042.3427	3141.8267	1241.9	357.7
1042.4485	3142.8004	1245.1	362.2
1042.5542	3143.7735	1245.35	357.35
1042.6599	3144.7459	1240.65	356.3
1042.7656	3145.7178	1233.1	351.15
1042.8712	3146.689	1232.25	350.8
1042.9768	3147.6596	1235.2	352.35
1043.0823	3148.6295	1232.45	350
1043.1878	3149.5989	1223	338
1043.2932	3150.5676	1224.85	344.4
1043.3986	3151.5357	1217.15	334.8
1043.5039	3152.5032	1222.25	340.6
1043.6092	3153.4701	1216.65	333.25
1043.7145	3154.4364	1221.75	336.55
1043.8197	3155.402	1216.3	335.25
1043.9248	3156.367	1216.05	333.35
1044.03	3157.3315	1245.55	318
1044.135	3158.2952	1207.1	324.55
1044.24	3159.2584	1201.45	320.1
1044.345	3160.221	1204.25	322.45
1044.4499	3161.1829	1201.65	319
1044.5548	3162.1442	1205	324.3
1044.6596	3163.105	1195.15	314.05
1044.7644	3164.065	1196.1	313.95
1044.8692	3165.0245	1194.6	308.1
1044.9739	3165.9834	1192.3	309
1045.0785	3166.9416	1190.9	308.65
1045.1831	3167.8993	1190.1	306.25
1045.2877	3168.8563	1179.4	297.05
1045.3922	3169.8127	1180.55	299.8
1045.4966	3170.7684	1183.4	302.4
1045.6011	3171.7236	1179.2	296.05
1045.7054	3172.6782	1178	297.05
1045.8098	3173.6321	1182.05	299.9
1045.914	3174.5854	1177.85	291.8
1046.0183	3175.5381	1173.2	291.25
1046.1224	3176.4902	1173.9	291.9
1046.2266	3177.4417	1166.4	285.6
1046.3307	3178.3926	1173.8	289.7
1046.4347	3179.3428	1170	289.7
1046.5387	3180.2924	1168.85	287.4
1046.6427	3181.2415	1164.6	283.65
1046.7466	3182.1899	1166.55	282.85
1046.8504	3183.1377	1160.45	277.9
1046.9542	3184.0848	1164.65	279.9
1047.058	3185.0314	1156.65	273.85
1047.1617	3185.9773	1154.6	273.4
1047.2654	3186.9227	1157.05	271.1
1047.369	3187.8674	1155.5	273.6
1047.4726	3188.8115	1156.05	269.65
1047.5761	3189.755	1154.5	273.5
1047.6796	3190.6979	1153.65	271.15
1047.783	3191.6402	1147.55	266.4
1047.8864	3192.5818	1148.65	266.85
1047.9898	3193.5229	1154.05	266.75
1048.0931	3194.4633	1145.85	265.4
1048.1963	3195.4031	1144.7	262.1
1048.2995	3196.3423	1136.35	255.05
1048.4027	3197.2809	1138.2	255.2
1048.5058	3198.2189	1136.35	255
1048.6089	3199.1563	1149.9	260.6
1048.7119	3200.0931	1135.75	256.2
1048.8148	3201.0292	1132	249.95
1048.9178	3201.9648	1134.55	254.1
1049.0206	3202.8997	1134.8	250.1
1049.1235	3203.834	1128.55	245.85
1049.2262	3204.7677	1129.75	246.5
1049.329	3205.7008	1129.6	246
1049.4317	3206.6333	1123.65	243.1
1049.5343	3207.5652	1126.25	244.25
1049.6369	3208.4964	1121.9	241.95
1049.7394	3209.4271	1120.05	238.8
1049.8419	3210.3571	1121.85	240.8
1049.9444	3211.2865	1120.65	236
1050.0468	3212.2154	1121.8	240.7
1050.1491	3213.1436	1123.3	238.6
1050.2514	3214.0712	1124.9	236.95
1050.3537	3214.9982	1115.65	233.75
1050.4559	3215.9246	1112.6	232.05
1050.5581	3216.8503	1109.5	228.55
1050.6602	3217.7755	1112.5	230.45
1050.7623	3218.7001	1108.6	225.45
1050.8643	3219.624	1111.25	228.15
1050.9663	3220.5473	1108.45	226.7
1051.0682	3221.4701	1106.45	221.9
1051.1701	3222.3922	1108.55	226.75
1051.2719	3223.3137	1105.95	224.85
1051.3737	3224.2346	1103.35	223
1051.4754	3225.1549	1102.4	221.3
1051.5771	3226.0746	1101.85	219.7
1051.6788	3226.9937	1102.2	220.05
1051.7804	3227.9121	1092.95	211.55
1051.8819	3228.83	1102	222.8
1051.9834	3229.7473	1097.8	216.75
1052.0849	3230.6639	1100.65	219.7
1052.1863	3231.5799	1094.1	213.5
1052.2876	3232.4954	1094.3	210.95
1052.3889	3233.4102	1087.9	206.55
1052.4902	3234.3244	1093.45	211.65
1052.5914	3235.238	1091.2	210.95
1052.6926	3236.151	1115.85	210.4
1052.7937	3237.0634	1083.75	201.8
1052.8948	3237.9752	1086.95	206.85
1052.9958	3238.8864	1085.05	203.3
1053.0968	3239.797	1086.05	206.9
1053.1977	3240.7069	1085.9	202.2
1053.2986	3241.6163	1087.3	204.8
1053.3994	3242.5251	1077.35	194.55
1053.5002	3243.4332	1078.85	198.4
1053.6009	3244.3408	1076.05	194.05
1053.7016	3245.2477	1077.35	197.5
1053.8022	3246.154	1076.95	195.2
1053.9028	3247.0598	1075.25	194.05
1054.0034	3247.9649	1071.95	191.45
1054.1039	3248.8694	1073.15	190.55
1054.2043	3249.7733	1069.8	189.6
1054.3047	3250.6766	1064.4	183.6
1054.4051	3251.5793	1069.35	185.65
1054.5054	3252.4814	1066.1	186.05
1054.6056	3253.3829	1061.75	182.75
1054.7058	3254.2838	1068.2	189.15
1054.806	3255.1841	1062.45	182.7
1054.9061	3256.0838	1061	179.7
1055.0061	3256.9829	1054.2	173.35
1055.1062	3257.8814	1057.3	173.75
1055.2061	3258.7792	1056.5	173.6
1055.306	3259.6765	1060.9	178.3
1055.4059	3260.5731	1051.85	170.65
1055.5057	3261.4692	1049.95	168
1055.6055	3262.3647	1046.2	163.45
1055.7052	3263.2595	1040	158.45
1055.8049	3264.1538	1040	159.1
1055.9045	3265.0474	1040.75	160.05
1056.0041	3265.9404	1038.6	159
1056.1036	3266.8329	1034	155.4
1056.2031	3267.7247	1043.5	153.75
1056.3025	3268.616	1031.85	152.45
1056.4019	3269.5066	1025.35	144.05
1056.5013	3270.3966	1020.35	135.8
1056.6005	3271.286	1017.25	137.4
