Software Version:	3.9.2.0
Unit SN:	10000200
Spectrometer SN:	6960
Date:	3/26/2024 2:35:42 PM
Data Line Index:	25
Spectral Points:	2048
Integration time (ms):	125
Averages:	20
Delay (ms):	30000
Sequence Number:	1
Processing:	dark subtract
Laser Power (mW):	300
Laser Current (mA):	820
Laser Diode Temp (C):	25
Laser Case Temp (C):	27.8
System Temp (C):	27.9
Spectrometer Temp (C):	25.8
CCD Temp (C):	0.005
Secondary Temp (C):	20.01
Heatsink Temp (C):	23.453
CCDPCB Temp (C):	37.485
SecondaryPCB Temp (C):	34.584

Wavelength	RamanShift	Raw Counts	Dark Subtracted
787.061	30.1047	653	243.45
787.2016	32.3739	666.7	258.5
787.3422	34.6426	686.4	276.2
787.4828	36.9109	700.8	288.9
787.6235	39.1787	725.35	307.6
787.7642	41.4461	751.15	330.15
787.9049	43.7131	770	346.9
788.0456	45.9796	804.45	378.9
788.1863	48.2456	827.95	395.35
788.3271	50.5112	854.95	419.45
788.4679	52.7764	882.9	444.55
788.6087	55.0411	907.9	466.45
788.7496	57.3054	950.1	504.05
788.8904	59.5692	981	533.5
789.0313	61.8326	1025.55	571.55
789.1722	64.0955	1058.8	601.55
789.3132	66.3579	1109.05	646.35
789.4541	68.6199	1171.95	708.9
789.5951	70.8815	1283.7	815.75
789.7361	73.1426	1498.7	1027.05
789.8771	75.4032	2025.95	1550
790.0181	77.6634	3357.55	2875.75
790.1592	79.9231	6730.9	6238
790.3003	82.1824	14479.8	13974.1
790.4414	84.4412	33373.7	32843.4
790.5825	86.6995	61427.05	60854.95
790.7237	88.9574	65535	64930.5
790.8648	91.2148	65535	64909.15
791.006	93.4717	65535	64891.95
791.1472	95.7282	65535	64882.75
791.2885	97.9842	65535	64873.75
791.4297	100.2398	65535	64874.85
791.571	102.4949	65535	64870.1
791.7123	104.7495	65535	64866.05
791.8536	107.0036	65535	64866.8
791.9949	109.2573	65535	64871.75
792.1363	111.5105	65535	64866.35
792.2777	113.7632	65535	64863.9
792.4191	116.0154	65535	64853.2
792.5605	118.2672	65535	64858.85
792.7019	120.5185	65535	64856.65
792.8434	122.7693	65535	64856
792.9849	125.0197	65535	64852.95
793.1264	127.2696	65535	64853.15
793.2679	129.519	65535	64844.7
793.4094	131.7679	65535	64844.65
793.551	134.0163	65535	64841
793.6926	136.2642	65535	64833.35
793.8342	138.5117	65535	64827.55
793.9758	140.7587	65535	64832.65
794.1175	143.0052	65535	64830.95
794.2591	145.2512	65535	64832.75
794.4008	147.4967	65535	64830.35
794.5425	149.7417	65535	64825.8
794.6842	151.9863	65535	64825.6
794.826	154.2304	65535	64816.5
794.9677	156.4739	65535	64810.9
795.1095	158.717	65535	64818.6
795.2513	160.9596	65535	64811.75
795.3931	163.2017	65535	64806.1
795.535	165.4433	65535	64809.35
795.6768	167.6844	65535	64804.45
795.8187	169.925	65535	64800.7
795.9606	172.1651	65535	64800.05
796.1025	174.4047	65535	64797.25
796.2445	176.6439	65535	64798.2
796.3864	178.8825	65535	64793.65
796.5284	181.1206	65535	64789.1
796.6704	183.3582	65535	64785.55
796.8124	185.5954	65535	64785.25
796.9544	187.832	65535	64777.8
797.0965	190.0681	65535	64778.2
797.2386	192.3037	65535	64775.25
797.3806	194.5388	65535	64772.5
797.5228	196.7734	65535	64770.2
797.6649	199.0075	65535	64765.05
797.807	201.2411	65535	64762.35
797.9492	203.4742	65535	64759.35
798.0914	205.7068	65535	64760.9
798.2336	207.9389	65535	64761.35
798.3758	210.1704	65535	64755.2
798.518	212.4015	65535	64756.85
798.6603	214.632	65535	64760.25
798.8025	216.862	65535	64768.3
798.9448	219.0915	65535	64778.2
799.0871	221.3205	65535	64776.55
799.2294	223.549	65535	64779.45
799.3718	225.777	65535	64779.95
799.5141	228.0044	65535	64777.85
799.6565	230.2314	65535	64781.25
799.7989	232.4578	65535	64781.25
799.9413	234.6837	65535	64767.65
800.0837	236.909	65535	64767.55
800.2262	239.1339	65535	64744
800.3687	241.3582	65535	64756.5
800.5111	243.582	65535	64725.6
800.6536	245.8053	65535	64735.15
800.7961	248.0281	65535	64747.45
800.9387	250.2503	65535	64738.6
801.0812	252.472	65535	64733.8
801.2238	254.6932	65535	64729.95
801.3664	256.9139	65535	64730.9
801.509	259.134	65535	64729.9
801.6516	261.3536	65535	64730.45
801.7942	263.5727	65535	64725.75
801.9369	265.7912	65535	64731.6
802.0795	268.0092	65535	64727.05
802.2222	270.2267	65535	64729
802.3649	272.4436	65535	64729.8
802.5076	274.6601	65535	64720.4
802.6504	276.8759	65535	64724.95
802.7931	279.0913	65535	64719.4
802.9359	281.3061	65535	64719.15
803.0787	283.5204	65535	64719
803.2215	285.7341	65535	64717.75
803.3643	287.9473	65535	64706.6
803.5071	290.16	65535	64708.75
803.6499	292.3721	65535	64715.4
803.7928	294.5837	65535	64716.45
803.9357	296.7947	65535	64714.9
804.0786	299.0052	65535	64713.9
804.2215	301.2152	65535	64707.7
804.3644	303.4246	65535	64715.7
804.5074	305.6334	65535	64718.7
804.6503	307.8418	65535	64714
804.7933	310.0495	65535	64712.8
804.9363	312.2568	65535	64715.3
805.0793	314.4635	65535	64709.35
805.2223	316.6696	65535	64704.75
805.3653	318.8752	65535	64696.1
805.5084	321.0802	65535	64707.6
805.6514	323.2847	65535	64702.05
805.7945	325.4887	65535	64704.65
805.9376	327.692	65535	64704.25
806.0807	329.8949	65535	64702.55
806.2238	332.0972	65535	64701.55
806.367	334.2989	65535	64697.4
806.5101	336.5001	65535	64698.6
806.6533	338.7007	65535	64698.85
806.7965	340.9008	65535	64698.15
806.9397	343.1003	65535	64693.15
807.0829	345.2992	65535	64696
807.2261	347.4976	65535	64694.1
807.3693	349.6955	65535	64692.4
807.5126	351.8927	65535	64686.5
807.6559	354.0895	65535	64679.75
807.7991	356.2856	65535	64684.25
807.9424	358.4812	65535	64687.6
808.0857	360.6763	65535	64688.3
808.2291	362.8707	65535	64684.7
808.3724	365.0646	65535	64683.65
808.5158	367.258	65535	64686.55
808.6591	369.4508	65535	64676.15
808.8025	371.643	65535	64677.3
808.9459	373.8346	65535	64673.7
809.0893	376.0257	65535	64676.8
809.2327	378.2162	65535	64675.35
809.3762	380.4062	65535	64674
809.5196	382.5956	65535	64675.35
809.6631	384.7844	65535	64670.85
809.8066	386.9726	65535	64674.2
809.9501	389.1603	65535	64676.75
810.0936	391.3474	65535	64629.85
810.2371	393.5339	65535	64672.9
810.3806	395.7199	65535	64679.85
810.5241	397.9052	65535	64679.45
810.6677	400.09	65535	64682.15
810.8113	402.2743	65535	64680.65
810.9548	404.4579	65535	64683.2
811.0984	406.641	65535	64678.9
811.2421	408.8235	65535	64682.3
811.3857	411.0054	65535	64676.6
811.5293	413.1868	65535	64672.95
811.673	415.3675	65535	64673.85
811.8166	417.5477	65535	64672.95
811.9603	419.7273	65535	64668.9
812.104	421.9064	65535	64665.15
812.2477	424.0848	65535	64667.5
812.3914	426.2627	65535	64662.25
812.5351	428.4399	65535	64668.1
812.6788	430.6166	65535	64660.1
812.8226	432.7928	65535	64661.5
812.9663	434.9683	65535	64663.7
813.1101	437.1432	65535	64660
813.2539	439.3176	65535	64665.25
813.3977	441.4914	65535	64665.15
813.5415	443.6645	65535	64663.2
813.6853	445.8371	65535	64662.05
813.8291	448.0091	65535	64664.5
813.973	450.1806	65535	64661.6
814.1168	452.3514	65535	64661.45
814.2607	454.5216	65535	64657.15
814.4046	456.6913	65535	64658.1
814.5485	458.8603	65535	64659.8
814.6924	461.0288	65535	64667.5
814.8363	463.1967	65535	64666.95
814.9802	465.3639	65535	64659.55
815.1241	467.5306	65535	64660.85
815.2681	469.6967	65535	64662.25
815.412	471.8622	65535	64662.1
815.556	474.0271	65535	64658.9
815.7	476.1914	65535	64656.3
815.844	478.3551	65535	64653
815.988	480.5182	65535	64663.7
816.132	482.6807	65535	64666.4
816.276	484.8426	65535	64667.6
816.4201	487.0039	65535	64658.8
816.5641	489.1647	65535	64658.65
816.7082	491.3248	65535	64658.95
816.8522	493.4843	65535	64657.35
816.9963	495.6432	65535	64660.25
817.1404	497.8015	65535	64652.25
817.2845	499.9592	65535	64653.7
817.4286	502.1163	65535	64648.6
817.5727	504.2728	65535	64655.05
817.7168	506.4287	65535	64656
817.861	508.5839	65535	64658.2
818.0051	510.7386	65535	64654.7
818.1493	512.8927	65535	64644.6
818.2935	515.0461	65535	64649.45
818.4377	517.199	65535	64650.15
818.5818	519.3512	65535	64652.25
818.726	521.5029	65535	64648.05
818.8703	523.6539	65535	64650.05
819.0145	525.8043	65535	64649.2
819.1587	527.9541	65535	64646.7
819.303	530.1033	65535	64650.1
819.4472	532.2519	65535	64651.4
819.5915	534.3999	65535	64646.2
819.7357	536.5472	65535	64649.35
819.88	538.694	65535	64650.3
820.0243	540.8401	65535	64646.15
820.1686	542.9856	65535	64641.5
820.3129	545.1305	65535	64638.25
820.4572	547.2748	65535	64638.1
820.6016	549.4185	65535	64635.65
820.7459	551.5615	65535	64639.1
820.8902	553.704	65535	64637.45
821.0346	555.8458	65535	64641.15
821.1789	557.987	65535	64645.3
821.3233	560.1276	65535	64640.25
821.4677	562.2675	65535	64642.2
821.6121	564.4069	65535	64639.75
821.7565	566.5456	65535	64642.65
821.9009	568.6837	65535	64642.7
822.0453	570.8212	65535	64640.05
822.1897	572.958	65535	64645.6
822.3342	575.0942	65535	64648.4
822.4786	577.2299	65535	64646.25
822.6231	579.3648	65535	64654.25
822.7675	581.4992	65535	64653.15
822.912	583.6329	65535	64656.4
823.0565	585.766	65535	64650.7
823.201	587.8985	65535	64650.45
823.3454	590.0304	65535	64620.8
823.4899	592.1616	65535	64638.95
823.6345	594.2922	65535	64639.65
823.779	596.4222	65535	64639.1
823.9235	598.5515	65535	64635.65
824.068	600.6802	65535	64642.15
824.2126	602.8083	65535	64639.8
824.3571	604.9358	65535	64638.4
824.5017	607.0626	65535	64636.9
824.6462	609.1888	65535	64633.7
824.7908	611.3144	65535	64633.3
824.9354	613.4393	65535	64630.75
825.08	615.5636	65535	64634.45
825.2246	617.6873	65535	64636.35
825.3692	619.8103	65535	64634
825.5138	621.9327	65535	64638.1
825.6584	624.0544	65535	64638.15
825.803	626.1756	65535	64640.45
825.9477	628.2961	65535	64634.25
826.0923	630.4159	65535	64634.15
826.237	632.5351	65535	64633.6
826.3816	634.6537	65535	64631.1
826.5263	636.7716	65535	64631.3
826.6709	638.8889	65535	64632.55
826.8156	641.0056	65535	64627.1
826.9603	643.1216	65535	64629.65
827.105	645.237	65535	64628.6
827.2497	647.3518	65535	64636.3
827.3944	649.4659	65535	64637
827.5391	651.5793	65535	64637.25
827.6838	653.6922	65535	64634.25
827.8285	655.8043	65535	64632.65
827.9733	657.9159	65535	64632.25
828.118	660.0268	65535	64630.95
828.2627	662.137	65535	64630.65
828.4075	664.2466	65535	64629.35
828.5522	666.3556	65535	64630.5
828.697	668.4639	65535	64631.8
828.8418	670.5716	65535	64635.1
828.9865	672.6786	65535	64631.9
829.1313	674.785	65535	64627.15
829.2761	676.8907	65535	64630.3
829.4209	678.9958	65535	64634.2
829.5657	681.1002	65535	64629.75
829.7105	683.204	65535	64621.55
829.8553	685.3072	65535	64624.1
830.0001	687.4097	65535	64625.85
830.1449	689.5115	65535	64623.2
830.2898	691.6127	65535	64631.2
830.4346	693.7132	65535	64631.05
830.5794	695.8131	65535	64608.2
830.7243	697.9123	65535	64622.65
830.8691	700.0109	65535	64626.4
831.014	702.1089	65535	64628.9
831.1588	704.2061	65535	64624.9
831.3037	706.3028	65535	64624.4
831.4486	708.3987	65535	64624.65
831.5935	710.4941	65535	64628.2
831.7383	712.5887	65535	64628.15
831.8832	714.6827	65535	64621.25
832.0281	716.7761	65535	64628.55
832.173	718.8688	65535	64628.25
832.3179	720.9608	65535	64619.2
832.4628	723.0522	65535	64620.1
832.6077	725.1429	65535	64622.95
832.7527	727.233	65535	64622.95
832.8976	729.3224	65535	64624.9
833.0425	731.4112	65535	64621.45
833.1874	733.4993	65535	64621.9
833.3324	735.5867	65535	64624.45
833.4773	737.6735	65535	64623.05
833.6222	739.7596	65535	64622
833.7672	741.845	65535	64619.75
833.9122	743.9298	65535	64621
834.0571	746.014	65535	64623.25
834.2021	748.0974	65535	64620.4
834.347	750.1802	65535	64620.3
834.492	752.2624	65535	64619.35
834.637	754.3439	65535	64620.8
834.782	756.4247	65535	64610.9
834.9269	758.5048	65535	64618.6
835.0719	760.5843	65535	64620.7
835.2169	762.6631	65535	64621.55
835.3619	764.7413	65535	64622.65
835.5069	766.8188	65535	64619.55
835.6519	768.8956	65535	64621.35
835.7969	770.9718	65535	64621.85
835.9419	773.0473	65535	64619.75
836.0869	775.1221	65535	64618.2
836.232	777.1962	65535	64618.85
836.377	779.2697	65535	64618.85
836.522	781.3426	65535	64598.4
836.667	783.4147	65535	64618.3
836.8121	785.4862	65535	64620.75
836.9571	787.557	65535	64618.9
837.1021	789.6271	65535	64617.95
837.2472	791.6966	65535	64619.35
837.3922	793.7654	65533.15	64615.45
837.5373	795.8335	65534.15	64622.65
837.6823	797.901	65535	64618.95
837.8274	799.9678	65531.3	64613.6
837.9724	802.0339	65526	64610.95
838.1175	804.0993	65529.9	64602.6
838.2626	806.1641	65524.7	64606.7
838.4076	808.2282	65521.05	64604.7
838.5527	810.2916	65514.65	64595.4
838.6978	812.3544	65528.2	64614.55
838.8428	814.4164	65507	64592.05
838.9879	816.4778	65498.25	64578.05
839.133	818.5385	65502.45	64584.75
839.2781	820.5986	65501	64581.75
839.4232	822.658	65506.8	64586.45
839.5682	824.7166	65515.05	64597.35
839.7133	826.7747	65438.6	64523.25
839.8584	828.832	65471.35	64553.85
840.0035	830.8886	65512.3	64592.9
840.1486	832.9446	65516.85	64597.1
840.2937	834.9999	65360.15	64446.35
840.4388	837.0545	65460.3	64540
840.5839	839.1085	65514.85	64594.15
840.729	841.1618	65487.05	64564.5
840.8741	843.2143	65363.55	64446.95
841.0192	845.2662	65354.55	64433.65
841.1643	847.3175	65417.95	64498.9
841.3095	849.368	65143.3	64225.15
841.4546	851.4179	65384.6	64467.1
841.5997	853.467	65184.25	64265.2
841.7448	855.5155	65275.95	64354.7
841.8899	857.5633	65042.2	64122.5
842.0351	859.6105	64921.5	64005.65
842.1802	861.6569	65075.55	64159.25
842.3253	863.7027	64748.4	63825.8
842.4704	865.7478	64886.9	63970.95
842.6156	867.7922	64807.35	63888.4
842.7607	869.8359	64958.95	64039.4
842.9058	871.8789	64604.25	63682.05
843.0509	873.9212	64850.95	63899.5
843.1961	875.9629	64949	64027.15
843.3412	878.0039	64847.4	63927.75
843.4863	880.0441	64710.45	63791.4
843.6315	882.0837	64696.55	63776.05
843.7766	884.1226	64662.7	63744
843.9218	886.1609	64578.95	63659.65
844.0669	888.1984	64370.4	63453.2
844.212	890.2352	64628.75	63712.35
844.3572	892.2714	64233.4	63307.45
844.5023	894.3069	64430.8	63511.15
844.6475	896.3416	64181.35	63260.65
844.7926	898.3757	64120.95	63201.75
844.9377	900.4091	63527.25	62606.1
845.0829	902.4418	64304.85	63380.25
845.228	904.4739	63873.05	62951.55
845.3732	906.5052	63877.95	62957.2
845.5183	908.5358	63621.45	62698.5
845.6635	910.5658	63437.15	62516.2
845.8086	912.595	63395.15	62473.75
845.9538	914.6236	62674.8	61755.55
846.0989	916.6515	63730.65	62808.25
846.2441	918.6786	62662.55	61741.5
846.3892	920.7051	62879.1	61955.85
846.5344	922.7309	62733.55	61814.1
846.6795	924.756	62954	62032.75
846.8246	926.7804	62637.75	61715.1
846.9698	928.8041	61837.15	60914.15
847.1149	930.8272	62419.45	61497.25
847.2601	932.8495	62342.85	61421.85
847.4052	934.8711	61625.85	60702.05
847.5504	936.892	61209.25	60286.65
847.6955	938.9123	61427.1	60505.2
847.8407	940.9318	60916.15	59995.45
847.9858	942.9506	60755.55	59835.35
848.131	944.9688	60862.35	59942.2
848.2761	946.9862	59761.2	58842.5
848.4213	949.003	60159.8	59240.1
848.5664	951.019	59172.05	58249.8
848.7115	953.0344	59442.3	58521.5
848.8567	955.0491	59362.2	58440.15
849.0018	957.063	59637.55	58716.25
849.147	959.0763	59702.9	58774.1
849.2921	961.0888	59034	58110.95
849.4373	963.1007	59526.15	58608.15
849.5824	965.1119	59468.35	58553.8
849.7275	967.1223	58987.35	58074.6
849.8727	969.1321	59535.2	58621.95
850.0178	971.1412	58681.15	57766.05
850.1629	973.1495	58414.8	57495.05
850.3081	975.1572	58726.2	57771.95
850.4532	977.1641	58456.85	57537.85
850.5983	979.1704	58249.6	57328.6
850.7435	981.1759	58295.2	57369.25
850.8886	983.1808	57857.3	56940.6
851.0337	985.1849	57917.45	56985.8
851.1788	987.1884	58074.6	57151.3
851.324	989.1911	58499.8	57573.85
851.4691	991.1932	57513.5	56590.65
851.6142	993.1945	57683.3	56760.5
851.7593	995.1951	57853.45	56932.05
851.9045	997.1951	57300.45	56370.5
852.0496	999.1943	57027.8	56105.3
852.1947	1001.1928	56729.55	55807.7
852.3398	1003.1906	56806.35	55883.6
852.4849	1005.1877	56200.1	55278.2
852.63	1007.1841	55813.45	54892.25
852.7751	1009.1798	55678.2	54755.75
852.9202	1011.1748	55461.4	54543.85
853.0653	1013.1691	55155.85	54234.35
853.2104	1015.1627	54221.1	53301.3
853.3555	1017.1556	54016.05	53095.35
853.5006	1019.1477	54062.8	53144
853.6457	1021.1392	53487	52570.8
853.7908	1023.1299	52947.55	52032
853.9359	1025.12	53077.95	52162.5
854.081	1027.1093	52776.75	51868.4
854.2261	1029.0979	52701.55	51795.2
854.3712	1031.0859	52613.5	51704.35
854.5163	1033.0731	52132.25	51218.35
854.6613	1035.0596	52071.3	51157.25
854.8064	1037.0454	51767.2	50850
854.9515	1039.0304	51357.35	50441.05
855.0965	1041.0148	50937.95	50021.3
855.2416	1042.9985	50794.85	49875.15
855.3867	1044.9814	50822.75	49905.3
855.5317	1046.9636	50397.15	49475.6
855.6768	1048.9452	50207.85	49290.7
855.8219	1050.926	50098.45	49179.2
855.9669	1052.9061	49890.5	48972.4
856.112	1054.8855	49768.45	48849.05
856.257	1056.8642	49606.35	48686.8
856.4021	1058.8421	49521.95	48599.6
856.5471	1060.8194	49421.8	48502.85
856.6921	1062.7959	49254.4	48334
856.8372	1064.7717	49141.25	48222.95
856.9822	1066.7469	49001.65	48078.6
857.1272	1068.7213	48804.4	47881.3
857.2723	1070.695	48665.35	47744.6
857.4173	1072.6679	48298.95	47379.9
857.5623	1074.6402	48197	47278.95
857.7073	1076.6117	48103.6	47181.15
857.8523	1078.5826	48020.15	47100.05
857.9973	1080.5527	47903.65	46981.45
858.1423	1082.5221	47907.45	46988
858.2873	1084.4908	47985.8	47068.2
858.4323	1086.4587	48053.55	47132.7
858.5773	1088.426	48173.2	47253.85
858.7223	1090.3925	47968.1	47041.95
858.8673	1092.3584	47761.05	46841.35
859.0123	1094.3235	47323.4	46405.9
859.1573	1096.2879	47064.4	46144.65
859.3022	1098.2515	46883.3	45963.85
859.4472	1100.2145	46863.2	45946.75
859.5922	1102.1767	46685.25	45764.05
859.7371	1104.1382	46688.6	45768.15
859.8821	1106.099	46745.2	45823.35
860.027	1108.0591	46807.5	45889.55
860.172	1110.0185	46731.95	45812
860.3169	1111.9771	46698.7	45779.8
860.4619	1113.9351	46257.9	45341.2
860.6068	1115.8923	45740.6	44818.95
860.7517	1117.8488	45271.3	44350
860.8967	1119.8045	44713.45	43796.6
861.0416	1121.7596	44523.3	43603.45
861.1865	1123.7139	44311.25	43397.15
861.3314	1125.6675	44208.15	43287.25
861.4763	1127.6204	44318.6	43401.65
861.6212	1129.5726	44081.2	43159.9
861.7661	1131.524	44040.45	43122.05
861.911	1133.4748	44054.75	43135.3
862.0559	1135.4248	43850.4	42928.65
862.2008	1137.3741	43787.65	42869.3
862.3457	1139.3226	43700.5	42779.8
862.4905	1141.2705	43593.6	42675.65
862.6354	1143.2176	43243.55	42322
862.7803	1145.164	43236.7	42315.2
862.9251	1147.1097	43135.75	42219.45
863.07	1149.0546	43058.1	42138.85
863.2148	1150.9989	42932.1	42013.95
863.3597	1152.9424	42618	41697.2
863.5045	1154.8852	42340.5	41419.7
863.6493	1156.8272	42122	41204.8
863.7942	1158.7686	42001	41078.9
863.939	1160.7092	41732.35	40813.45
864.0838	1162.6491	41530.95	40609.15
864.2286	1164.5883	41559.7	40643.35
864.3734	1166.5267	41510.1	40588.6
864.5182	1168.4644	41505.55	40585.05
864.663	1170.4014	41696.75	40772.3
864.8078	1172.3377	41828.8	40915.6
864.9526	1174.2732	41946.3	41029.85
865.0974	1176.2081	42104.65	41184.6
865.2421	1178.1421	42155.1	41233.9
865.3869	1180.0755	42166.5	41251.75
865.5317	1182.0082	41942.95	41025.75
865.6764	1183.9401	41753.2	40833.65
865.8212	1185.8713	41421.3	40509.65
865.9659	1187.8017	41080	40168.9
866.1106	1189.7315	40778.9	39869.8
866.2554	1191.6605	40296.2	39389.1
866.4001	1193.5888	39944.55	39034.35
866.5448	1195.5163	39788.05	38875
866.6895	1197.4432	39542.3	38630.05
866.8342	1199.3693	39349.45	38434.25
866.9789	1201.2947	39175.2	38251.55
867.1236	1203.2193	38920.4	38003.65
867.2683	1205.1432	38921.9	38004.55
867.413	1207.0664	38803.15	37888.1
867.5576	1208.9889	38776.55	37855.65
867.7023	1210.9106	38644.25	37726.35
867.847	1212.8316	38597.6	37682.75
867.9916	1214.7519	38594.15	37669.65
868.1363	1216.6715	38453.75	37541.35
868.2809	1218.5903	38399.85	37486.2
868.4255	1220.5084	38196.35	37280.6
868.5701	1222.4257	38043.7	37128.85
868.7148	1224.3424	37813.05	36897.8
868.8594	1226.2583	37763.1	36843.55
869.004	1228.1735	37756.7	36843.5
869.1486	1230.0879	37740.15	36823.4
869.2932	1232.0016	37765.8	36852.75
869.4377	1233.9146	37634.1	36716.3
869.5823	1235.8269	37469.45	36557
869.7269	1237.7384	37302.35	36387.3
869.8715	1239.6492	36860.15	35945.85
870.016	1241.5592	36740.7	35823.45
870.1606	1243.4686	36499.65	35583.9
870.3051	1245.3772	36331.85	35417.8
870.4496	1247.285	36164.05	35248.9
870.5941	1249.1922	35925.85	35011.3
870.7387	1251.0986	35910.2	34996.2
870.8832	1253.0042	35720.85	34805.5
871.0277	1254.9092	35669.8	34754.55
871.1722	1256.8134	35620.7	34707.5
871.3167	1258.7169	35814.8	34898.1
871.4611	1260.6196	35821.6	34908.65
871.6056	1262.5216	35940.3	35021.85
871.7501	1264.4229	35993.55	35080.95
871.8945	1266.3234	36005.85	35091.45
872.039	1268.2232	36075.3	35159.2
872.1834	1270.1223	35873.1	34958.05
872.3278	1272.0207	35775.9	34860.45
872.4723	1273.9183	35671.4	34753.15
872.6167	1275.8151	35468.3	34552.6
872.7611	1277.7113	35275.8	34361.3
872.9055	1279.6067	35018.6	34105.1
873.0499	1281.5014	34740	33822.5
873.1943	1283.3953	34508.95	33593.35
873.3386	1285.2885	34362.6	33451.45
873.483	1287.181	34195.05	33281.2
873.6274	1289.0727	34204.1	33290.8
873.7717	1290.9637	34119.15	33205.35
873.9161	1292.854	34208.5	33291.9
874.0604	1294.7435	34195.35	33280
874.2047	1296.6323	34405.95	33493.3
874.349	1298.5204	34619.35	33702.4
874.4933	1300.4077	34773.3	33859.15
874.6376	1302.2943	34894.4	33982.35
874.7819	1304.1802	34958.4	34043.7
874.9262	1306.0653	34770.9	33856.3
875.0705	1307.9497	34559.4	33644.3
875.2147	1309.8333	34407.3	33491.25
875.359	1311.7162	34313.95	33398.45
875.5032	1313.5984	34370.85	33452.35
875.6475	1315.4798	34422.6	33494.7
875.7917	1317.3605	34528.6	33595.55
875.9359	1319.2405	34689.4	33773.65
876.0801	1321.1197	34665.65	33753.6
876.2243	1322.9982	34501.1	33582.3
876.3685	1324.876	34503.5	33589.75
876.5127	1326.753	34312.45	33397.55
876.6569	1328.6293	34319.7	33406.05
876.801	1330.5048	34368.7	33452.65
876.9452	1332.3796	34159.85	33244.6
877.0893	1334.2537	34143.05	33207.2
877.2335	1336.127	33978.1	33065.2
877.3776	1337.9996	33836.8	32924.15
877.5217	1339.8714	33754.45	32841.4
877.6658	1341.7426	33609.6	32651.6
877.8099	1343.6129	33466.1	32549.35
877.954	1345.4826	33328.55	32412.95
878.0981	1347.3515	33265	32349.85
878.2422	1349.2196	33125.9	32211.1
878.3862	1351.087	33065.6	32149.85
878.5303	1352.9537	33018	32102.9
878.6743	1354.8197	33094.45	32179.1
878.8184	1356.6849	33268.4	32354.25
878.9624	1358.5493	33254.65	32338.6
879.1064	1360.4131	33155.6	32240.85
879.2504	1362.276	32993.1	32081.5
879.3944	1364.1383	32693.25	31782.9
879.5384	1365.9998	32389.85	31469.3
879.6823	1367.8606	32034.2	31119.95
879.8263	1369.7206	31730.55	30817
879.9702	1371.5799	31447.95	30531.95
880.1142	1373.4384	31255.1	30340.95
880.2581	1375.2962	31119.5	30205.45
880.402	1377.1533	30708.95	29796.4
880.5459	1379.0096	30273.65	29358.1
880.6898	1380.8652	29956.9	29044.55
880.8337	1382.7201	29705.85	28794.5
880.9776	1384.5742	29317.1	28404.7
881.1215	1386.4275	29095.5	28181.95
881.2653	1388.2802	28929	28015.6
881.4092	1390.132	28702.2	27790.2
881.553	1391.9832	28614.8	27699.7
881.6968	1393.8336	28399.65	27490
881.8406	1395.6832	28286.85	27373.5
881.9844	1397.5322	28140.85	27228.6
882.1282	1399.3803	28101	27183.8
882.272	1401.2278	27907.5	26994.8
882.4158	1403.0745	27822.1	26909.2
882.5595	1404.9204	27669.9	26756.35
882.7033	1406.7656	27673.75	26763.75
882.847	1408.6101	27552.95	26640.05
882.9908	1410.4538	27472.1	26559.75
883.1345	1412.2968	27379.7	26468.35
883.2782	1414.139	27337.55	26426.2
883.4219	1415.9805	27373.7	26462.3
883.5656	1417.8213	27331.3	26398.05
883.7092	1419.6613	27368.5	26459.85
883.8529	1421.5006	27483.35	26571.45
883.9965	1423.3391	27731.15	26820.3
884.1402	1425.1769	27992.75	27080
884.2838	1427.0139	28453.65	27542.5
884.4274	1428.8502	29060.75	28147.95
884.571	1430.6858	29503.6	28593.9
884.7146	1432.5206	29850.6	28938.1
884.8582	1434.3547	30055.3	29142.75
885.0018	1436.188	30051.85	29140
885.1453	1438.0206	29965.75	29053.4
885.2889	1439.8524	29714.05	28799.1
885.4324	1441.6835	29568.05	28655.9
885.5759	1443.5139	29435.2	28524.3
885.7194	1445.3435	29288.95	28378
885.8629	1447.1724	29215.6	28303.95
886.0064	1449.0005	29053.15	28143.45
886.1499	1450.8279	28933.65	28021.75
886.2933	1452.6545	28827.2	27916.9
886.4368	1454.4804	28821.05	27911.5
886.5802	1456.3056	28693.65	27778
886.7237	1458.13	28608.35	27699.35
886.8671	1459.9536	28393.7	27483.7
887.0105	1461.7766	27978.2	27068.05
887.1539	1463.5987	27403.3	26491.8
887.2972	1465.4202	27012.15	26100.65
887.4406	1467.2409	26529.25	25618.2
887.584	1469.0608	26289.4	25380.85
887.7273	1470.88	25966.8	25055.3
887.8706	1472.6984	25667	24756.4
888.0139	1474.5161	25413.5	24499.55
888.1572	1476.3331	25189.75	24282.45
888.3005	1478.1493	25032.5	24123.1
888.4438	1479.9648	24911.55	24003
888.5871	1481.7795	24751.75	23841.95
888.7303	1483.5935	24651.4	23741.25
888.8736	1485.4067	24532.6	23624.85
889.0168	1487.2192	24456.4	23543.9
889.16	1489.031	24337.15	23426.1
889.3032	1490.842	24291.05	23382
889.4464	1492.6522	24204.85	23296.55
889.5896	1494.4618	24122.7	23213.05
889.7327	1496.2705	24049.7	23141.65
889.8759	1498.0785	23995.05	23085.9
890.019	1499.8858	23912.9	23002.45
890.1622	1501.6924	23852.55	22943.05
890.3053	1503.4981	23750.15	22840.2
890.4484	1505.3032	23700.55	22789.8
890.5914	1507.1075	23607.4	22698.45
890.7345	1508.911	23596.75	22686.4
890.8776	1510.7138	23495.7	22584.45
891.0206	1512.5159	23362.7	22454.75
891.1637	1514.3172	23279.45	22372.3
891.3067	1516.1178	23193.1	22288.05
891.4497	1517.9176	23125.55	22213.25
891.5927	1519.7166	23021.1	22114.25
891.7357	1521.515	22952.3	22040.05
891.8786	1523.3126	22888.15	21981.7
892.0216	1525.1094	22782.6	21873.7
892.1645	1526.9055	22688.25	21782.2
892.3074	1528.7008	22603.85	21696.7
892.4503	1530.4954	22487.8	21574.3
892.5932	1532.2893	22444.75	21538.55
892.7361	1534.0824	22279.7	21367.05
892.879	1535.8747	22263.45	21358.45
893.0218	1537.6663	22183.85	21277.8
893.1647	1539.4572	22132.5	21227.7
893.3075	1541.2473	22077.05	21171.2
893.4503	1543.0367	21990	21085.25
893.5931	1544.8253	21865.95	20956.25
893.7359	1546.6132	21878.25	20970.2
893.8787	1548.4003	21798.1	20881.9
894.0214	1550.1867	21734.35	20822.2
894.1642	1551.9723	21695.65	20786.1
894.3069	1553.7572	21661.85	20758.4
894.4496	1555.5414	21617.55	20713.4
894.5923	1557.3247	21592.25	20687.55
894.735	1559.1074	21567.4	20665.5
894.8777	1560.8893	21539.2	20638.2
895.0204	1562.6705	21532.1	20629.9
895.163	1564.4509	21554.4	20652.1
895.3056	1566.2305	21511.05	20610.1
895.4482	1568.0094	21652.35	20753.3
895.5908	1569.7876	21680.25	20778.55
895.7334	1571.565	21688.6	20785.35
895.876	1573.3417	21730.65	20828.85
896.0186	1575.1176	21712.2	20809.4
896.1611	1576.8928	21608.3	20707.4
896.3036	1578.6672	21474.75	20576.85
896.4461	1580.4409	21321.95	20422.75
896.5886	1582.2138	21155.3	20254.4
896.7311	1583.986	20911.2	20010.65
896.8736	1585.7575	20794	19893.75
897.0161	1587.5282	20643.2	19746.25
897.1585	1589.2981	20576.1	19678.35
897.3009	1591.0673	20439.55	19542.1
897.4433	1592.8358	20356.85	19460.1
897.5857	1594.6035	20353.85	19455.05
897.7281	1596.3704	20239.05	19338.35
897.8705	1598.1366	20232.2	19334.05
898.0128	1599.9021	20189.55	19291.3
898.1551	1601.6668	20126.1	19223.15
898.2975	1603.4308	20146.8	19246.65
898.4398	1605.194	20159.25	19256.25
898.5821	1606.9564	20173.4	19279.3
898.7243	1608.7182	20206.7	19308.35
898.8666	1610.4791	20255.2	19360.65
899.0088	1612.2394	20350.3	19455.55
899.1511	1613.9988	20505.55	19610.75
899.2933	1615.7576	20695.55	19798.6
899.4355	1617.5156	20899.55	19996.7
899.5776	1619.2728	21129.7	20229.2
899.7198	1621.0293	21277.05	20378.85
899.862	1622.785	21281	20380.45
900.0041	1624.54	21168.65	20272.25
900.1462	1626.2942	20948.15	20052.3
900.2883	1628.0477	20614.2	19716.35
900.4304	1629.8005	20341.1	19440.25
900.5725	1631.5525	20024.2	19130.5
900.7145	1633.3037	19775.95	18879.6
900.8566	1635.0542	19599.3	18703.75
900.9986	1636.804	19403.2	18506.7
901.1406	1638.553	19339	18379.85
901.2826	1640.3013	19166.95	18270.15
901.4245	1642.0488	19017.6	18120.25
901.5665	1643.7955	19009.35	18115.2
901.7085	1645.5416	18959.65	18064.85
901.8504	1647.2868	18986.05	18091.9
901.9923	1649.0313	18988.55	18092.65
902.1342	1650.7751	19086.3	18187.6
902.2761	1652.5181	19218.75	18324.8
902.4179	1654.2604	19413.35	18520.8
902.5598	1656.0019	19662.95	18769.7
902.7016	1657.7427	20016.4	19123.35
902.8434	1659.4828	20335.6	19439.95
902.9852	1661.222	20483.05	19587.2
903.127	1662.9606	20521.8	19628.45
903.2687	1664.6984	20396	19498.9
903.4105	1666.4354	20020.45	19123.45
903.5522	1668.1717	19531.4	18631.95
903.6939	1669.9072	19038	18144.4
903.8356	1671.642	18629.75	17731.45
903.9773	1673.3761	18308.55	17411.8
904.119	1675.1094	17989.3	17093.85
904.2606	1676.8419	17788.2	16893.2
904.4022	1678.5737	17585.95	16689.75
904.5439	1680.3048	17467	16571.85
904.6855	1682.0351	17303.75	16405.05
904.827	1683.7646	17175.3	16275.3
904.9686	1685.4934	17083.75	16189.15
905.1101	1687.2215	17025.65	16130.75
905.2517	1688.9488	16897.9	16003.55
905.3932	1690.6754	16799.65	15905.55
905.5347	1692.4012	16793.5	15897.6
905.6761	1694.1263	16708.4	15811.55
905.8176	1695.8506	16651.15	15755.35
905.9591	1697.5742	16568.85	15675.6
906.1005	1699.297	16531.55	15638.2
906.2419	1701.0191	16398.65	15508.6
906.3833	1702.7404	16300.8	15410.1
906.5246	1704.461	16209.45	15315.5
906.666	1706.1808	16181.4	15287.75
906.8073	1707.8999	16139.8	15245.4
906.9487	1709.6182	16110.6	15217.55
907.09	1711.3358	16052.25	15163.8
907.2313	1713.0527	15955.9	15064.35
907.3725	1714.7688	15886.55	14992
907.5138	1716.4841	15854.25	14961.95
907.655	1718.1987	15777.85	14881.25
907.7962	1719.9126	15760.25	14870
907.9374	1721.6257	15683.1	14788.75
908.0786	1723.338	15633.8	14743.7
908.2198	1725.0496	15535.25	14644.9
908.3609	1726.7605	15494.05	14601.8
908.502	1728.4706	15446.8	14556.55
908.6431	1730.18	15324.6	14431.55
908.7842	1731.8886	15315.5	14427.35
908.9253	1733.5964	15287.05	14375.55
909.0664	1735.3036	15269	14374.25
909.2074	1737.0099	15243.35	14353
909.3484	1738.7156	15204.4	14314.55
909.4894	1740.4204	15122.2	14228.35
909.6304	1742.1246	15069.55	14180.05
909.7714	1743.8279	15008.3	14120.45
909.9123	1745.5306	15011.4	14122.65
910.0532	1747.2325	14945.65	14055.75
910.1941	1748.9336	14880.2	13990.75
910.335	1750.634	14856.75	13961.5
910.4759	1752.3336	14804.1	13914.4
910.6168	1754.0325	14775.7	13888.9
910.7576	1755.7307	14754.35	13864.95
910.8984	1757.4281	14743.55	13853.95
911.0392	1759.1247	14680.6	13780.9
911.18	1760.8206	14676.85	13781.7
911.3208	1762.5158	14646.35	13751.7
911.4615	1764.2102	14547.1	13657.1
911.6022	1765.9039	14495.45	13607
911.7429	1767.5968	14460.85	13572.3
911.8836	1769.289	14431.95	13542.45
912.0243	1770.9804	14361.4	13473
912.1649	1772.6711	14355.25	13462.55
912.3056	1774.361	14316.35	13424.15
912.4462	1776.0502	14292.7	13403.9
912.5868	1777.7386	14264.6	13370.15
912.7274	1779.4263	14207.3	13317.05
912.8679	1781.1132	14179.95	13292.3
913.0084	1782.7994	14143.4	13255
913.149	1784.4849	14096.7	13209.35
913.2895	1786.1696	14073.75	13177.8
913.4299	1787.8535	14036.95	13149.95
913.5704	1789.5367	13982.85	13096
913.7108	1791.2192	13980.45	13090.9
913.8513	1792.9009	13927.55	13012.5
913.9917	1794.5818	13893.65	13002.9
914.132	1796.2621	13837.8	12949.55
914.2724	1797.9415	13768.65	12880.75
914.4128	1799.6202	13728.4	12837.85
914.5531	1801.2982	13718.8	12830.3
914.6934	1802.9755	13696.25	12805.45
914.8337	1804.6519	13680.4	12790.1
914.9739	1806.3277	13575.6	12686.8
915.1142	1808.0027	13549.25	12661.95
915.2544	1809.6769	13569.9	12681.35
915.3946	1811.3504	13497.35	12608.05
915.5348	1813.0231	13486.55	12598.95
915.675	1814.6951	13436.4	12550.7
915.8151	1816.3664	13458.1	12567.65
915.9553	1818.0369	13396.5	12510.6
916.0954	1819.7067	13363.6	12477.4
916.2355	1821.3757	13291.7	12401.1
916.3755	1823.044	13333.9	12442.1
916.5156	1824.7115	13252.35	12362.2
916.6556	1826.3783	13190.35	12302.45
916.7956	1828.0443	13155.2	12268.9
916.9356	1829.7096	13153.65	12263.95
917.0756	1831.3741	13131.45	12238.9
917.2155	1833.0379	13071.5	12181.35
917.3555	1834.701	13041.1	12152.95
917.4954	1836.3633	12987.85	12099.65
917.6353	1838.0248	12966.85	12076.45
917.7751	1839.6856	12941.35	12053
917.915	1841.3457	12913.15	12025.05
918.0548	1843.005	12879.25	11990.4
918.1946	1844.6636	12869.9	11982.2
918.3344	1846.3214	12836.85	11946.05
918.4742	1847.9785	12822.7	11935.45
918.6139	1849.6349	12817.9	11925.8
918.7537	1851.2904	12768.45	11870.9
918.8934	1852.9453	12719.3	11828.35
919.0331	1854.5994	12695.15	11803.3
919.1727	1856.2528	12695.55	11802.2
919.3124	1857.9054	12656.55	11766.55
919.452	1859.5572	12644	11757.95
919.5916	1861.2083	12591.8	11702.75
919.7312	1862.8587	12571.35	11683.25
919.8708	1864.5084	12577.3	11688.3
920.0103	1866.1572	12515.75	11626.3
920.1498	1867.8054	12459.35	11571.05
920.2893	1869.4528	12455.9	11565.65
920.4288	1871.0994	12397.4	11509.55
920.5683	1872.7453	12381.9	11493.25
920.7077	1874.3905	12351.95	11445.3
920.8471	1876.0349	12313.85	11424.45
920.9865	1877.6786	12313.85	11422.6
921.1259	1879.3215	12278.35	11387.05
921.2653	1880.9637	12245.75	11357.45
921.4046	1882.6051	12217.65	11328.85
921.5439	1884.2458	12161.8	11273.25
921.6832	1885.8858	12116.85	11227.75
921.8225	1887.525	12111.5	11220.6
921.9617	1889.1634	12057.45	11169.7
922.101	1890.8011	12022.2	11133.65
922.2402	1892.4381	11980.95	11092.65
922.3794	1894.0743	11963.4	11076.95
922.5185	1895.7098	11941.95	11054.5
922.6577	1897.3446	11911.95	11022
922.7968	1898.9786	11872.5	10978.25
922.9359	1900.6118	11861.85	10972.7
923.075	1902.2443	11789.75	10900.1
923.214	1903.8761	11788.6	10899.65
923.3531	1905.5071	11682.6	10794.05
923.4921	1907.1374	11663.8	10774.35
923.6311	1908.7669	11673.2	10786.3
923.77	1910.3957	11645.2	10758
923.909	1912.0237	11563.35	10676.65
924.0479	1913.651	11542.3	10654.6
924.1868	1915.2776	11503.8	10617.2
924.3257	1916.9034	11478.2	10591.9
924.4646	1918.5285	11419.55	10533.95
924.6034	1920.1528	11382.45	10494.45
924.7422	1921.7764	11368.2	10481.05
924.881	1923.3992	11294.2	10407.5
925.0198	1925.0213	11234.9	10346.9
925.1586	1926.6427	11206.6	10319.6
925.2973	1928.2633	11238.75	10282.4
925.436	1929.8832	11173.75	10283.75
925.5747	1931.5023	11118.75	10230.55
925.7134	1933.1207	11084.75	10195.65
925.852	1934.7383	11051.25	10163.85
925.9906	1936.3552	11011.5	10124.15
926.1292	1937.9714	10979.95	10092.8
926.2678	1939.5868	10932.3	10042.35
926.4064	1941.2015	10881.7	9991.7
926.5449	1942.8154	10850.3	9962.9
926.6834	1944.4286	10805.6	9917.6
926.8219	1946.041	10786.05	9878.45
926.9604	1947.6528	10715.5	9823.95
927.0988	1949.2637	10689.3	9802.55
927.2372	1950.8739	10663.8	9776.45
927.3756	1952.4834	10623.6	9737.05
927.514	1954.0921	10615.85	9727.65
927.6523	1955.7001	10559.85	9669.85
927.7907	1957.3074	10547.9	9661.25
927.929	1958.9139	10505.35	9622.55
928.0673	1960.5197	10455.9	9567.65
928.2055	1962.1247	10413.5	9527.95
928.3438	1963.729	10372.6	9488
928.482	1965.3325	10360.75	9451.7
928.6202	1966.9353	10305.05	9417.7
928.7584	1968.5374	10261.75	9373.6
928.8965	1970.1387	10247.65	9361.1
929.0346	1971.7393	10191.8	9304.2
929.1727	1973.3392	10189.15	9303.4
929.3108	1974.9383	10144.7	9262.1
929.4489	1976.5366	10067.05	9183.25
929.5869	1978.1342	10082.25	9196.8
929.7249	1979.7311	10041.25	9156.7
929.8629	1981.3273	10033	9147
930.0009	1982.9227	10003.7	9116.95
930.1388	1984.5173	9937.9	9055.65
930.2767	1986.1112	9927.05	9041.4
930.4146	1987.7044	9882.55	8998.8
930.5525	1989.2968	9862.6	8976.1
930.6904	1990.8885	9850.2	8959.95
930.8282	1992.4795	9809.4	8924.95
930.966	1994.0697	9776.5	8893.95
931.1038	1995.6592	9729.1	8844.8
931.2415	1997.2479	9716.55	8830.95
931.3793	1998.8359	9648.35	8765.4
931.517	2000.4232	9646.4	8762.45
931.6547	2002.0097	9631.15	8749.35
931.7923	2003.5955	9566.15	8684.3
931.93	2005.1805	9561.5	8675.85
932.0676	2006.7648	9548.85	8667.4
932.2052	2008.3484	9518.05	8633.6
932.3427	2009.9312	9503.2	8620.9
932.4803	2011.5133	9461.5	8579.9
932.6178	2013.0946	9458.2	8579.3
932.7553	2014.6752	9398.8	8518.15
932.8928	2016.2551	9384.55	8503.5
933.0302	2017.8342	9347.45	8464.75
933.1676	2019.4126	9309.35	8427.6
933.305	2020.9902	9288.45	8406.75
933.4424	2022.5672	9258	8373.4
933.5798	2024.1433	9254.3	8367.4
933.7171	2025.7188	9195.2	8315.45
933.8544	2027.2935	9186.6	8303.45
933.9917	2028.8674	9161.95	8280.75
934.129	2030.4406	9131.6	8250
934.2662	2032.0131	9091.25	8210.3
934.4034	2033.5849	9052.85	8164.35
934.5406	2035.1559	9040.35	8161.4
934.6778	2036.7261	9032.1	8149.1
934.8149	2038.2957	9022.3	8139.35
934.952	2039.8645	8984.25	8099.6
935.0891	2041.4325	8992.95	8106.45
935.2262	2042.9998	8935.25	8052.65
935.3632	2044.5664	8921.7	8037.1
935.5002	2046.1323	8887.9	8006.4
935.6372	2047.6974	8865.05	7983.55
935.7742	2049.2617	8827.35	7947.1
935.9111	2050.8254	8826.05	7938.1
936.048	2052.3883	8799.55	7916.7
936.1849	2053.9504	8788.8	7904.5
936.3218	2055.5118	8745.95	7864.05
936.4586	2057.0725	8710.85	7825.2
936.5955	2058.6325	8697.35	7814.35
936.7323	2060.1917	8669.65	7788.6
936.869	2061.7502	8662.7	7776.9
937.0058	2063.3079	8605.95	7725.55
937.1425	2064.8649	8600.65	7713.65
937.2792	2066.4212	8568.2	7684.6
937.4159	2067.9767	8538.8	7657.75
937.5525	2069.5315	8483.75	7600.8
937.6891	2071.0856	8461.35	7576.2
937.8257	2072.6389	8455.75	7570.65
937.9623	2074.1915	8415.45	7536
938.0989	2075.7433	8349.6	7466.15
938.2354	2077.2945	8315.45	7432.75
938.3719	2078.8448	8306.35	7423.4
938.5084	2080.3945	8279.4	7398
938.6448	2081.9434	8284.25	7401.05
938.7812	2083.4916	8254.1	7369.9
938.9176	2085.039	8256.1	7371.2
939.054	2086.5857	8219.35	7331.7
939.1903	2088.1317	8215.35	7329.5
939.3267	2089.677	8168.3	7283.1
939.463	2091.2215	8143.2	7259.6
939.5992	2092.7652	8122.3	7234.65
939.7355	2094.3083	8117.35	7231.1
939.8717	2095.8506	8083.55	7199
940.0079	2097.3921	8067	7183.35
940.1441	2098.933	8052.7	7168.6
940.2802	2100.4731	8039.05	7152.8
940.4163	2102.0124	8040.45	7149.35
940.5524	2103.5511	7999.8	7115.95
940.6885	2105.089	7993.05	7107.4
940.8245	2106.6261	7959.45	7074.45
940.9606	2108.1626	7958.7	7073.55
941.0965	2109.6983	7918.85	7006.05
941.2325	2111.2332	7894.5	7007.85
941.3684	2112.7675	7875.8	6990.6
941.5044	2114.301	7872.1	6984.7
941.6403	2115.8337	7854.15	6969.35
941.7761	2117.3657	7846.75	6960.15
941.912	2118.897	7808.75	6923.1
942.0478	2120.4276	7767.7	6875.75
942.1835	2121.9575	7737.45	6850.95
942.3193	2123.4866	7767.55	6866.3
942.455	2125.0149	7727.95	6839.7
942.5907	2126.5426	7689.85	6807.05
942.7264	2128.0695	7673.5	6786.1
942.8621	2129.5956	7666.8	6786.95
942.9977	2131.1211	7642.75	6754.75
943.1333	2132.6458	7623.45	6741.25
943.2689	2134.1698	7587.15	6703.1
943.4044	2135.693	7581.05	6693.9
943.54	2137.2155	7572.05	6684.25
943.6755	2138.7373	7564.2	6678.55
943.8109	2140.2584	7526.7	6643
943.9464	2141.7787	7481.2	6594.55
944.0818	2143.2983	7457.5	6576.8
944.2172	2144.8171	7420.15	6538.7
944.3526	2146.3353	7408.2	6522.65
944.4879	2147.8527	7369.8	6487.25
944.6232	2149.3693	7388.5	6506.25
944.7585	2150.8853	7382.7	6497.9
944.8938	2152.4005	7326	6441.15
945.029	2153.9149	7324	6438.2
945.1642	2155.4287	7380.45	6382.6
945.2994	2156.9417	7298.05	6411.8
945.4346	2158.454	7277.8	6391.25
945.5697	2159.9655	7218.7	6336.05
945.7048	2161.4764	7236.55	6354.3
945.8399	2162.9865	7193.7	6309.35
945.9749	2164.4958	7168.55	6283.65
946.1099	2166.0045	7147.7	6260.1
946.2449	2167.5124	7122.55	6239
946.3799	2169.0195	7104.35	6220.5
946.5148	2170.526	7130.95	6246.6
946.6498	2172.0317	7105.6	6220.55
946.7846	2173.5367	7072	6187.25
946.9195	2175.0409	7049.4	6167.5
947.0543	2176.5445	7052.6	6168
947.1891	2178.0473	7024.6	6138.25
947.3239	2179.5494	6990	6099.85
947.4587	2181.0507	6995.5	6110.1
947.5934	2182.5513	6934.1	6048.1
947.7281	2184.0512	6926.9	6043.15
947.8628	2185.5504	6910.4	6024.75
947.9974	2187.0488	6862.2	5979.45
948.132	2188.5465	6856.7	5972.85
948.2666	2190.0435	6842.6	5957.55
948.4012	2191.5397	6822.65	5937.35
948.5357	2193.0353	6786.1	5903.3
948.6702	2194.5301	6782.3	5891.9
948.8047	2196.0241	6741.2	5853.45
948.9392	2197.5175	6741.65	5855.75
949.0736	2199.0101	6712.45	5822.95
949.208	2200.502	6684.85	5802.6
949.3424	2201.9931	6658.8	5775
949.4767	2203.4835	6616.75	5732.2
949.611	2204.9733	6615.25	5727.4
949.7453	2206.4622	6610.15	5726.7
949.8796	2207.9505	6574.7	5687.8
950.0138	2209.438	6530.9	5650.95
950.148	2210.9248	6538.35	5654.75
950.2822	2212.4109	6512.15	5629.45
950.4164	2213.8962	6489.35	5601.65
950.5505	2215.3809	6473.7	5586.4
950.6846	2216.8648	6470.8	5585
950.8186	2218.3479	6450.15	5560.95
950.9527	2219.8304	6408.15	5516.3
951.0867	2221.3121	6401.55	5511.25
951.2207	2222.7931	6370.25	5484.55
951.3546	2224.2733	6356.65	5470.6
951.4886	2225.7529	6329.35	5443.15
951.6225	2227.2317	6327.2	5440.2
951.7563	2228.7098	6315.3	5432.5
951.8902	2230.1872	6266.65	5384.7
952.024	2231.6638	6274.4	5390.55
952.1578	2233.1397	6258.95	5370.05
952.2916	2234.6149	6231.95	5349.4
952.4253	2236.0894	6203.25	5318.85
952.559	2237.5632	6175.8	5290.55
952.6927	2239.0362	6165.5	5283.45
952.8263	2240.5085	6151.45	5268.85
952.9599	2241.9801	6119.3	5234.75
953.0935	2243.4509	6115.35	5229.6
953.2271	2244.921	6099.05	5212.65
953.3606	2246.3904	6070.45	5180.75
953.4941	2247.8591	6053.5	5167.55
953.6276	2249.3271	6038.1	5153.05
953.7611	2250.7943	6018.8	5134.35
953.8945	2252.2608	5991.95	5104.7
954.0279	2253.7266	5972.35	5086.1
954.1612	2255.1917	5967.85	5083.4
954.2946	2256.656	5921.7	5036.8
954.4279	2258.1197	5916.85	5033.8
954.5612	2259.5826	5917.75	5032.2
954.6944	2261.0447	5902.15	5018.5
954.8276	2262.5062	5886.25	4998.7
954.9608	2263.9669	5873.05	4983.4
955.094	2265.4269	5855.9	4971.5
955.2271	2266.8862	5826.8	4941.6
955.3602	2268.3448	5830.55	4946.05
955.4933	2269.8026	5832.4	4948.5
955.6264	2271.2598	5807.05	4922.4
955.7594	2272.7162	5765.15	4882.55
955.8924	2274.1719	5756.15	4871.65
956.0253	2275.6268	5759.05	4874.65
956.1583	2277.0811	5737.95	4852.5
956.2912	2278.5346	5715.9	4833.2
956.4241	2279.9874	5716.4	4831.55
956.5569	2281.4395	5691.55	4809.7
956.6897	2282.8908	5691.7	4801.7
956.8225	2284.3414	5668.45	4783.95
956.9553	2285.7914	5648.4	4765.8
957.088	2287.2406	5626.95	4742.65
957.2207	2288.689	5609.55	4724.65
957.3534	2290.1368	5606.35	4716.9
957.486	2291.5838	5591.65	4701.8
957.6186	2293.0302	5585	4698.3
957.7512	2294.4758	5570.45	4686.25
957.8838	2295.9206	5530.2	4643.5
958.0163	2297.3648	5515.45	4630.75
958.1488	2298.8082	5511.2	4625.95
958.2813	2300.251	5490.95	4604.4
958.4137	2301.693	5479.05	4591.5
958.5461	2303.1343	5443.15	4557.1
958.6785	2304.5748	5442.2	4556.15
958.8108	2306.0147	5425.75	4541.5
958.9432	2307.4538	5414.2	4528.15
959.0754	2308.8922	5426.2	4544.6
959.2077	2310.3299	5381.1	4497.6
959.3399	2311.7669	5371.4	4485.5
959.4721	2313.2031	5355.7	4472.45
959.6043	2314.6387	5328.4	4443.7
959.7365	2316.0735	5320.95	4435.25
959.8686	2317.5076	5299.8	4414.95
960.0006	2318.941	5289.55	4404
960.1327	2320.3737	5276.55	4389.4
960.2647	2321.8056	5269.95	4381.4
960.3967	2323.2369	5248.6	4361.45
960.5287	2324.6674	5211.3	4323.4
960.6606	2326.0972	5216.15	4327.9
960.7925	2327.5263	5197.05	4311.95
960.9244	2328.9547	5177.9	4290.9
961.0562	2330.3823	5181.25	4295.3
961.1881	2331.8092	5170.45	4279.4
961.3198	2333.2355	5137.95	4251.25
961.4516	2334.661	5141.2	4255.3
961.5833	2336.0858	5116.4	4230.35
961.715	2337.5098	5128.3	4241.05
961.8467	2338.9332	5112.1	4224.7
961.9783	2340.3558	5074	4185.4
962.1099	2341.7778	5071.45	4187.95
962.2415	2343.199	5056.55	4171.2
962.373	2344.6195	5042.45	4158.15
962.5045	2346.0393	5015.85	4130.2
962.636	2347.4583	5036.25	4149.55
962.7675	2348.8767	4998.9	4112.2
962.8989	2350.2943	4988.15	4101.75
963.0303	2351.7113	4993.4	4104.9
963.1617	2353.1275	4968.75	4081.2
963.293	2354.543	4973.75	4063.4
963.4243	2355.9578	4948.8	4060.25
963.5556	2357.3718	4919.9	4034.85
963.6868	2358.7852	4875.4	3987.75
963.818	2360.1978	4876.8	3991.7
963.9492	2361.6098	4877.3	3992
964.0803	2363.021	4857.4	3971.35
964.2114	2364.4315	4838.4	3953.2
964.3425	2365.8413	4839.2	3948.45
964.4736	2367.2504	4821.2	3937
964.6046	2368.6587	4771.25	3885.55
964.7356	2370.0664	4772.9	3889.25
964.8666	2371.4733	4776.2	3891.45
964.9975	2372.8795	4751.25	3866.75
965.1284	2374.285	4719.45	3834.05
965.2593	2375.6899	4705.45	3821.1
965.3901	2377.0939	4698.4	3815.7
965.5209	2378.4973	4690.65	3809.25
965.6517	2379.9	4666.2	3782.1
965.7825	2381.3019	4653.55	3767.85
965.9132	2382.7032	4648.65	3764.5
966.0439	2384.1037	4627.7	3745.7
966.1745	2385.5035	4604.05	3719.9
966.3051	2386.9027	4607.65	3724.3
966.4357	2388.3011	4589.85	3703.75
966.5663	2389.6987	4575.9	3694.65
966.6968	2391.0957	4574.7	3691.45
966.8273	2392.492	4533.95	3651.5
966.9578	2393.8876	4505.85	3620.85
967.0882	2395.2824	4483.5	3599.7
967.2186	2396.6765	4478.15	3593.15
967.349	2398.07	4471.35	3588.3
967.4793	2399.4627	4466.8	3582.55
967.6097	2400.8547	4451.1	3563.65
967.7399	2402.246	4449.6	3559.65
967.8702	2403.6366	4420.55	3538
968.0004	2405.0265	4412.8	3529.05
968.1306	2406.4156	4389.25	3503.45
968.2607	2407.8041	4375	3488.3
968.3909	2409.1918	4361.4	3474.35
968.521	2410.5789	4347.55	3462.2
968.651	2411.9652	4352.15	3464.15
968.781	2413.3508	4332.05	3447.7
968.911	2414.7358	4316.7	3432.3
969.041	2416.12	4292.8	3408.9
969.1709	2417.5035	4277.95	3393.4
969.3008	2418.8863	4269.95	3383.8
969.4307	2420.2684	4261.85	3378.15
969.5606	2421.6497	4246	3360.15
969.6904	2423.0304	4224.8	3340.35
969.8201	2424.4104	4219.3	3335.85
969.9499	2425.7896	4200.65	3315.85
970.0796	2427.1682	4191.3	3307.85
970.2093	2428.546	4189.4	3303.75
970.3389	2429.9232	4174.95	3287.9
970.4685	2431.2996	4165.1	3280.65
970.5981	2432.6753	4166.75	3281.25
970.7277	2434.0503	4150.85	3265
970.8572	2435.4246	4131.45	3248.4
970.9867	2436.7982	4125.25	3238.7
971.1161	2438.1711	4117.55	3233.9
971.2456	2439.5433	4095.9	3207.55
971.375	2440.9148	4089.7	3200.7
971.5043	2442.2856	4059.15	3174.25
971.6336	2443.6557	4053.3	3166.9
971.7629	2445.025	4041.3	3156.75
971.8922	2446.3937	4046	3160.1
972.0214	2447.7617	4024.6	3141.45
972.1506	2449.1289	4024.8	3140.7
972.2798	2450.4955	4016.4	3127.2
972.4089	2451.8613	4008.9	3125.95
972.538	2453.2265	3994.4	3111.2
972.6671	2454.5909	3990.75	3106.4
972.7961	2455.9546	3988.9	3103.95
972.9251	2457.3177	3938.6	3055.4
973.0541	2458.68	3947.15	3058.85
973.1831	2460.0416	3947.5	3065.25
973.312	2461.4025	3943.05	3057.25
973.4408	2462.7627	3957.45	3062.65
973.5697	2464.1222	3923.5	3041.35
973.6985	2465.4811	3906.95	3022.3
973.8273	2466.8392	3903.35	3019.3
973.956	2468.1966	3881.4	2994.85
974.0847	2469.5533	3881.55	2993.85
974.2134	2470.9093	3876.6	2988.75
974.3421	2472.2645	3873.7	2986
974.4707	2473.6191	3872.4	2987.75
974.5993	2474.973	3847.65	2962
974.7278	2476.3262	3830.45	2944.85
974.8563	2477.6787	3815.25	2931.2
974.9848	2479.0305	3796.45	2913.15
975.1132	2480.3816	3792.8	2906.35
975.2417	2481.7319	3788.65	2904.9
975.37	2483.0816	3769.6	2883.3
975.4984	2484.4306	3750.5	2866.45
975.6267	2485.7789	3745.8	2864.45
975.755	2487.1264	3738.6	2853
975.8833	2488.4733	3714.95	2832.15
976.0115	2489.8195	3728.95	2828.5
976.1397	2491.165	3702.8	2814
976.2678	2492.5097	3688.8	2802.75
976.3959	2493.8538	3674.05	2790.9
976.524	2495.1972	3649.8	2765.45
976.6521	2496.5398	3639.9	2753.45
976.7801	2497.8818	3654.6	2766.7
976.9081	2499.2231	3632.85	2749.45
977.036	2500.5637	3622.5	2736.25
977.164	2501.9035	3615.5	2727.75
977.2918	2503.2427	3612.2	2723.1
977.4197	2504.5812	3592.8	2707.55
977.5475	2505.919	3586.45	2698.8
977.6753	2507.256	3580.55	2694.9
977.8031	2508.5924	3560.7	2675.95
977.9308	2509.9281	3580.55	2691.15
978.0585	2511.2631	3550.95	2666.15
978.1861	2512.5974	3539.3	2654.15
978.3137	2513.9309	3530.45	2645.9
978.4413	2515.2638	3554.55	2646.1
978.5689	2516.596	3531.7	2647.55
978.6964	2517.9275	3501.75	2617.1
978.8239	2519.2583	3498.55	2615.4
978.9513	2520.5884	3461.35	2576.9
979.0788	2521.9178	3455	2570.15
979.2062	2523.2465	3467.05	2583.3
979.3335	2524.5745	3439.5	2554.2
979.4608	2525.9018	3445.65	2562.45
979.5881	2527.2284	3431.8	2546.85
979.7154	2528.5543	3412.95	2530.65
979.8426	2529.8796	3421.5	2536.3
979.9698	2531.2041	3419.8	2536.9
980.0969	2532.5279	3400.85	2516.4
980.224	2533.851	3397.8	2512.9
980.3511	2535.1735	3391.25	2506.8
980.4781	2536.4952	3376.95	2493.35
980.6052	2537.8163	3379.05	2493.95
980.7321	2539.1366	3370.1	2485.45
980.8591	2540.4562	3358.9	2472.2
980.986	2541.7752	3356.8	2474.15
981.1129	2543.0935	3346.05	2459.35
981.2397	2544.411	3340.65	2454.75
981.3665	2545.7279	3327.45	2442.4
981.4933	2547.0441	3327.35	2442.9
981.62	2548.3596	3321.85	2436.45
981.7467	2549.6744	3325.35	2440.25
981.8734	2550.9885	3315.9	2429.2
982.0001	2552.3019	3298.5	2415.95
982.1267	2553.6146	3302.8	2419.4
982.2532	2554.9266	3287.8	2400.6
982.3798	2556.2379	3269.8	2384.95
982.5063	2557.5485	3274.35	2391.2
982.6327	2558.8585	3262.6	2371.2
982.7592	2560.1677	3253.75	2364.3
982.8856	2561.4762	3259.2	2372.95
983.0119	2562.7841	3243.75	2357
983.1383	2564.0913	3239.7	2357.2
983.2646	2565.3977	3224.85	2341.85
983.3908	2566.7035	3225.5	2340.9
983.517	2568.0086	3232.95	2348.05
983.6432	2569.313	3229.5	2343.95
983.7694	2570.6167	3218.5	2330.4
983.8955	2571.9197	3203.85	2319.45
984.0216	2573.222	3194.55	2306.85
984.1476	2574.5236	3195.05	2308.85
984.2737	2575.8246	3181.5	2292.3
984.3996	2577.1248	3176	2288.25
984.5256	2578.4244	3165.5	2284
984.6515	2579.7232	3170.3	2285.4
984.7774	2581.0214	3195.7	2279.7
984.9032	2582.3189	3172.6	2286.6
985.029	2583.6157	3171.1	2281.65
985.1548	2584.9118	3157.55	2272.65
985.2806	2586.2072	3149.3	2263.85
985.4063	2587.5019	3137.45	2252.95
985.5319	2588.7959	3138.35	2251.95
985.6576	2590.0893	3143.5	2256.2
985.7832	2591.3819	3140.4	2257.15
985.9087	2592.6739	3118.35	2232.65
986.0343	2593.9652	3111.75	2225.15
986.1597	2595.2557	3115.8	2230.35
986.2852	2596.5456	3109.7	2221.55
986.4106	2597.8348	3100.05	2216.3
986.536	2599.1234	3092.65	2208.25
986.6614	2600.4112	3107.3	2222.95
986.7867	2601.6983	3078.25	2188.8
986.912	2602.9848	3077.15	2191.75
987.0372	2604.2705	3075.65	2185.45
987.1624	2605.5556	3074.05	2187.3
987.2876	2606.84	3070.4	2186.85
987.4128	2608.1237	3039.6	2152.6
987.5379	2609.4067	3035.75	2149.75
987.6629	2610.689	3027.25	2133.5
987.788	2611.9707	3023.6	2133.8
987.913	2613.2516	3004.6	2114.2
988.0379	2614.5319	2996.65	2112.1
988.1629	2615.8115	2989.5	2104.7
988.2878	2617.0903	2977.25	2091.1
988.4126	2618.3685	2968.05	2082.3
988.5375	2619.6461	2956.55	2071.6
988.6622	2620.9229	2959.65	2075.75
988.787	2622.199	2969.25	2083.6
988.9117	2623.4745	2950.75	2064.45
989.0364	2624.7493	2926.2	2040.65
989.161	2626.0234	2936.8	2053.5
989.2857	2627.2968	2917.85	2032.65
989.4102	2628.5695	2929.75	2043.8
989.5348	2629.8415	2908.65	2022.55
989.6593	2631.1128	2905.2	2017.35
989.7837	2632.3835	2903.9	2018.45
989.9082	2633.6535	2899	2013
990.0326	2634.9228	2884.6	1999.05
990.1569	2636.1914	2874.9	1992
990.2812	2637.4593	2876.75	1992.55
990.4055	2638.7265	2879.1	1994.7
990.5298	2639.9931	2859.15	1974.25
990.654	2641.259	2853.7	1965.5
990.7782	2642.5242	2856.8	1970.1
990.9023	2643.7887	2844.95	1960.4
991.0264	2645.0525	2835.7	1951.9
991.1505	2646.3156	2836.8	1948.65
991.2745	2647.5781	2823.6	1939.75
991.3985	2648.8398	2803.15	1919.15
991.5225	2650.1009	2819.7	1928.8
991.6464	2651.3613	2790.55	1907.3
991.7703	2652.6211	2794.55	1910.1
991.8942	2653.8801	2768.85	1884.65
992.018	2655.1385	2792.75	1905.55
992.1418	2656.3961	2771.8	1886.5
992.2655	2657.6531	2763.75	1878.55
992.3892	2658.9094	2760.8	1878.35
992.5129	2660.1651	2761.65	1877.15
992.6366	2661.42	2759.5	1875.05
992.7602	2662.6743	2757	1871.65
992.8837	2663.9279	2764.05	1879.45
993.0073	2665.1808	2755.55	1869.25
993.1307	2666.433	2743.3	1857.75
993.2542	2667.6846	2736.85	1852.15
993.3776	2668.9354	2744.8	1857.5
993.501	2670.1856	2735.15	1850.5
993.6244	2671.4351	2729.15	1845.2
993.7477	2672.6839	2725.5	1839
993.8709	2673.9321	2734.95	1851.75
993.9942	2675.1795	2729.8	1843.65
994.1174	2676.4263	2718.3	1834.5
994.2405	2677.6724	2720.55	1837.4
994.3637	2678.9179	2703.45	1818.7
994.4868	2680.1626	2700.9	1817.7
994.6098	2681.4067	2704.9	1819.1
994.7328	2682.6501	2700.05	1815.85
994.8558	2683.8928	2690.2	1803.85
994.9788	2685.1348	2682	1798.25
995.1017	2686.3761	2681.75	1798.3
995.2245	2687.6168	2676.15	1792.2
995.3474	2688.8568	2663.95	1779.75
995.4702	2690.0961	2655.75	1770.65
995.5929	2691.3348	2646.95	1762.05
995.7156	2692.5727	2642	1757.1
995.8383	2693.81	2633.95	1748.25
995.961	2695.0466	2624.6	1743.7
996.0836	2696.2826	2606.75	1719.5
996.2062	2697.5178	2619.6	1732.8
996.3287	2698.7524	2620.05	1735.05
996.4512	2699.9863	2608.55	1722.4
996.5737	2701.2195	2599.1	1718.95
996.6961	2702.452	2597.85	1712.5
996.8185	2703.6839	2601	1716.9
996.9408	2704.9151	2600.45	1718.25
997.0631	2706.1456	2592.6	1710
997.1854	2707.3755	2604.65	1720.05
997.3077	2708.6046	2607	1720.7
997.4299	2709.8331	2616.45	1730.55
997.552	2711.0609	2608.6	1724.5
997.6742	2712.2881	2609.95	1724.4
997.7963	2713.5145	2610.25	1727.2
997.9183	2714.7403	2622.8	1738.55
998.0403	2715.9654	2634.35	1751.2
998.1623	2717.1899	2639.85	1740.2
998.2842	2718.4136	2639.95	1757.1
998.4062	2719.6367	2637	1753.5
998.528	2720.8591	2650.6	1758.75
998.6498	2722.0809	2655.25	1770.05
998.7716	2723.3019	2657.15	1770
998.8934	2724.5223	2657.9	1773
999.0151	2725.7421	2668.9	1783.15
999.1368	2726.9611	2669.5	1784.1
999.2584	2728.1795	2648.35	1759.15
999.38	2729.3972	2637.15	1754.7
999.5016	2730.6142	2640.75	1744.75
999.6231	2731.8306	2594.8	1708.45
999.7446	2733.0462	2599.2	1713.6
999.8661	2734.2612	2569.15	1679.8
999.9875	2735.4756	2548.9	1665.15
1000.1089	2736.6892	2528.4	1643.85
1000.2302	2737.9022	2500.4	1618.85
1000.3515	2739.1145	2482.75	1598.15
1000.4728	2740.3262	2468.45	1578.5
1000.594	2741.5372	2447.9	1564.05
1000.7152	2742.7475	2432.35	1547.7
1000.8363	2743.9571	2430.05	1543.35
1000.9575	2745.1661	2425.7	1536.85
1001.0785	2746.3744	2402.4	1519.35
1001.1996	2747.582	2376.75	1494.3
1001.3206	2748.7889	2368.55	1481.6
1001.4415	2749.9952	2362.4	1477.75
1001.5625	2751.2008	2354.1	1471.15
1001.6833	2752.4057	2350.9	1464.85
1001.8042	2753.61	2338.4	1455.25
1001.925	2754.8136	2335	1449.15
1002.0458	2756.0165	2329.75	1445.8
1002.1665	2757.2188	2322.65	1442.55
1002.2872	2758.4204	2309.6	1425.45
1002.4078	2759.6213	2315.65	1430.4
1002.5285	2760.8215	2309.45	1423.95
1002.649	2762.0211	2302.3	1417.95
1002.7696	2763.22	2309.35	1423.8
1002.8901	2764.4182	2292.9	1405.8
1003.0106	2765.6158	2293.4	1408.15
1003.131	2766.8127	2279.1	1394
1003.2514	2768.009	2270.85	1388
1003.3717	2769.2045	2266.8	1381.3
1003.492	2770.3994	2271.25	1387.05
1003.6123	2771.5936	2263.7	1379.1
1003.7325	2772.7872	2260.75	1380.65
1003.8527	2773.9801	2241.6	1356
1003.9729	2775.1723	2266.6	1368.25
1004.093	2776.3639	2243.5	1362.45
1004.2131	2777.5548	2236.2	1349.2
1004.3331	2778.745	2235.45	1349.7
1004.4531	2779.9346	2239.75	1357.3
1004.5731	2781.1235	2221	1335.6
1004.693	2782.3117	2227.15	1346.3
1004.8129	2783.4992	2230.95	1347.05
1004.9328	2784.6861	2230.65	1347.75
1005.0526	2785.8723	2236.6	1351.9
1005.1723	2787.0579	2230.1	1348.5
1005.2921	2788.2428	2240.95	1358.65
1005.4118	2789.427	2240.4	1358.45
1005.5314	2790.6106	2255.45	1372.65
1005.651	2791.7935	2251.7	1368
1005.7706	2792.9757	2271.05	1389.8
1005.8902	2794.1573	2268.45	1382.85
1006.0097	2795.3382	2281	1398.55
1006.1291	2796.5184	2295	1412.05
1006.2485	2797.698	2307.3	1421
1006.3679	2798.8769	2322.95	1442.05
1006.4873	2800.0551	2336.6	1452.95
1006.6066	2801.2327	2351.35	1467.2
1006.7258	2802.4096	2362.55	1481.45
1006.8451	2803.5859	2381.45	1498.6
1006.9642	2804.7615	2395.9	1513
1007.0834	2805.9364	2421.1	1540.05
1007.2025	2807.1106	2446.55	1562.15
1007.3216	2808.2842	2470.85	1585.9
1007.4406	2809.4572	2501.9	1618.05
1007.5596	2810.6294	2547.2	1664
1007.6785	2811.801	2581.15	1701.05
1007.7975	2812.972	2613.3	1731.3
1007.9163	2814.1423	2669.05	1787
1008.0352	2815.3119	2693.95	1811.75
1008.154	2816.4808	2740.4	1858.7
1008.2727	2817.6491	2799.5	1915.6
1008.3914	2818.8167	2849.05	1967.6
1008.5101	2819.9837	2885.3	1996.35
1008.6288	2821.15	2937.3	2054.75
1008.7474	2822.3157	2974.1	2091.5
1008.8659	2823.4807	3018.85	2135.6
1008.9844	2824.645	3057.65	2174.55
1009.1029	2825.8086	3101.85	2220.65
1009.2214	2826.9716	3133.15	2251.1
1009.3398	2828.134	3177.95	2297.9
1009.4581	2829.2957	3199.35	2316.7
1009.5764	2830.4567	3231	2351.25
1009.6947	2831.617	3237.6	2354.8
1009.813	2832.7767	3257.55	2375.35
1009.9312	2833.9358	3256.7	2376.35
1010.0493	2835.0941	3252	2366.9
1010.1675	2836.2519	3242.15	2360.05
1010.2855	2837.4089	3217.75	2332.15
1010.4036	2838.5653	3204.1	2322.65
1010.5216	2839.7211	3211.8	2332.4
1010.6396	2840.8761	3227.1	2342.4
1010.7575	2842.0306	3234.45	2352.25
1010.8754	2843.1843	3271.75	2387.8
1010.9932	2844.3374	3320.85	2440
1011.111	2845.4899	3383.65	2500.2
1011.2288	2846.6417	3446.25	2563.6
1011.3465	2847.7928	3542.35	2660.6
1011.4642	2848.9433	3620.75	2737.6
1011.5818	2850.0931	3696.65	2815.2
1011.6995	2851.2422	3772.6	2887.55
1011.817	2852.3907	3838.5	2955.2
1011.9345	2853.5385	3919.9	3035.8
1012.052	2854.6857	3973.3	3082.45
1012.1695	2855.8323	4003.25	3121.95
1012.2869	2856.9781	4056.2	3173.1
1012.4042	2858.1233	4094.8	3212.3
1012.5216	2859.2679	4149.85	3267.35
1012.6389	2860.4118	4189.7	3308.2
1012.7561	2861.555	4238.2	3352.45
1012.8733	2862.6976	4254.2	3369.6
1012.9905	2863.8395	4289.45	3407.65
1013.1076	2864.9808	4303.75	3421.3
1013.2247	2866.1214	4316.95	3437
1013.3417	2867.2614	4335	3452.35
1013.4587	2868.4007	4347.55	3464
1013.5757	2869.5393	4350.45	3466.05
1013.6926	2870.6773	4345.35	3462.8
1013.8095	2871.8146	4367.35	3481.9
1013.9263	2872.9513	4380.8	3496.3
1014.0431	2874.0874	4363.75	3480.45
1014.1599	2875.2227	4350	3467.75
1014.2766	2876.3574	4319.8	3437.2
1014.3933	2877.4915	4301.75	3420.35
1014.51	2878.6249	4282.7	3400.75
1014.6266	2879.7577	4241.65	3357.45
1014.7431	2880.8898	4240.75	3347.65
1014.8596	2882.0212	4210.65	3331.25
1014.9761	2883.152	4175.35	3292.9
1015.0925	2884.2821	4175.6	3296.2
1015.2089	2885.4116	4173.75	3291.8
1015.3253	2886.5405	4161.95	3280.5
1015.4416	2887.6686	4175.6	3289.4
1015.5579	2888.7962	4168	3286.25
1015.6741	2889.923	4177.05	3294.9
1015.7903	2891.0493	4175.55	3295.35
1015.9065	2892.1748	4197.15	3315.05
1016.0226	2893.2997	4195.5	3315.5
1016.1387	2894.424	4212.45	3331.1
1016.2547	2895.5476	4231.65	3350.05
1016.3707	2896.6706	4252.3	3371.05
1016.4866	2897.7929	4265.85	3382.65
1016.6025	2898.9145	4317	3432.2
1016.7184	2900.0355	4339.4	3457.1
1016.8342	2901.1559	4379.85	3499.15
1016.95	2902.2756	4384.3	3502.15
1017.0658	2903.3946	4412.75	3532.5
1017.1815	2904.513	4450.75	3565.75
1017.2971	2905.6308	4469.4	3589.4
1017.4127	2906.7479	4486.75	3602.75
1017.5283	2907.8643	4521.2	3639.1
1017.6439	2908.9801	4526.75	3641.95
1017.7594	2910.0953	4526.35	3645.55
1017.8748	2911.2098	4524.9	3641.1
1017.9902	2912.3236	4533.35	3645.1
1018.1056	2913.4368	4507.1	3623.05
1018.2209	2914.5494	4478.6	3595.75
1018.3362	2915.6613	4466.15	3577.9
1018.4515	2916.7725	4430.45	3547.4
1018.5667	2917.8831	4397.7	3514.65
1018.6819	2918.9931	4373.2	3486.75
1018.797	2920.1024	4341.4	3460
1018.9121	2921.211	4319.5	3439.95
1019.0271	2922.319	4289.3	3406.8
1019.1421	2923.4264	4273.75	3392.2
1019.2571	2924.5331	4242.3	3362.5
1019.372	2925.6391	4236.75	3356.1
1019.4869	2926.7445	4231.25	3351.3
1019.6017	2927.8493	4214.4	3333.25
1019.7165	2928.9534	4203.7	3322.2
1019.8313	2930.0569	4201.3	3319.05
1019.946	2931.1597	4198.1	3315.4
1020.0606	2932.2619	4169	3288.05
1020.1753	2933.3634	4164.05	3281.8
1020.2899	2934.4643	4152.15	3264.65
1020.4044	2935.5645	4130.85	3242.7
1020.5189	2936.6641	4096.35	3210.85
1020.6334	2937.763	4035	3154.25
1020.7478	2938.8613	4007.45	3126.3
1020.8622	2939.959	3937.7	3050.85
1020.9765	2941.056	3862.15	2982.8
1021.0908	2942.1523	3765.15	2881.95
1021.2051	2943.248	3664.5	2783.75
1021.3193	2944.3431	3582.2	2701.55
1021.4334	2945.4375	3456.45	2576.65
1021.5476	2946.5313	3359.5	2481.95
1021.6617	2947.6244	3262.85	2380.9
1021.7757	2948.7169	3162.15	2280.9
1021.8897	2949.8087	3061.2	2183.05
1022.0037	2950.8999	2963.5	2080.9
1022.1176	2951.9904	2876.3	1995.9
1022.2315	2953.0803	2799.85	1917.4
1022.3453	2954.1696	2733.05	1852.6
1022.4591	2955.2582	2688.5	1806.5
1022.5728	2956.3462	2635.2	1753.3
1022.6865	2957.4335	2598.4	1716.15
1022.8002	2958.5202	2555.55	1674.3
1022.9138	2959.6062	2522.45	1641.25
1023.0274	2960.6916	2491.6	1610.75
1023.141	2961.7764	2478.2	1596.3
1023.2545	2962.8605	2463.5	1583.75
1023.3679	2963.9439	2447.55	1566.35
1023.4813	2965.0267	2435.75	1553.6
1023.5947	2966.1089	2440.3	1538
1023.708	2967.1905	2423.9	1542.9
1023.8213	2968.2714	2421.8	1540.75
1023.9346	2969.3516	2415.2	1534.3
1024.0478	2970.4312	2421.65	1533.75
1024.1609	2971.5102	2408.55	1528.75
1024.274	2972.5885	2407.2	1527.95
1024.3871	2973.6662	2415.15	1529.35
1024.5002	2974.7432	2404.15	1523.5
1024.6132	2975.8196	2389	1508.75
1024.7261	2976.8954	2383.4	1502.7
1024.839	2977.9705	2361.3	1480.95
1024.9519	2979.045	2346.45	1467.7
1025.0647	2980.1188	2322.65	1441.25
1025.1775	2981.192	2308.3	1431.1
1025.2902	2982.2645	2292.25	1409.5
1025.4029	2983.3364	2257.2	1376.65
1025.5156	2984.4077	2232.4	1350.3
1025.6282	2985.4783	2201.75	1315.9
1025.7407	2986.5483	2164.4	1285.65
1025.8532	2987.6177	2130.3	1248.1
1025.9657	2988.6864	2096.65	1216.75
1026.0782	2989.7545	2061.9	1180.9
1026.1906	2990.8219	2018.6	1138.6
1026.3029	2991.8887	1987.4	1104.5
1026.4152	2992.9548	1960.4	1076.85
1026.5275	2994.0204	1920.65	1042.7
1026.6397	2995.0852	1889.3	1010.45
1026.7519	2996.1495	1884.25	1001.9
1026.864	2997.2131	1848.65	967.8
1026.9761	2998.276	1818.05	938.65
1027.0882	2999.3383	1806.25	924.1
1027.2002	3000.4	1783.4	901.3
1027.3122	3001.4611	1763.2	881.45
1027.4241	3002.5215	1745.4	864.05
1027.536	3003.5812	1739.1	858.95
1027.6478	3004.6404	1718.95	836.3
1027.7596	3005.6989	1704.7	822.35
1027.8714	3006.7567	1700.65	821.95
1027.9831	3007.8139	1711.55	810
1028.0947	3008.8705	1687.15	804.95
1028.2064	3009.9264	1695.15	797.25
1028.3179	3010.9818	1672.45	791.3
1028.4295	3012.0364	1665.8	783.8
1028.541	3013.0905	1657.6	777.05
1028.6524	3014.1439	1660.5	780.4
1028.7638	3015.1966	1659.35	779.8
1028.8752	3016.2487	1654.2	773.25
1028.9865	3017.3002	1660.65	774.5
1029.0978	3018.3511	1652.65	774.45
1029.209	3019.4013	1651.15	772.45
1029.3202	3020.4509	1654.95	773.95
1029.4314	3021.4998	1646.8	766.05
1029.5425	3022.5481	1651.15	770.2
1029.6535	3023.5958	1657.7	779.05
1029.7645	3024.6428	1652.95	773.15
1029.8755	3025.6892	1649.85	771.55
1029.9864	3026.735	1656.65	777.2
1030.0973	3027.7802	1656.25	776.65
1030.2082	3028.8247	1649.7	768.15
1030.319	3029.8685	1657.75	776.25
1030.4297	3030.9118	1660.3	778.1
1030.5404	3031.9544	1668.8	788.55
1030.6511	3032.9963	1660.05	776.85
1030.7617	3034.0376	1672.55	792.5
1030.8723	3035.0783	1671.5	787.25
1030.9829	3036.1184	1674.9	792.95
1031.0934	3037.1578	1667.45	786.5
1031.2038	3038.1966	1676.05	794.05
1031.3142	3039.2348	1674.25	793.6
1031.4246	3040.2723	1686.35	796.2
1031.5349	3041.3092	1666.6	788.45
1031.6452	3042.3455	1667.85	787.6
1031.7554	3043.3811	1667.45	787.75
1031.8656	3044.4161	1655.95	775.95
1031.9758	3045.4505	1643.1	764.55
1032.0859	3046.4842	1652.7	770.25
1032.1959	3047.5173	1634.25	754.35
1032.3059	3048.5498	1621.65	740
1032.4159	3049.5816	1628.3	748.3
1032.5258	3050.6128	1619.8	737.3
1032.6357	3051.6434	1605.75	724.35
1032.7455	3052.6734	1593.9	711.6
1032.8553	3053.7027	1586.9	706.9
1032.9651	3054.7314	1585.85	705.1
1033.0748	3055.7594	1575.65	695.65
1033.1845	3056.7868	1576.6	693.75
1033.2941	3057.8136	1558.8	681.25
1033.4037	3058.8398	1555.15	674.5
1033.5132	3059.8653	1548.2	667.95
1033.6227	3060.8902	1543.45	662.65
1033.7321	3061.9145	1538.95	658.9
1033.8415	3062.9381	1527.4	647.9
1033.9509	3063.9612	1538.2	641.3
1034.0602	3064.9835	1525.8	645.65
1034.1694	3066.0053	1504	620.8
1034.2787	3067.0264	1498.85	619.85
1034.3878	3068.0469	1493.8	612.1
1034.497	3069.0668	1486.4	603.35
1034.6061	3070.086	1477.45	596.7
1034.7151	3071.1046	1469.9	587.95
1034.8241	3072.1226	1459.45	578.7
1034.9331	3073.1399	1449.65	568.95
1035.042	3074.1567	1438.65	559.05
1035.1508	3075.1727	1430.8	550.45
1035.2597	3076.1882	1418.65	537.25
1035.3684	3077.203	1404.8	524.35
1035.4772	3078.2173	1394.7	513.5
1035.5859	3079.2308	1391.7	510
1035.6945	3080.2438	1381	501.35
1035.8031	3081.2561	1365.45	484.25
1035.9117	3082.2678	1362.8	483.35
1036.0202	3083.2789	1354.05	473.8
1036.1286	3084.2893	1343.95	466.05
1036.2371	3085.2991	1337.15	457.35
1036.3454	3086.3083	1332.45	448.7
1036.4538	3087.3169	1325.95	444.6
1036.562	3088.3248	1326.7	445.1
1036.6703	3089.3321	1315.55	432.25
1036.7785	3090.3388	1312.6	433.85
1036.8866	3091.3449	1306.45	427.9
1036.9948	3092.3503	1297.2	414.7
1037.1028	3093.3551	1294.95	416.3
1037.2108	3094.3593	1289.6	408.9
1037.3188	3095.3629	1285.35	405.75
1037.4267	3096.3658	1281.8	400.2
1037.5346	3097.3681	1280.35	399.8
1037.6425	3098.3698	1276.9	395.55
1037.7503	3099.3708	1277.55	391.9
1037.858	3100.3713	1272.15	391.25
1037.9657	3101.3711	1263.2	381.25
1038.0734	3102.3702	1395.4	380.8
1038.181	3103.3688	1259.7	377.95
1038.2886	3104.3667	1252.85	372.9
1038.3961	3105.364	1258.05	379.05
1038.5036	3106.3607	1255.6	374.45
1038.611	3107.3568	1246.25	364.3
1038.7184	3108.3522	1237.55	360.4
1038.8257	3109.347	1237.9	356.1
1038.933	3110.3412	1244.1	360.95
1039.0403	3111.3348	1235.95	354.65
1039.1475	3112.3277	1234.6	354.6
1039.2547	3113.32	1231.45	353.35
1039.3618	3114.3117	1231.55	349.55
1039.4689	3115.3028	1225.75	347.65
1039.5759	3116.2932	1230.8	348.85
1039.6829	3117.2831	1225.45	339.25
1039.7898	3118.2723	1215.95	336.15
1039.8967	3119.2608	1213.6	334.05
1040.0035	3120.2488	1214	333.25
1040.1103	3121.2361	1215.85	335.15
1040.2171	3122.2229	1213.2	332.5
1040.3238	3123.209	1210.85	328.9
1040.4305	3124.1944	1208.25	330.25
1040.5371	3125.1793	1200.85	317.8
1040.6437	3126.1635	1197.2	319.55
1040.7502	3127.1471	1198.65	317.85
1040.8567	3128.1301	1204.05	326.3
1040.9631	3129.1125	1198.6	319.9
1041.0695	3130.0942	1192.25	312.1
1041.1759	3131.0753	1206.6	318.5
1041.2822	3132.0558	1192.15	310
1041.3884	3133.0357	1187.85	309.1
1041.4946	3134.015	1192.85	310.6
1041.6008	3134.9936	1185.45	305.7
1041.7069	3135.9716	1206	305.65
1041.813	3136.949	1183.3	302.95
1041.919	3137.9258	1197.75	300.2
1042.025	3138.902	1178.9	294.25
1042.1309	3139.8775	1176.4	297.05
1042.2368	3140.8524	1176.1	296.15
1042.3427	3141.8267	1178.45	297.35
1042.4485	3142.8004	1169.05	288.45
1042.5542	3143.7735	1173.05	286.65
1042.6599	3144.7459	1169.85	287.1
1042.7656	3145.7178	1166.55	285.35
1042.8712	3146.689	1163.25	283.85
1042.9768	3147.6596	1159.75	278.2
1043.0823	3148.6295	1165	284.4
1043.1878	3149.5989	1155.05	275.2
1043.2932	3150.5676	1160.45	281.35
1043.3986	3151.5357	1149.6	268.75
1043.5039	3152.5032	1155.1	276.2
1043.6092	3153.4701	1151	269.95
1043.7145	3154.4364	1151.45	270.15
1043.8197	3155.402	1147.9	268.9
1043.9248	3156.367	1146.95	264.8
1044.03	3157.3315	1171.7	266.95
1044.135	3158.2952	1143.7	264.05
1044.24	3159.2584	1139.55	259.45
1044.345	3160.221	1133.2	253.9
1044.4499	3161.1829	1139.3	260.4
1044.5548	3162.1442	1137	257.5
1044.6596	3163.105	1131.95	251.65
1044.7644	3164.065	1129.35	250.45
1044.8692	3165.0245	1132.85	252
1044.9739	3165.9834	1130.9	252.35
1045.0785	3166.9416	1126	244.25
1045.1831	3167.8993	1124.65	243.1
1045.2877	3168.8563	1123.6	242.7
1045.3922	3169.8127	1121.3	244.7
1045.4966	3170.7684	1121.4	241.45
1045.6011	3171.7236	1125.65	244.6
1045.7054	3172.6782	1120.4	240.7
1045.8098	3173.6321	1120.15	240
1045.914	3174.5854	1118.3	235.25
1046.0183	3175.5381	1117.95	237.35
1046.1224	3176.4902	1112.55	232.15
1046.2266	3177.4417	1114.5	235.45
1046.3307	3178.3926	1111.55	232.3
1046.4347	3179.3428	1110.7	232.6
1046.5387	3180.2924	1104.75	225.9
1046.6427	3181.2415	1110.5	229.5
1046.7466	3182.1899	1110.35	229.55
1046.8504	3183.1377	1107.5	227.3
1046.9542	3184.0848	1103.8	221.6
1047.058	3185.0314	1099.1	219.2
1047.1617	3185.9773	1102.05	222.85
1047.2654	3186.9227	1100.15	219.55
1047.369	3187.8674	1096.65	216.5
1047.4726	3188.8115	1102.15	219.9
1047.5761	3189.755	1091.8	212.35
1047.6796	3190.6979	1090.9	210.7
1047.783	3191.6402	1090.05	210.1
1047.8864	3192.5818	1089.35	208.6
1047.9898	3193.5229	1100.75	216.7
1048.0931	3194.4633	1095.05	217.2
1048.1963	3195.4031	1085.5	203.7
1048.2995	3196.3423	1087	208.35
1048.4027	3197.2809	1082.6	203.2
1048.5058	3198.2189	1087.05	205.45
1048.6089	3199.1563	1093.6	206.2
1048.7119	3200.0931	1079.7	202
1048.8148	3201.0292	1082.15	203.5
1048.9178	3201.9648	1081.55	201.3
1049.0206	3202.8997	1086.9	204.55
1049.1235	3203.834	1080.2	201.4
1049.2262	3204.7677	1078.4	196.85
1049.329	3205.7008	1080.85	198.7
1049.4317	3206.6333	1076.6	199.45
1049.5343	3207.5652	1074.3	192.6
1049.6369	3208.4964	1074.3	197.3
1049.7394	3209.4271	1072.95	193.2
1049.8419	3210.3571	1073.25	194.65
1049.9444	3211.2865	1074.6	194.25
1050.0468	3212.2154	1073.15	193.9
1050.1491	3213.1436	1070.6	189.1
1050.2514	3214.0712	1072.15	186.2
1050.3537	3214.9982	1070.05	189.25
1050.4559	3215.9246	1065.15	184.2
1050.5581	3216.8503	1066.75	188.85
1050.6602	3217.7755	1062.65	181.8
1050.7623	3218.7001	1061.3	181.7
1050.8643	3219.624	1064.05	185.5
1050.9663	3220.5473	1065.4	186.3
1051.0682	3221.4701	1062.35	181.15
1051.1701	3222.3922	1060.65	180.9
1051.2719	3223.3137	1057.85	180
1051.3737	3224.2346	1062.75	181.4
1051.4754	3225.1549	1059.2	181.1
1051.5771	3226.0746	1059.6	181
1051.6788	3226.9937	1053.15	172.95
1051.7804	3227.9121	1053.45	175.8
1051.8819	3228.83	1055.25	177.7
1051.9834	3229.7473	1051.35	173.05
1052.0849	3230.6639	1053.15	171.2
1052.1863	3231.5799	1052.55	173.05
1052.2876	3232.4954	1049.55	168.05
1052.3889	3233.4102	1048.3	168.45
1052.4902	3234.3244	1049.3	169.55
1052.5914	3235.238	1048.6	169.15
1052.6926	3236.151	1073	167.85
1052.7937	3237.0634	1042.9	165.7
1052.8948	3237.9752	1043	164.85
1052.9958	3238.8864	1044.85	166
1053.0968	3239.797	1042.55	163.3
1053.1977	3240.7069	1037.25	156.9
1053.2986	3241.6163	1042.55	161.15
1053.3994	3242.5251	1039	161.55
1053.5002	3243.4332	1040.65	162.1
1053.6009	3244.3408	1035.9	156.4
1053.7016	3245.2477	1038.8	159.45
1053.8022	3246.154	1041.95	160.75
1053.9028	3247.0598	1036.9	156.65
1054.0034	3247.9649	1033.75	155.6
1054.1039	3248.8694	1036.6	157.25
1054.2043	3249.7733	1029.25	147.75
1054.3047	3250.6766	1031.5	153.2
1054.4051	3251.5793	1033	151.45
1054.5054	3252.4814	1031.55	153.05
1054.6056	3253.3829	1028.9	149.55
1054.7058	3254.2838	1023.05	145.35
1054.806	3255.1841	1025.35	146.35
1054.9061	3256.0838	1024.8	145.7
1055.0061	3256.9829	1022.4	142.85
1055.1062	3257.8814	1019.8	139.8
1055.2061	3258.7792	1023.95	141.35
1055.306	3259.6765	1023.6	144.7
1055.4059	3260.5731	1019.05	140.65
1055.5057	3261.4692	1018.85	140.85
1055.6055	3262.3647	1014.1	135.15
1055.7052	3263.2595	1010.4	131.3
1055.8049	3264.1538	1006.55	127.45
1055.9045	3265.0474	1010.2	130.25
1056.0041	3265.9404	1005.85	126.15
1056.1036	3266.8329	1003.05	124.8
1056.2031	3267.7247	1011.45	121.6
1056.3025	3268.616	997.35	119.35
1056.4019	3269.5066	996.2	117.6
1056.5013	3270.3966	996.5	114.75
1056.6005	3271.286	987.4	109.55
