Software Version:	3.9.2.0
Unit SN:	10000200
Spectrometer SN:	6960
Date:	3/26/2024 2:34:54 PM
Data Line Index:	25
Spectral Points:	2048
Integration time (ms):	125
Averages:	20
Delay (ms):	30000
Sequence Number:	1
Processing:	dark subtract
Laser Power (mW):	300
Laser Current (mA):	820
Laser Diode Temp (C):	25
Laser Case Temp (C):	27.8
System Temp (C):	27.9
Spectrometer Temp (C):	25.8
CCD Temp (C):	0
Secondary Temp (C):	20.01
Heatsink Temp (C):	23.359
CCDPCB Temp (C):	37.541
SecondaryPCB Temp (C):	34.706

Wavelength	RamanShift	Raw Counts	Dark Subtracted
787.061	30.1047	654	244.65
787.2016	32.3739	664.05	254.05
787.3422	34.6426	681.65	272.05
787.4828	36.9109	696.85	283.5
787.6235	39.1787	719.05	303.55
787.7642	41.4461	745.55	325.5
787.9049	43.7131	774.7	350.15
788.0456	45.9796	795.4	367.15
788.1863	48.2456	823.65	391.35
788.3271	50.5112	852.15	418.5
788.4679	52.7764	879.45	441.95
788.6087	55.0411	907.1	466.4
788.7496	57.3054	939.95	493.8
788.8904	59.5692	974.65	525.25
789.0313	61.8326	1019.85	567.55
789.1722	64.0955	1055.15	597.8
789.3132	66.3579	1105.55	643.35
789.4541	68.6199	1168.95	704.3
789.5951	70.8815	1266.75	799
789.7361	73.1426	1473.2	1001.8
789.8771	75.4032	2003.75	1526.3
790.0181	77.6634	3331.3	2845.85
790.1592	79.9231	6643	6147.1
790.3003	82.1824	14279.5	13768.65
790.4414	84.4412	32643.9	32096.4
790.5825	86.6995	60453.15	59861.2
790.7237	88.9574	65535	64901.85
790.8648	91.2148	65535	64872.9
791.006	93.4717	65535	64856
791.1472	95.7282	65535	64844.6
791.2885	97.9842	65535	64842.1
791.4297	100.2398	65535	64838.3
791.571	102.4949	65535	64834.35
791.7123	104.7495	65535	64831
791.8536	107.0036	65535	64834.25
791.9949	109.2573	65535	64832.05
792.1363	111.5105	65535	64828.05
792.2777	113.7632	65535	64826.1
792.4191	116.0154	65535	64814.85
792.5605	118.2672	65535	64822.8
792.7019	120.5185	65535	64821.8
792.8434	122.7693	65535	64819.1
792.9849	125.0197	65535	64815.05
793.1264	127.2696	65535	64810.8
793.2679	129.519	65535	64810
793.4094	131.7679	65535	64809.3
793.551	134.0163	65535	64799.2
793.6926	136.2642	65535	64798.7
793.8342	138.5117	65535	64789.3
793.9758	140.7587	65535	64789.9
794.1175	143.0052	65535	64791.15
794.2591	145.2512	65535	64794.25
794.4008	147.4967	65535	64791.2
794.5425	149.7417	65535	64791.25
794.6842	151.9863	65535	64781.65
794.826	154.2304	65535	64782.15
794.9677	156.4739	65535	64778.15
795.1095	158.717	65535	64773.85
795.2513	160.9596	65535	64771.65
795.3931	163.2017	65535	64769.2
795.535	165.4433	65535	64767
795.6768	167.6844	65535	64769.8
795.8187	169.925	65535	64764.35
795.9606	172.1651	65535	64764.7
796.1025	174.4047	65535	64760.95
796.2445	176.6439	65535	64757.65
796.3864	178.8825	65535	64758.1
796.5284	181.1206	65535	64751
796.6704	183.3582	65535	64746.45
796.8124	185.5954	65535	64744.75
796.9544	187.832	65535	64743.3
797.0965	190.0681	65535	64736.6
797.2386	192.3037	65535	64741.15
797.3806	194.5388	65535	64736.65
797.5228	196.7734	65535	64730.1
797.6649	199.0075	65535	64723.5
797.807	201.2411	65535	64723.6
797.9492	203.4742	65535	64725.65
798.0914	205.7068	65535	64725.85
798.2336	207.9389	65535	64721.25
798.3758	210.1704	65535	64717.55
798.518	212.4015	65535	64722.35
798.6603	214.632	65535	64723.85
798.8025	216.862	65535	64727.6
798.9448	219.0915	65535	64735.9
799.0871	221.3205	65535	64735.1
799.2294	223.549	65535	64739.85
799.3718	225.777	65535	64739.55
799.5141	228.0044	65535	64743.6
799.6565	230.2314	65535	64741.2
799.7989	232.4578	65535	64735.65
799.9413	234.6837	65535	64731.8
800.0837	236.909	65535	64729.6
800.2262	239.1339	65535	64705.65
800.3687	241.3582	65535	64717.9
800.5111	243.582	65535	64686.3
800.6536	245.8053	65535	64703.3
800.7961	248.0281	65535	64707.05
800.9387	250.2503	65535	64699.65
801.0812	252.472	65535	64695.1
801.2238	254.6932	65535	64696.45
801.3664	256.9139	65535	64694.45
801.509	259.134	65535	64692.05
801.6516	261.3536	65535	64687
801.7942	263.5727	65535	64690.85
801.9369	265.7912	65535	64694.55
802.0795	268.0092	65535	64689.65
802.2222	270.2267	65535	64689
802.3649	272.4436	65535	64690.95
802.5076	274.6601	65535	64679
802.6504	276.8759	65535	64691.25
802.7931	279.0913	65535	64684.65
802.9359	281.3061	65535	64683.1
803.0787	283.5204	65535	64678.05
803.2215	285.7341	65535	64679.85
803.3643	287.9473	65535	64661.5
803.5071	290.16	65535	64671.6
803.6499	292.3721	65535	64680.5
803.7928	294.5837	65535	64676.85
803.9357	296.7947	65535	64677.65
804.0786	299.0052	65535	64676
804.2215	301.2152	65535	64674.55
804.3644	303.4246	65535	64676.85
804.5074	305.6334	65535	64684.7
804.6503	307.8418	65535	64672.35
804.7933	310.0495	65535	64675.5
804.9363	312.2568	65535	64671.5
805.0793	314.4635	65535	64670.3
805.2223	316.6696	65535	64672.35
805.3653	318.8752	65535	64660.95
805.5084	321.0802	65535	64667.8
805.6514	323.2847	65535	64666.3
805.7945	325.4887	65535	64667.15
805.9376	327.692	65535	64668.3
806.0807	329.8949	65535	64663.2
806.2238	332.0972	65535	64664.35
806.367	334.2989	65535	64659.85
806.5101	336.5001	65535	64661.25
806.6533	338.7007	65535	64657.85
806.7965	340.9008	65535	64655.15
806.9397	343.1003	65535	64659.8
807.0829	345.2992	65535	64654.6
807.2261	347.4976	65535	64654
807.3693	349.6955	65535	64650.45
807.5126	351.8927	65535	64648.65
807.6559	354.0895	65535	64639.05
807.7991	356.2856	65535	64646.7
807.9424	358.4812	65535	64648.4
808.0857	360.6763	65535	64649.65
808.2291	362.8707	65535	64645
808.3724	365.0646	65535	64642.3
808.5158	367.258	65535	64646.1
808.6591	369.4508	65535	64640.55
808.8025	371.643	65535	64638.05
808.9459	373.8346	65535	64634.95
809.0893	376.0257	65535	64637.4
809.2327	378.2162	65535	64640.05
809.3762	380.4062	65535	64637.8
809.5196	382.5956	65535	64633.85
809.6631	384.7844	65535	64633.2
809.8066	386.9726	65535	64636.2
809.9501	389.1603	65535	64637.1
810.0936	391.3474	65535	64594.5
810.2371	393.5339	65535	64635.45
810.3806	395.7199	65535	64642.45
810.5241	397.9052	65535	64641.9
810.6677	400.09	65535	64643.35
810.8113	402.2743	65535	64646.75
810.9548	404.4579	65535	64645
811.0984	406.641	65535	64642.75
811.2421	408.8235	65535	64643.4
811.3857	411.0054	65535	64646.45
811.5293	413.1868	65535	64638.55
811.673	415.3675	65535	64637.3
811.8166	417.5477	65535	64637.25
811.9603	419.7273	65535	64638.5
812.104	421.9064	65535	64629.2
812.2477	424.0848	65535	64630.7
812.3914	426.2627	65535	64634.65
812.5351	428.4399	65535	64633.9
812.6788	430.6166	65535	64626.55
812.8226	432.7928	65535	64624.5
812.9663	434.9683	65535	64631.35
813.1101	437.1432	65535	64628.55
813.2539	439.3176	65535	64635.1
813.3977	441.4914	65535	64631.9
813.5415	443.6645	65535	64630.45
813.6853	445.8371	65535	64626.2
813.8291	448.0091	65535	64630.45
813.973	450.1806	65535	64627.85
814.1168	452.3514	65535	64635.2
814.2607	454.5216	65535	64623.05
814.4046	456.6913	65535	64626.65
814.5485	458.8603	65535	64630.9
814.6924	461.0288	65535	64636.75
814.8363	463.1967	65535	64638.4
814.9802	465.3639	65535	64634.75
815.1241	467.5306	65535	64627.45
815.2681	469.6967	65535	64630
815.412	471.8622	65535	64631.95
815.556	474.0271	65535	64630.6
815.7	476.1914	65535	64623.3
815.844	478.3551	65535	64625.7
815.988	480.5182	65535	64630.75
816.132	482.6807	65535	64633.6
816.276	484.8426	65535	64640.5
816.4201	487.0039	65535	64634.45
816.5641	489.1647	65535	64630.55
816.7082	491.3248	65535	64631.15
816.8522	493.4843	65535	64629.95
816.9963	495.6432	65535	64630.4
817.1404	497.8015	65535	64623.7
817.2845	499.9592	65535	64615.55
817.4286	502.1163	65535	64619.6
817.5727	504.2728	65535	64625.9
817.7168	506.4287	65535	64635.8
817.861	508.5839	65535	64634.8
818.0051	510.7386	65535	64627.6
818.1493	512.8927	65535	64614
818.2935	515.0461	65535	64623.1
818.4377	517.199	65535	64615.65
818.5818	519.3512	65535	64619.6
818.726	521.5029	65535	64616.95
818.8703	523.6539	65535	64621.95
819.0145	525.8043	65535	64618.65
819.1587	527.9541	65535	64615.25
819.303	530.1033	65535	64618.35
819.4472	532.2519	65535	64616
819.5915	534.3999	65535	64617.75
819.7357	536.5472	65535	64619.35
819.88	538.694	65535	64623.85
820.0243	540.8401	65535	64618.75
820.1686	542.9856	65535	64611.35
820.3129	545.1305	65535	64603.5
820.4572	547.2748	65535	64599.1
820.6016	549.4185	65535	64598.35
820.7459	551.5615	65535	64602.65
820.8902	553.704	65535	64607.05
821.0346	555.8458	65535	64609.3
821.1789	557.987	65535	64610.2
821.3233	560.1276	65535	64606.35
821.4677	562.2675	65535	64610.25
821.6121	564.4069	65535	64609
821.7565	566.5456	65535	64611.6
821.9009	568.6837	65535	64611.3
822.0453	570.8212	65535	64612.25
822.1897	572.958	65535	64612.6
822.3342	575.0942	65535	64618.2
822.4786	577.2299	65535	64618.75
822.6231	579.3648	65535	64626.1
822.7675	581.4992	65535	64639.7
822.912	583.6329	65535	64637.1
823.0565	585.766	65535	64628.45
823.201	587.8985	65535	64625.5
823.3454	590.0304	65535	64594.45
823.4899	592.1616	65535	64610.15
823.6345	594.2922	65535	64613.4
823.779	596.4222	65535	64606.25
823.9235	598.5515	65535	64605.95
824.068	600.6802	65535	64606.5
824.2126	602.8083	65535	64610.9
824.3571	604.9358	65535	64608.9
824.5017	607.0626	65535	64603.75
824.6462	609.1888	65535	64601.6
824.7908	611.3144	65535	64602.95
824.9354	613.4393	65535	64598.7
825.08	615.5636	65535	64601.85
825.2246	617.6873	65535	64603.75
825.3692	619.8103	65535	64605.5
825.5138	621.9327	65535	64603.35
825.6584	624.0544	65535	64611.1
825.803	626.1756	65535	64609.75
825.9477	628.2961	65535	64603.15
826.0923	630.4159	65535	64605.05
826.237	632.5351	65535	64601.2
826.3816	634.6537	65535	64599.9
826.5263	636.7716	65535	64596.4
826.6709	638.8889	65535	64595
826.8156	641.0056	65535	64594.15
826.9603	643.1216	65535	64597.45
827.105	645.237	65535	64600
827.2497	647.3518	65535	64606.95
827.3944	649.4659	65535	64605.75
827.5391	651.5793	65535	64610.85
827.6838	653.6922	65535	64609.3
827.8285	655.8043	65535	64603.25
827.9733	657.9159	65535	64607.6
828.118	660.0268	65535	64604.3
828.2627	662.137	65535	64603.9
828.4075	664.2466	65535	64595.8
828.5522	666.3556	65535	64597.9
828.697	668.4639	65535	64601.25
828.8418	670.5716	65535	64606.45
828.9865	672.6786	65535	64602.3
829.1313	674.785	65535	64600.2
829.2761	676.8907	65535	64600.3
829.4209	678.9958	65535	64605.45
829.5657	681.1002	65535	64602.75
829.7105	683.204	65535	64592.1
829.8553	685.3072	65535	64596.35
830.0001	687.4097	65535	64597.75
830.1449	689.5115	65535	64596.55
830.2898	691.6127	65535	64600.5
830.4346	693.7132	65535	64604.15
830.5794	695.8131	65535	64578.05
830.7243	697.9123	65535	64591.2
830.8691	700.0109	65535	64587.95
831.014	702.1089	65535	64596.9
831.1588	704.2061	65535	64592.8
831.3037	706.3028	65535	64594.5
831.4486	708.3987	65535	64595.25
831.5935	710.4941	65535	64596.25
831.7383	712.5887	65535	64597.25
831.8832	714.6827	65535	64593.55
832.0281	716.7761	65535	64602.9
832.173	718.8688	65535	64602.85
832.3179	720.9608	65535	64594.1
832.4628	723.0522	65535	64584.55
832.6077	725.1429	65535	64590
832.7527	727.233	65535	64594.1
832.8976	729.3224	65535	64595.35
833.0425	731.4112	65535	64596.05
833.1874	733.4993	65535	64592.4
833.3324	735.5867	65535	64594.7
833.4773	737.6735	65535	64593.5
833.6222	739.7596	65535	64591.55
833.7672	741.845	65535	64593.7
833.9122	743.9298	65535	64588.8
834.0571	746.014	65535	64592
834.2021	748.0974	65535	64586.9
834.347	750.1802	65535	64590.55
834.492	752.2624	65535	64586.75
834.637	754.3439	65535	64589.25
834.782	756.4247	65535	64579
834.9269	758.5048	65535	64590.45
835.0719	760.5843	65535	64593.15
835.2169	762.6631	65535	64586.95
835.3619	764.7413	65535	64590.25
835.5069	766.8188	65535	64588.65
835.6519	768.8956	65535	64586.05
835.7969	770.9718	65535	64591.7
835.9419	773.0473	65535	64589.1
836.0869	775.1221	65535	64589.35
836.232	777.1962	65535	64593.55
836.377	779.2697	65528.35	64582.85
836.522	781.3426	65535	64570.05
836.667	783.4147	65535	64588.2
836.8121	785.4862	65535	64589.8
836.9571	787.557	65529.1	64582.1
837.1021	789.6271	65535	64588.8
837.2472	791.6966	65529.45	64581.65
837.3922	793.7654	65505.1	64561.5
837.5373	795.8335	65511.15	64566.5
837.6823	797.901	65514.6	64571.35
837.8274	799.9678	65493	64545.1
837.9724	802.0339	65474.4	64523.05
838.1175	804.0993	65488.1	64527.15
838.2626	806.1641	65460.15	64509.3
838.4076	808.2282	65451.05	64506
838.5527	810.2916	65411.35	64463.25
838.6978	812.3544	65464.4	64522.1
838.8428	814.4164	65382.35	64435.9
838.9879	816.4778	65369.6	64416.4
839.133	818.5385	65375.95	64428.25
839.2781	820.5986	65373.05	64424.7
839.4232	822.658	65384.2	64432.3
839.5682	824.7166	65404.4	64456.6
839.7133	826.7747	65262.75	64313.6
839.8584	828.832	65299.8	64350.3
840.0035	830.8886	65388.75	64441.6
840.1486	832.9446	65404.15	64457.25
840.2937	834.9999	65163.35	64219.1
840.4388	837.0545	65307.55	64353.4
840.5839	839.1085	65388.4	64437.45
840.729	841.1618	65335.1	64382.1
840.8741	843.2143	65155.85	64209.4
841.0192	845.2662	65147.3	64198.5
841.1643	847.3175	65236.6	64288.6
841.3095	849.368	64818.6	63869.6
841.4546	851.4179	65171.65	64223.9
841.5997	853.467	64916.45	63969.2
841.7448	855.5155	65036.05	64088.8
841.8899	857.5633	64723.55	63774.55
842.0351	859.6105	64574.25	63628.7
842.1802	861.6569	64788.65	63838.15
842.3253	863.7027	64331.8	63379.75
842.4704	865.7478	64496.65	63546.3
842.6156	867.7922	64380.2	63428.85
842.7607	869.8359	64612.55	63662.45
842.9058	871.8789	64113.9	63160.9
843.0509	873.9212	64441.8	63461.7
843.1961	875.9629	64571	63617.95
843.3412	878.0039	64460.9	63511.65
843.4863	880.0441	64294.4	63350.35
843.6315	882.0837	64274.9	63325.25
843.7766	884.1226	64223.25	63272
843.9218	886.1609	64086.7	63136.15
844.0669	888.1984	63747.6	62796.2
844.212	890.2352	64126.4	63175
844.3572	892.2714	63534	62578.3
844.5023	894.3069	63808.35	62857
844.6475	896.3416	63432.85	62480.65
844.7926	898.3757	63374.6	62423.5
844.9377	900.4091	62623.5	61669.75
845.0829	902.4418	63645.35	62688.75
845.228	904.4739	63067.05	62112.55
845.3732	906.5052	63114.3	62159.3
845.5183	908.5358	62762.3	61811.65
845.6635	910.5658	62493.7	61537.9
845.8086	912.595	62461.4	61508.7
845.9538	914.6236	61661.85	60713.5
846.0989	916.6515	62848.85	61896.05
846.2441	918.6786	61631.05	60675.95
846.3892	920.7051	61960.4	61003.9
846.5344	922.7309	61754.65	60802.9
846.6795	924.756	62017.85	61063.45
846.8246	926.7804	61562.8	60608.5
846.9698	928.8041	60768.6	59812.8
847.1149	930.8272	61373.75	60420.85
847.2601	932.8495	61323.45	60370.35
847.4052	934.8711	60637.6	59684.85
847.5504	936.892	60224.2	59271.2
847.6955	938.9123	60413.6	59459.8
847.8407	940.9318	59889.7	58941.6
847.9858	942.9506	59719.15	58766.6
848.131	944.9688	59748.2	58796.75
848.2761	946.9862	58840.8	57888.4
848.4213	949.003	59176.15	58223.85
848.5664	951.019	58391	57438.25
848.7115	953.0344	58528.6	57578.15
848.8567	955.0491	58350.25	57397.8
849.0018	957.063	58625.3	57672.45
849.147	959.0763	58684.55	57725.9
849.2921	961.0888	58222.4	57269.4
849.4373	963.1007	58547.2	57597.05
849.5824	965.1119	58474.7	57533.35
849.7275	967.1223	58103.15	57163.85
849.8727	969.1321	58562.65	57623.95
850.0178	971.1412	57942.4	57001.4
850.1629	973.1495	57679.65	56728.75
850.3081	975.1572	57901.25	56918.15
850.4532	977.1641	57637.55	56685.9
850.5983	979.1704	57455.6	56504.75
850.7435	981.1759	57501.2	56546.8
850.8886	983.1808	57154.05	56199.5
851.0337	985.1849	57142.4	56181.1
851.1788	987.1884	57271.95	56317.45
851.324	989.1911	57684.1	56733.4
851.4691	991.1932	56856.5	55904.85
851.6142	993.1945	57029.65	56082.25
851.7593	995.1951	57142.25	56192.95
851.9045	997.1951	56596.15	55642
852.0496	999.1943	56329.4	55378.1
852.1947	1001.1928	56002.85	55053.05
852.3398	1003.1906	56056.35	55101.8
852.4849	1005.1877	55502.85	54553.55
852.63	1007.1841	55194.05	54247.65
852.7751	1009.1798	55065.15	54117.45
852.9202	1011.1748	54838.05	53885.6
853.0653	1013.1691	54486.2	53537.4
853.2104	1015.1627	53569.45	52624.3
853.3555	1017.1556	53363.3	52413.05
853.5006	1019.1477	53390.3	52444.1
853.6457	1021.1392	52810.8	51869.9
853.7908	1023.1299	52350.75	51410.4
853.9359	1025.12	52430.8	51492.85
854.081	1027.1093	52139.2	51211.4
854.2261	1029.0979	52046.55	51124.9
854.3712	1031.0859	51996.2	51065.45
854.5163	1033.0731	51574.5	50634.95
854.6613	1035.0596	51469.4	50527.45
854.8064	1037.0454	51165.9	50224.45
854.9515	1039.0304	50734.3	49785.75
855.0965	1041.0148	50378.4	49429.65
855.2416	1042.9985	50157.9	49210.95
855.3867	1044.9814	50171.8	49229.2
855.5317	1046.9636	49851.2	48905.35
855.6768	1048.9452	49625.55	48679.55
855.8219	1050.926	49513.25	48568.6
855.9669	1052.9061	49339.4	48393.85
856.112	1054.8855	49251.9	48305.95
856.257	1056.8642	49004.55	48055.55
856.4021	1058.8421	48970.85	48019.55
856.5471	1060.8194	48779.8	47832.3
856.6921	1062.7959	48650.75	47705.95
856.8372	1064.7717	48548.85	47601.2
856.9822	1066.7469	48447.7	47497.9
857.1272	1068.7213	48305.9	47360.1
857.2723	1070.695	48136	47192.55
857.4173	1072.6679	47751.45	46804.55
857.5623	1074.6402	47649.6	46704.45
857.7073	1076.6117	47557.45	46604.5
857.8523	1078.5826	47459.3	46510.45
857.9973	1080.5527	47362.8	46412.2
858.1423	1082.5221	47328.45	46382.15
858.2873	1084.4908	47412.75	46466
858.4323	1086.4587	47534.1	46586.95
858.5773	1088.426	47608.2	46660.35
858.7223	1090.3925	47388.5	46434.45
858.8673	1092.3584	47268.95	46322.9
859.0123	1094.3235	46835.7	45891.55
859.1573	1096.2879	46586.7	45639.95
859.3022	1098.2515	46398.45	45456.05
859.4472	1100.2145	46300.85	45356.15
859.5922	1102.1767	46149.7	45202.7
859.7371	1104.1382	46176.55	45233.45
859.8821	1106.099	46215.25	45269.85
860.027	1108.0591	46325.4	45383.5
860.172	1110.0185	46280.5	45333.45
860.3169	1111.9771	46257.8	45311.15
860.4619	1113.9351	45814.65	44867.95
860.6068	1115.8923	45302	44355.1
860.7517	1117.8488	44825.4	43878.6
860.8967	1119.8045	44315.15	43368.65
861.0416	1121.7596	44077.7	43134.05
861.1865	1123.7139	43884.15	42942.6
861.3314	1125.6675	43749	42802.2
861.4763	1127.6204	43793.65	42848.65
861.6212	1129.5726	43659.05	42715.5
861.7661	1131.524	43612.05	42668.85
861.911	1133.4748	43565.6	42622.5
862.0559	1135.4248	43414.45	42468.4
862.2008	1137.3741	43374.45	42430.35
862.3457	1139.3226	43264.5	42317.55
862.4905	1141.2705	43181.95	42236.85
862.6354	1143.2176	42810.35	41862.3
862.7803	1145.164	42743.1	41797
862.9251	1147.1097	42634.25	41692.8
863.07	1149.0546	42573.45	41629.45
863.2148	1150.9989	42438.95	41494.4
863.3597	1152.9424	42213.25	41266.15
863.5045	1154.8852	41877.1	40932.3
863.6493	1156.8272	41663.15	40719.9
863.7942	1158.7686	41587.05	40633.95
863.939	1160.7092	41305.5	40360.55
864.0838	1162.6491	41114.25	40167.2
864.2286	1164.5883	41145.9	40204.15
864.3734	1166.5267	41002.75	40060.55
864.5182	1168.4644	41095.5	40151.8
864.663	1170.4014	41168.95	40220.05
864.8078	1172.3377	41394.7	40454.5
864.9526	1174.2732	41443.85	40500.05
865.0974	1176.2081	41633.45	40688.75
865.2421	1178.1421	41679.9	40730.15
865.3869	1180.0755	41762.2	40822.5
865.5317	1182.0082	41524	40582.5
865.6764	1183.9401	41370.7	40431.2
865.8212	1185.8713	41027.85	40092.9
865.9659	1187.8017	40661.6	39727.85
866.1106	1189.7315	40373	39448.25
866.2554	1191.6605	39862.6	38937.1
866.4001	1193.5888	39546.65	38614.8
866.5448	1195.5163	39395.6	38455.5
866.6895	1197.4432	39168.3	38227.2
866.8342	1199.3693	38981.85	38046.9
866.9789	1201.2947	38760.7	37812.8
867.1236	1203.2193	38565.25	37622.85
867.2683	1205.1432	38497.5	37557.6
867.413	1207.0664	38435.45	37494.7
867.5576	1208.9889	38390	37447.8
867.7023	1210.9106	38335.35	37393
867.847	1212.8316	38237.2	37297
867.9916	1214.7519	38278.8	37328.05
868.1363	1216.6715	38066.65	37124.65
868.2809	1218.5903	37983.9	37043.1
868.4255	1220.5084	37821.9	36881.25
868.5701	1222.4257	37743.5	36804.9
868.7148	1224.3424	37467.85	36532.9
868.8594	1226.2583	37395.4	36453.05
869.004	1228.1735	37425.75	36487
869.1486	1230.0879	37360.6	36422.1
869.2932	1232.0016	37444.3	36506.05
869.4377	1233.9146	37304.95	36365.1
869.5823	1235.8269	37100.85	36161.95
869.7269	1237.7384	36923.5	35987.55
869.8715	1239.6492	36576.85	35639.8
870.016	1241.5592	36401.4	35463.5
870.1606	1243.4686	36148.05	35208.55
870.3051	1245.3772	35953.45	35013.15
870.4496	1247.285	35794	34854.9
870.5941	1249.1922	35605.45	34665.65
870.7387	1251.0986	35556.4	34617
870.8832	1253.0042	35423.5	34484.75
871.0277	1254.9092	35452.6	34514.45
871.1722	1256.8134	35392.85	34454.3
871.3167	1258.7169	35488.05	34550.65
871.4611	1260.6196	35494.9	34557.9
871.6056	1262.5216	35683.9	34743.1
871.7501	1264.4229	35715	34778.3
871.8945	1266.3234	35762.1	34826.25
872.039	1268.2232	35713.25	34774.9
872.1834	1270.1223	35587.5	34648.2
872.3278	1272.0207	35461.35	34522.85
872.4723	1273.9183	35337.65	34395.4
872.6167	1275.8151	35142.85	34206.05
872.7611	1277.7113	35003.6	34065.5
872.9055	1279.6067	34702.6	33767.6
873.0499	1281.5014	34435.9	33496.55
873.1943	1283.3953	34295.5	33357.4
873.3386	1285.2885	34118.45	33182.25
873.483	1287.181	33956.05	33021.45
873.6274	1289.0727	33926.8	32994.15
873.7717	1290.9637	33818.35	32883.7
873.9161	1292.854	33889.2	32952.85
874.0604	1294.7435	33927.25	32992.7
874.2047	1296.6323	34109.95	33174.7
874.349	1298.5204	34273	33329.8
874.4933	1300.4077	34511.45	33570.95
874.6376	1302.2943	34620.95	33683.6
874.7819	1304.1802	34669.15	33732.35
874.9262	1306.0653	34519.9	33582.35
875.0705	1307.9497	34271.5	33333.8
875.2147	1309.8333	34139.1	33204.4
875.359	1311.7162	34092.75	33158.45
875.5032	1313.5984	34139.65	33200.85
875.6475	1315.4798	34141.3	33193.9
875.7917	1317.3605	34272.95	33322.4
875.9359	1319.2405	34389.4	33453.15
876.0801	1321.1197	34346.6	33408.25
876.2243	1322.9982	34216.05	33276.45
876.3685	1324.876	34208.7	33276.3
876.5127	1326.753	34055.5	33120.7
876.6569	1328.6293	34098.95	33160.9
876.801	1330.5048	34096.15	33158
876.9452	1332.3796	33940.75	33005.75
877.0893	1334.2537	33878.85	32919.3
877.2335	1336.127	33770.3	32836.7
877.3776	1337.9996	33624.25	32687.9
877.5217	1339.8714	33469.6	32531.45
877.6658	1341.7426	33342.3	32362
877.8099	1343.6129	33203.9	32264.65
877.954	1345.4826	33022.4	32084.55
878.0981	1347.3515	32990.2	32052.75
878.2422	1349.2196	32859.95	31923.6
878.3862	1351.087	32824.95	31887.3
878.5303	1352.9537	32775.45	31841.05
878.6743	1354.8197	32825	31887.1
878.8184	1356.6849	32963	32028.6
878.9624	1358.5493	32989.95	32054.95
879.1064	1360.4131	32900.7	31967
879.2504	1362.276	32746.8	31814
879.3944	1364.1383	32482.7	31545.4
879.5384	1365.9998	32153.9	31213.1
879.6823	1367.8606	31771.7	30833.15
879.8263	1369.7206	31505.05	30570.35
879.9702	1371.5799	31209.15	30268.25
880.1142	1373.4384	31000.6	30064.3
880.2581	1375.2962	30880.7	29944.5
880.402	1377.1533	30480.55	29549.85
880.5459	1379.0096	30040.6	29107.15
880.6898	1380.8652	29721.7	28791.9
880.8337	1382.7201	29441.05	28504.15
880.9776	1384.5742	29134.75	28198.75
881.1215	1386.4275	28871.5	27936.15
881.2653	1388.2802	28698.35	27760.95
881.4092	1390.132	28462.3	27529
881.553	1391.9832	28394.7	27459.25
881.6968	1393.8336	28145.2	27212.5
881.8406	1395.6832	28094.85	27161.6
881.9844	1397.5322	27912.15	26976.7
882.1282	1399.3803	27817.25	26880.1
882.272	1401.2278	27660.6	26728
882.4158	1403.0745	27585.75	26652.15
882.5595	1404.9204	27470.95	26539.8
882.7033	1406.7656	27460	26528.2
882.847	1408.6101	27358.7	26423.1
882.9908	1410.4538	27261.35	26326.2
883.1345	1412.2968	27192.35	26258.35
883.2782	1414.139	27107.25	26177.1
883.4219	1415.9805	27120.6	26190.4
883.5656	1417.8213	27133.35	26181.9
883.7092	1419.6613	27163.5	26233.25
883.8529	1421.5006	27318.1	26382.3
883.9965	1423.3391	27536	26603.05
884.1402	1425.1769	27718.1	26785.95
884.2838	1427.0139	28231	27298.35
884.4274	1428.8502	28814.95	27880.65
884.571	1430.6858	29340.35	28406.85
884.7146	1432.5206	29649.9	28719.1
884.8582	1434.3547	29863.6	28931
885.0018	1436.188	29862.05	28929.7
885.1453	1438.0206	29772.45	28840.1
885.2889	1439.8524	29539.45	28605.95
885.4324	1441.6835	29381.7	28451.4
885.5759	1443.5139	29250.7	28319.3
885.7194	1445.3435	29061	28127.65
885.8629	1447.1724	29032.45	28103.9
886.0064	1449.0005	28893.85	27965.7
886.1499	1450.8279	28720.2	27788.3
886.2933	1452.6545	28620.15	27691.2
886.4368	1454.4804	28692.1	27764.3
886.5802	1456.3056	28597	27661.35
886.7237	1458.13	28394.25	27464.7
886.8671	1459.9536	28197.6	27269.5
887.0105	1461.7766	27802.7	26875
887.1539	1463.5987	27272.55	26340.25
887.2972	1465.4202	26852.5	25922.8
887.4406	1467.2409	26399.1	25468.1
887.584	1469.0608	26097.75	25168.05
887.7273	1470.88	25817.95	24886.95
887.8706	1472.6984	25541.4	24612.15
888.0139	1474.5161	25210.7	24279.25
888.1572	1476.3331	24998.15	24069.85
888.3005	1478.1493	24861.35	23929.7
888.4438	1479.9648	24705.65	23775.75
888.5871	1481.7795	24598.2	23665.75
888.7303	1483.5935	24520.6	23590.9
888.8736	1485.4067	24388.6	23459
889.0168	1487.2192	24308.8	23379.6
889.16	1489.031	24208.2	23275.05
889.3032	1490.842	24116.8	23185.8
889.4464	1492.6522	24036.05	23105.5
889.5896	1494.4618	23989.5	23055.95
889.7327	1496.2705	23904.35	22975.35
889.8759	1498.0785	23858.45	22930
890.019	1499.8858	23755	22825.75
890.1622	1501.6924	23681.45	22754.1
890.3053	1503.4981	23602.5	22673.8
890.4484	1505.3032	23563.45	22634
890.5914	1507.1075	23505.1	22575.55
890.7345	1508.911	23413	22483.05
890.8776	1510.7138	23287.85	22359.1
891.0206	1512.5159	23221.85	22292.6
891.1637	1514.3172	23150.8	22222.6
891.3067	1516.1178	23014.75	22089.05
891.4497	1517.9176	22960.55	22029
891.5927	1519.7166	22868.85	21942.15
891.7357	1521.515	22797.85	21865.25
891.8786	1523.3126	22730.75	21805.1
892.0216	1525.1094	22639.95	21712.1
892.1645	1526.9055	22536.55	21609.45
892.3074	1528.7008	22449.3	21524.15
892.4503	1530.4954	22295.6	21363.5
892.5932	1532.2893	22256.55	21332.4
892.7361	1534.0824	22146.4	21220.55
892.879	1535.8747	22122	21199.75
893.0218	1537.6663	22029.95	21108.9
893.1647	1539.4572	21957.4	21032.65
893.3075	1541.2473	21911.1	20984.75
893.4503	1543.0367	21826.25	20905.6
893.5931	1544.8253	21735.75	20808.8
893.7359	1546.6132	21690.8	20763.3
893.8787	1548.4003	21590.7	20657.45
894.0214	1550.1867	21613.05	20680.1
894.1642	1551.9723	21560.45	20636.1
894.3069	1553.7572	21546.3	20627.4
894.4496	1555.5414	21464.45	20544.45
894.5923	1557.3247	21436	20519.15
894.735	1559.1074	21406.45	20489.45
894.8777	1560.8893	21400.45	20484.3
895.0204	1562.6705	21382.7	20463
895.163	1564.4509	21376.45	20461.25
895.3056	1566.2305	21374.05	20464.35
895.4482	1568.0094	21492.6	20579.85
895.5908	1569.7876	21545.1	20630.45
895.7334	1571.565	21544.15	20626.6
895.876	1573.3417	21571.75	20652.4
896.0186	1575.1176	21521.5	20605.25
896.1611	1576.8928	21504.2	20591.15
896.3036	1578.6672	21348.65	20440.8
896.4461	1580.4409	21147.8	20241.15
896.5886	1582.2138	20964.25	20051.1
896.7311	1583.986	20778.7	19865.9
896.8736	1585.7575	20687.2	19773.95
897.0161	1587.5282	20544.5	19634.3
897.1585	1589.2981	20443.65	19535.25
897.3009	1591.0673	20290.4	19380.25
897.4433	1592.8358	20217.1	19307.6
897.5857	1594.6035	20191.9	19276.7
897.7281	1596.3704	20117.8	19204
897.8705	1598.1366	20085.15	19172.3
898.0128	1599.9021	20047.2	19137.1
898.1551	1601.6668	19999.3	19088.95
898.2975	1603.4308	20012.45	19098.2
898.4398	1605.194	20018.55	19101.1
898.5821	1606.9564	20045.95	19140.1
898.7243	1608.7182	20104.4	19199.25
898.8666	1610.4791	20171.45	19271.4
899.0088	1612.2394	20233.05	19333.6
899.1511	1613.9988	20337.85	19436.2
899.2933	1615.7576	20554.5	19651.6
899.4355	1617.5156	20743.95	19826.1
899.5776	1619.2728	20958	20043.25
899.7198	1621.0293	21122	20209.75
899.862	1622.785	21162.75	20253.5
900.0041	1624.54	21027.05	20121.8
900.1462	1626.2942	20867.4	19962.45
900.2883	1628.0477	20544.9	19637.45
900.4304	1629.8005	20232.3	19322.75
900.5725	1631.5525	19973.55	19069
900.7145	1633.3037	19706.45	18803.1
900.8566	1635.0542	19477.8	18576.35
900.9986	1636.804	19306.75	18399.5
901.1406	1638.553	19223.15	18254.4
901.2826	1640.3013	19038.5	18132.2
901.4245	1642.0488	18974.65	18066.8
901.5665	1643.7955	18912.35	18011.5
901.7085	1645.5416	18870.75	17969.65
901.8504	1647.2868	18867.75	17963.65
901.9923	1649.0313	18843.1	17937.8
902.1342	1650.7751	18958.05	18048.9
902.2761	1652.5181	19096.95	18192.2
902.4179	1654.2604	19271	18365.85
902.5598	1656.0019	19517.15	18616.35
902.7016	1657.7427	19887.35	18984.7
902.8434	1659.4828	20202.8	19298
902.9852	1661.222	20392.6	19484.75
903.127	1662.9606	20433.8	19527.1
903.2687	1664.6984	20258.05	19349.4
903.4105	1666.4354	19941.4	19032.9
903.5522	1668.1717	19467.65	18557
903.6939	1669.9072	18956.9	18045.6
903.8356	1671.642	18533.85	17623.5
903.9773	1673.3761	18185.3	17277.85
904.119	1675.1094	17946.25	17037.05
904.2606	1676.8419	17725.9	16819.5
904.4022	1678.5737	17506.6	16599.7
904.5439	1680.3048	17363.85	16457
904.6855	1682.0351	17225.7	16319.5
904.827	1683.7646	17106.15	16194.85
904.9686	1685.4934	17007.65	16102.25
905.1101	1687.2215	16942.4	16037.55
905.2517	1688.9488	16801.7	15896.55
905.3932	1690.6754	16707.95	15804.85
905.5347	1692.4012	16678.6	15771.3
905.6761	1694.1263	16587.65	15681.85
905.8176	1695.8506	16534.85	15628.35
905.9591	1697.5742	16473.8	15571.65
906.1005	1699.297	16409.35	15508.6
906.2419	1701.0191	16306.1	15406.8
906.3833	1702.7404	16249.15	15349.3
906.5246	1704.461	16172.05	15269.5
906.666	1706.1808	16111.35	15208.3
906.8073	1707.8999	16026.45	15123.85
906.9487	1709.6182	15961.25	15061.85
907.09	1711.3358	15906.15	15009
907.2313	1713.0527	15857.2	14960.2
907.3725	1714.7688	15824.55	14921.2
907.5138	1716.4841	15748.55	14850.2
907.655	1718.1987	15709.55	14802.95
907.7962	1719.9126	15630.85	14730.15
907.9374	1721.6257	15588.8	14689.55
908.0786	1723.338	15550.6	14652.95
908.2198	1725.0496	15431	14533.25
908.3609	1726.7605	15406.6	14506.6
908.502	1728.4706	15365.45	14464.8
908.6431	1730.18	15289.2	14391.05
908.7842	1731.8886	15228.35	14331
908.9253	1733.5964	15185.7	14267.75
909.0664	1735.3036	15148.35	14246.65
909.2074	1737.0099	15119.15	14222.7
909.3484	1738.7156	15092.85	14197
909.4894	1740.4204	14997.05	14098.25
909.6304	1742.1246	14999.55	14102.65
909.7714	1743.8279	14950	14051.9
909.9123	1745.5306	14917.05	14019.8
910.0532	1747.2325	14885.5	13990.5
910.1941	1748.9336	14797.55	13900.2
910.335	1750.634	14747.45	13849.5
910.4759	1752.3336	14711.15	13816.05
910.6168	1754.0325	14669.7	13774.45
910.7576	1755.7307	14643.4	13749.6
910.8984	1757.4281	14639.85	13741.65
911.0392	1759.1247	14611.45	13705.55
911.18	1760.8206	14576.95	13672.95
911.3208	1762.5158	14547.2	13644
911.4615	1764.2102	14485.25	13589.6
911.6022	1765.9039	14408.1	13510
911.7429	1767.5968	14366.45	13471.65
911.8836	1769.289	14337.65	13441.25
912.0243	1770.9804	14304.8	13407.2
912.1649	1772.6711	14256.35	13356.45
912.3056	1774.361	14241.25	13342.55
912.4462	1776.0502	14235.75	13336.95
912.5868	1777.7386	14171.85	13270.65
912.7274	1779.4263	14099.9	13201.6
912.8679	1781.1132	14115.85	13222.7
913.0084	1782.7994	14054.6	13159.45
913.149	1784.4849	14007.65	13115.25
913.2895	1786.1696	13972.95	13071.1
913.4299	1787.8535	13909.95	13017.05
913.5704	1789.5367	13870.85	12979.15
913.7108	1791.2192	13870.85	12978
913.8513	1792.9009	13823.45	12903.85
913.9917	1794.5818	13822.5	12923.65
914.132	1796.2621	13751.85	12855.55
914.2724	1797.9415	13706.1	12810.25
914.4128	1799.6202	13677.7	12780.8
914.5531	1801.2982	13632.8	12734.75
914.6934	1802.9755	13625.2	12728.6
914.8337	1804.6519	13583.55	12688.3
914.9739	1806.3277	13510.1	12616.65
915.1142	1808.0027	13465.35	12572.9
915.2544	1809.6769	13460.45	12567.9
915.3946	1811.3504	13414.75	12521
915.5348	1813.0231	13383.4	12489.9
915.675	1814.6951	13360.7	12468.3
915.8151	1816.3664	13360.3	12461.95
915.9553	1818.0369	13319.8	12424.7
916.0954	1819.7067	13239.35	12345.3
916.2355	1821.3757	13254.95	12357.7
916.3755	1823.044	13198.45	12302.35
916.5156	1824.7115	13182.2	12284.3
916.6556	1826.3783	13096.25	12200.25
916.7956	1828.0443	13075.3	12181.9
916.9356	1829.7096	13075.45	12178.6
917.0756	1831.3741	13024.4	12128.4
917.2155	1833.0379	13000.9	12108.05
917.3555	1834.701	12953.4	12059.8
917.4954	1836.3633	12906.65	12015.4
917.6353	1838.0248	12865.4	11970.5
917.7751	1839.6856	12844.05	11951.95
917.915	1841.3457	12863.9	11971.45
918.0548	1843.005	12812.75	11917.45
918.1946	1844.6636	12803.35	11908.2
918.3344	1846.3214	12780.9	11885.95
918.4742	1847.9785	12775.1	11883.3
918.6139	1849.6349	12711	11816.65
918.7537	1851.2904	12702.2	11796
918.8934	1852.9453	12652.9	11757.5
919.0331	1854.5994	12614.4	11714.6
919.1727	1856.2528	12605.05	11706.75
919.3124	1857.9054	12581	11685.85
919.452	1859.5572	12562.3	11666.6
919.5916	1861.2083	12551.3	11656.1
919.7312	1862.8587	12499.9	11604.15
919.8708	1864.5084	12469.05	11571.65
920.0103	1866.1572	12422.6	11528
920.1498	1867.8054	12391.25	11493.05
920.2893	1869.4528	12374.85	11477.65
920.4288	1871.0994	12304.15	11407.55
920.5683	1872.7453	12287.6	11391.45
920.7077	1874.3905	12298.7	11387.45
920.8471	1876.0349	12240.6	11343.25
920.9865	1877.6786	12231.05	11334.15
921.1259	1879.3215	12194.6	11298.9
921.2653	1880.9637	12161	11266.85
921.4046	1882.6051	12168.75	11276.35
921.5439	1884.2458	12110	11212
921.6832	1885.8858	12064.65	11171.4
921.8225	1887.525	12032.8	11136.15
921.9617	1889.1634	11995	11098.7
922.101	1890.8011	11966.55	11070.7
922.2402	1892.4381	11937.65	11041.95
922.3794	1894.0743	11913.55	11018.75
922.5185	1895.7098	11858.8	10964.7
922.6577	1897.3446	11865.3	10969
922.7968	1898.9786	11826.9	10928.7
922.9359	1900.6118	11781.15	10886.1
923.075	1902.2443	11728	10830.05
923.214	1903.8761	11704.55	10809.95
923.3531	1905.5071	11650.2	10754.25
923.4921	1907.1374	11619.65	10724.7
923.6311	1908.7669	11595.75	10704
923.77	1910.3957	11560.65	10665.45
923.909	1912.0237	11516	10621.95
924.0479	1913.651	11472.35	10578.2
924.1868	1915.2776	11453.15	10563.15
924.3257	1916.9034	11409.5	10516
924.4646	1918.5285	11348.5	10457.2
924.6034	1920.1528	11303.75	10410.7
924.7422	1921.7764	11331.45	10437.55
924.881	1923.3992	11263.75	10370.4
925.0198	1925.0213	11201.95	10307.4
925.1586	1926.6427	11151.5	10259
925.2973	1928.2633	11182.45	10220.75
925.436	1929.8832	11103.95	10208.6
925.5747	1931.5023	11016.05	10123.6
925.7134	1933.1207	11024.5	10131.2
925.852	1934.7383	10985.4	10092.25
925.9906	1936.3552	10963.8	10072.7
926.1292	1937.9714	10921.75	10028.4
926.2678	1939.5868	10876.1	9980.95
926.4064	1941.2015	10803.95	9908.3
926.5449	1942.8154	10797.3	9903.1
926.6834	1944.4286	10740.05	9848.15
926.8219	1946.041	10724.4	9809.45
926.9604	1947.6528	10653.6	9755
927.0988	1949.2637	10635.3	9743.85
927.2372	1950.8739	10604	9711.4
927.3756	1952.4834	10568.75	9676.55
927.514	1954.0921	10577.75	9682.45
927.6523	1955.7001	10536.45	9640.25
927.7907	1957.3074	10450	9560
927.929	1958.9139	10445.6	9559.05
928.0673	1960.5197	10398.85	9509.2
928.2055	1962.1247	10377.05	9483.85
928.3438	1963.729	10297.95	9407.55
928.482	1965.3325	10290.45	9380.5
928.6202	1966.9353	10234.5	9342.85
928.7584	1968.5374	10196.6	9307.55
928.8965	1970.1387	10202.7	9312.65
929.0346	1971.7393	10142.65	9252.8
929.1727	1973.3392	10108.15	9219.6
929.3108	1974.9383	10066	9177.55
929.4489	1976.5366	10023.95	9136.5
929.5869	1978.1342	10019.8	9131.2
929.7249	1979.7311	9990.45	9099.35
929.8629	1981.3273	9977.8	9090.1
930.0009	1982.9227	9919.75	9029.75
930.1388	1984.5173	9893.85	9007.15
930.2767	1986.1112	9858.95	8972.1
930.4146	1987.7044	9841.5	8954.2
930.5525	1989.2968	9807.5	8921.4
930.6904	1990.8885	9775.55	8883.4
930.8282	1992.4795	9758.55	8869.95
930.966	1994.0697	9706.3	8820.5
931.1038	1995.6592	9653.2	8765.55
931.2415	1997.2479	9665.15	8777.2
931.3793	1998.8359	9632.25	8745.85
931.517	2000.4232	9587.75	8703.8
931.6547	2002.0097	9545.95	8663.65
931.7923	2003.5955	9507.5	8621.85
931.93	2005.1805	9515.6	8630.65
932.0676	2006.7648	9477.65	8592.95
932.2052	2008.3484	9439.9	8553.5
932.3427	2009.9312	9439.55	8553.9
932.4803	2011.5133	9406.35	8523.25
932.6178	2013.0946	9381.5	8497.3
932.7553	2014.6752	9364.15	8479.65
932.8928	2016.2551	9346.35	8459.9
933.0302	2017.8342	9295.95	8409.9
933.1676	2019.4126	9271	8387.7
933.305	2020.9902	9239.55	8357.5
933.4424	2022.5672	9212.1	8328
933.5798	2024.1433	9208.1	8317.1
933.7171	2025.7188	9159.1	8277.1
933.8544	2027.2935	9128.5	8242.35
933.9917	2028.8674	9086.7	8205.85
934.129	2030.4406	9077.45	8194.8
934.2662	2032.0131	9003.9	8121.95
934.4034	2033.5849	9017.55	8128.5
934.5406	2035.1559	8993.05	8109.35
934.6778	2036.7261	8976.9	8096.55
934.8149	2038.2957	8955.3	8069.95
934.952	2039.8645	8916.45	8030.95
935.0891	2041.4325	8943.7	8054.85
935.2262	2042.9998	8893.05	8007.85
935.3632	2044.5664	8882.1	7996.45
935.5002	2046.1323	8842.85	7960.35
935.6372	2047.6974	8803.8	7918.1
935.7742	2049.2617	8780.6	7897.3
935.9111	2050.8254	8779.6	7890.3
936.048	2052.3883	8755.5	7869.25
936.1849	2053.9504	8746	7856.7
936.3218	2055.5118	8713.75	7823.55
936.4586	2057.0725	8701.55	7807.8
936.5955	2058.6325	8663.1	7771.35
936.7323	2060.1917	8623.65	7734.35
936.869	2061.7502	8625.75	7734.05
937.0058	2063.3079	8590.45	7697.65
937.1425	2064.8649	8560.35	7665.95
937.2792	2066.4212	8532.15	7639.55
937.4159	2067.9767	8511.05	7619.95
937.5525	2069.5315	8489.45	7598.7
937.6891	2071.0856	8436.95	7549.65
937.8257	2072.6389	8411.45	7523.75
937.9623	2074.1915	8348.3	7463.5
938.0989	2075.7433	8331.5	7445.2
938.2354	2077.2945	8295.8	7410.8
938.3719	2078.8448	8278.05	7388.4
938.5084	2080.3945	8256.1	7370.65
938.6448	2081.9434	8248.25	7359.15
938.7812	2083.4916	8222.25	7331.9
938.9176	2085.039	8207.1	7314.35
939.054	2086.5857	8195.15	7301.25
939.1903	2088.1317	8158.9	7264.75
939.3267	2089.677	8130.5	7235.1
939.463	2091.2215	8123.6	7229.45
939.5992	2092.7652	8117.5	7219.95
939.7355	2094.3083	8095.6	7199
939.8717	2095.8506	8073.25	7182.4
940.0079	2097.3921	8050.4	7160.55
940.1441	2098.933	8024.2	7133.55
940.2802	2100.4731	8022.5	7131.6
940.4163	2102.0124	7991.7	7092.75
940.5524	2103.5511	7970.05	7080.85
940.6885	2105.089	7968.65	7078.95
940.8245	2106.6261	7962.1	7072.45
940.9606	2108.1626	7914.1	7025.65
941.0965	2109.6983	7887.9	6970.2
941.2325	2111.2332	7857.75	6968.1
941.3684	2112.7675	7849.95	6959.3
941.5044	2114.301	7822.4	6930.35
941.6403	2115.8337	7811.05	6923.2
941.7761	2117.3657	7781.65	6894.25
941.912	2118.897	7760.8	6870.8
942.0478	2120.4276	7737.25	6842.7
942.1835	2121.9575	7712.55	6820.25
942.3193	2123.4866	7724.2	6819.35
942.455	2125.0149	7691.2	6801
942.5907	2126.5426	7635.65	6748.65
942.7264	2128.0695	7639.25	6752
942.8621	2129.5956	7615.4	6732.6
942.9977	2131.1211	7587.25	6698.2
943.1333	2132.6458	7570.85	6682.95
943.2689	2134.1698	7542.15	6653.65
943.4044	2135.693	7530.15	6636.95
943.54	2137.2155	7526.05	6631.4
943.6755	2138.7373	7513.35	6626.1
943.8109	2140.2584	7462.25	6579.25
943.9464	2141.7787	7451.45	6561.8
944.0818	2143.2983	7417.6	6533.75
944.2172	2144.8171	7373.6	6491.75
944.3526	2146.3353	7368.75	6480.75
944.4879	2147.8527	7341.5	6458.2
944.6232	2149.3693	7332.1	6442.05
944.7585	2150.8853	7329.2	6439.95
944.8938	2152.4005	7288.3	6396.45
945.029	2153.9149	7273.1	6386.3
945.1642	2155.4287	7353.5	6351.65
945.2994	2156.9417	7253.95	6362.75
945.4346	2158.454	7224.35	6335.35
945.5697	2159.9655	7189.2	6301.9
945.7048	2161.4764	7206.95	6319.05
945.8399	2162.9865	7156	6269.8
945.9749	2164.4958	7132.05	6245.65
946.1099	2166.0045	7128.25	6239.2
946.2449	2167.5124	7112.75	6223.8
946.3799	2169.0195	7096.7	6210.8
946.5148	2170.526	7082.6	6191.2
946.6498	2172.0317	7051.1	6162.35
946.7846	2173.5367	7055.7	6167
946.9195	2175.0409	7004.95	6118.15
947.0543	2176.5445	7004	6118.8
947.1891	2178.0473	6972.75	6082.95
947.3239	2179.5494	6957.4	6062.65
947.4587	2181.0507	6917.75	6028.75
947.5934	2182.5513	6913.5	6026.15
947.7281	2184.0512	6897.5	6008
947.8628	2185.5504	6880.7	5994.75
947.9974	2187.0488	6840.3	5954.5
948.132	2188.5465	6816.3	5931
948.2666	2190.0435	6806.45	5919.55
948.4012	2191.5397	6783.1	5894.6
948.5357	2193.0353	6762.5	5872.4
948.6702	2194.5301	6715.3	5824
948.8047	2196.0241	6713.65	5822.3
948.9392	2197.5175	6698.85	5806.95
949.0736	2199.0101	6681.2	5786.2
949.208	2200.502	6629	5740.4
949.3424	2201.9931	6635.55	5747.5
949.4767	2203.4835	6605.15	5720.05
949.611	2204.9733	6590.1	5699.5
949.7453	2206.4622	6567.65	5682.15
949.8796	2207.9505	6546.45	5657.8
950.0138	2209.438	6506.75	5623.15
950.148	2210.9248	6496	5608.8
950.2822	2212.4109	6473.2	5585.55
950.4164	2213.8962	6470.9	5579.35
950.5505	2215.3809	6436.1	5544.5
950.6846	2216.8648	6414.65	5522.5
950.8186	2218.3479	6399.25	5504.5
950.9527	2219.8304	6400.15	5505.5
951.0867	2221.3121	6364.9	5470.9
951.2207	2222.7931	6330.6	5440.8
951.3546	2224.2733	6313.35	5423.7
951.4886	2225.7529	6298.75	5409.8
951.6225	2227.2317	6284.9	5394.3
951.7563	2228.7098	6276.05	5389.95
951.8902	2230.1872	6231.2	5345.8
952.024	2231.6638	6240.2	5353.85
952.1578	2233.1397	6221.75	5331.65
952.2916	2234.6149	6208.5	5323.8
952.4253	2236.0894	6188.6	5299.95
952.559	2237.5632	6157.6	5269.4
952.6927	2239.0362	6143.6	5255.45
952.8263	2240.5085	6128.95	5239.85
952.9599	2241.9801	6085	5196.4
953.0935	2243.4509	6085.1	5195.95
953.2271	2244.921	6082.1	5190.85
953.3606	2246.3904	6035	5142.05
953.4941	2247.8591	6032.6	5143.7
953.6276	2249.3271	6000.4	5111.55
953.7611	2250.7943	5982	5089.3
953.8945	2252.2608	5960	5069.7
954.0279	2253.7266	5952.15	5059.45
954.1612	2255.1917	5938.35	5049.7
954.2946	2256.656	5896.4	5007.35
954.4279	2258.1197	5898.3	5014.15
954.5612	2259.5826	5880.55	4991.05
954.6944	2261.0447	5875.5	4985.1
954.8276	2262.5062	5852.5	4959.35
954.9608	2263.9669	5855	4962.9
955.094	2265.4269	5823.45	4932.25
955.2271	2266.8862	5815	4927.9
955.3602	2268.3448	5785.05	4897.65
955.4933	2269.8026	5800	4915.8
955.6264	2271.2598	5746.85	4860.9
955.7594	2272.7162	5745.4	4858.1
955.8924	2274.1719	5739.15	4850.45
956.0253	2275.6268	5707.3	4819.1
956.1583	2277.0811	5713	4821.05
956.2912	2278.5346	5703.15	4816.1
956.4241	2279.9874	5680.7	4795.15
956.5569	2281.4395	5661.4	4774.35
956.6897	2282.8908	5654	4761
956.8225	2284.3414	5637.55	4745.85
956.9553	2285.7914	5623.4	4734.95
957.088	2287.2406	5610.6	4717.1
957.2207	2288.689	5589.05	4695.7
957.3534	2290.1368	5583.85	4689.7
957.486	2291.5838	5567.75	4671.5
957.6186	2293.0302	5547.4	4654.3
957.7512	2294.4758	5510.15	4619.1
957.8838	2295.9206	5505.85	4614.1
958.0163	2297.3648	5510.85	4621.95
958.1488	2298.8082	5489.35	4599.35
958.2813	2300.251	5481.3	4590.2
958.4137	2301.693	5438.4	4545.2
958.5461	2303.1343	5452.8	4560.7
958.6785	2304.5748	5438.65	4548.55
958.8108	2306.0147	5407.45	4518.15
958.9432	2307.4538	5385.4	4497.3
959.0754	2308.8922	5361.55	4475.3
959.2077	2310.3299	5365.95	4480.45
959.3399	2311.7669	5366.05	4479.65
959.4721	2313.2031	5323.65	4432.9
959.6043	2314.6387	5297.55	4409.65
959.7365	2316.0735	5286.15	4396.4
959.8686	2317.5076	5285.2	4394.95
960.0006	2318.941	5275.15	4384.9
960.1327	2320.3737	5268.6	4376.15
960.2647	2321.8056	5236.65	4343.2
960.3967	2323.2369	5218.75	4329.25
960.5287	2324.6674	5208.4	4317.45
960.6606	2326.0972	5183.9	4293.1
960.7925	2327.5263	5174.15	4281.75
960.9244	2328.9547	5167.8	4275.9
961.0562	2330.3823	5140.8	4248.9
961.1881	2331.8092	5155.9	4261.25
961.3198	2333.2355	5110.7	4216.35
961.4516	2334.661	5124	4232.95
961.5833	2336.0858	5114.65	4222.8
961.715	2337.5098	5073.45	4181.75
961.8467	2338.9332	5072.2	4181.15
961.9783	2340.3558	5049.6	4156.5
962.1099	2341.7778	5036.55	4147.8
962.2415	2343.199	5017.75	4125.4
962.373	2344.6195	5009.8	4122.05
962.5045	2346.0393	5000.6	4114.35
962.636	2347.4583	5004	4115.8
962.7675	2348.8767	4975.45	4084.5
962.8989	2350.2943	4945.4	4054.2
963.0303	2351.7113	4962.6	4068.75
963.1617	2353.1275	4940.65	4045.45
963.293	2354.543	4942.75	4044.05
963.4243	2355.9578	4933	4042.25
963.5556	2357.3718	4893.95	4005.35
963.6868	2358.7852	4867.1	3976.45
963.818	2360.1978	4854.9	3966.1
963.9492	2361.6098	4857.3	3970.75
964.0803	2363.021	4823	3928.5
964.2114	2364.4315	4816.55	3926.15
964.3425	2365.8413	4820.55	3924.6
964.4736	2367.2504	4805.7	3916.6
964.6046	2368.6587	4773.55	3888.15
964.7356	2370.0664	4738.45	3850.65
964.8666	2371.4733	4738.75	3848.75
964.9975	2372.8795	4717.65	3827.75
965.1284	2374.285	4698.9	3808.4
965.2593	2375.6899	4687.75	3801.75
965.3901	2377.0939	4669.9	3783.35
965.5209	2378.4973	4647.4	3760.7
965.6517	2379.9	4634.55	3747
965.7825	2381.3019	4633.75	3745.85
965.9132	2382.7032	4610.95	3724.5
966.0439	2384.1037	4601.5	3716.9
966.1745	2385.5035	4594.5	3709.9
966.3051	2386.9027	4577.25	3693.75
966.4357	2388.3011	4576.85	3688.35
966.5663	2389.6987	4555.95	3669.9
966.6968	2391.0957	4535.6	3648.1
966.8273	2392.492	4519.5	3633.85
966.9578	2393.8876	4494.6	3607.25
967.0882	2395.2824	4483.05	3593.85
967.2186	2396.6765	4476.1	3588.1
967.349	2398.07	4455.3	3569.5
967.4793	2399.4627	4440.85	3551.8
967.6097	2400.8547	4431.95	3545
967.7399	2402.246	4422.8	3528.5
967.8702	2403.6366	4382.4	3495.2
968.0004	2405.0265	4373.65	3487.75
968.1306	2406.4156	4380.65	3488.85
968.2607	2407.8041	4346.9	3457.55
968.3909	2409.1918	4353.7	3463.4
968.521	2410.5789	4326.5	3437.45
968.651	2411.9652	4316.75	3425.9
968.781	2413.3508	4300.5	3412.8
968.911	2414.7358	4283.55	3395.15
969.041	2416.12	4277.9	3389.6
969.1709	2417.5035	4267.65	3380.15
969.3008	2418.8863	4265.05	3376.15
969.4307	2420.2684	4242.35	3354.3
969.5606	2421.6497	4225.6	3335.5
969.6904	2423.0304	4196.05	3308.05
969.8201	2424.4104	4209.05	3319.25
969.9499	2425.7896	4190.4	3300.85
970.0796	2427.1682	4179.75	3291.2
970.2093	2428.546	4163.4	3275.25
970.3389	2429.9232	4166.05	3277.15
970.4685	2431.2996	4147.6	3259.6
970.5981	2432.6753	4137.45	3250.2
970.7277	2434.0503	4117.45	3226.25
970.8572	2435.4246	4099.7	3212.15
970.9867	2436.7982	4094.5	3203.65
971.1161	2438.1711	4092.75	3204.85
971.2456	2439.5433	4088.8	3198.4
971.375	2440.9148	4061.65	3167.15
971.5043	2442.2856	4050.8	3163.3
971.6336	2443.6557	4053.2	3163.85
971.7629	2445.025	4029.9	3141.85
971.8922	2446.3937	4026.9	3136.75
972.0214	2447.7617	3998.3	3108.6
972.1506	2449.1289	3997.1	3110.15
972.2798	2450.4955	3986.95	3094.25
972.4089	2451.8613	3974.65	3089.8
972.538	2453.2265	3966.9	3082.05
972.6671	2454.5909	3966.35	3075.95
972.7961	2455.9546	3957.3	3068.2
972.9251	2457.3177	3942.7	3053.85
973.0541	2458.68	3939.3	3049.75
973.1831	2460.0416	3941.95	3053.2
973.312	2461.4025	3934.85	3043.85
973.4408	2462.7627	3914.4	3017.6
973.5697	2464.1222	3887.95	3003.5
973.6985	2465.4811	3873.8	2984.75
973.8273	2466.8392	3878.3	2992.35
973.956	2468.1966	3876.6	2986.9
974.0847	2469.5533	3868.9	2980.4
974.2134	2470.9093	3851.55	2959.95
974.3421	2472.2645	3852.7	2961
974.4707	2473.6191	3835.3	2947
974.5993	2474.973	3825.6	2937
974.7278	2476.3262	3807.15	2918.15
974.8563	2477.6787	3802.85	2915.15
974.9848	2479.0305	3787.7	2900.3
975.1132	2480.3816	3774.6	2883.3
975.2417	2481.7319	3767.4	2879.3
975.37	2483.0816	3745.4	2856.6
975.4984	2484.4306	3731.1	2843.8
975.6267	2485.7789	3723.1	2838.4
975.755	2487.1264	3705.8	2817.7
975.8833	2488.4733	3705.55	2819.75
976.0115	2489.8195	3711.35	2805.55
976.1397	2491.165	3678.6	2788.6
976.2678	2492.5097	3678.6	2788.15
976.3959	2493.8538	3653.95	2766.8
976.524	2495.1972	3627.85	2740.6
976.6521	2496.5398	3634.85	2745.7
976.7801	2497.8818	3637.95	2747.75
976.9081	2499.2231	3614.9	2724.15
977.036	2500.5637	3615.75	2723.6
977.164	2501.9035	3603.65	2713.4
977.2918	2503.2427	3585.45	2691.9
977.4197	2504.5812	3574.95	2685.5
977.5475	2505.919	3571.95	2681.25
977.6753	2507.256	3560.05	2670.8
977.8031	2508.5924	3554.6	2668.25
977.9308	2509.9281	3550.6	2657.35
978.0585	2511.2631	3531.85	2643.9
978.1861	2512.5974	3526.65	2640.55
978.3137	2513.9309	3507.75	2619.35
978.4413	2515.2638	3518.2	2603.15
978.5689	2516.596	3512.9	2625.65
978.6964	2517.9275	3483.85	2594.5
978.8239	2519.2583	3471.4	2582.75
978.9513	2520.5884	3454.95	2567.2
979.0788	2521.9178	3449	2560.9
979.2062	2523.2465	3443.35	2554.05
979.3335	2524.5745	3437.3	2549.3
979.4608	2525.9018	3414.6	2525.9
979.5881	2527.2284	3413.85	2525.15
979.7154	2528.5543	3403.85	2517.55
979.8426	2529.8796	3395.2	2506.9
979.9698	2531.2041	3393.6	2505.65
980.0969	2532.5279	3388.25	2499.95
980.224	2533.851	3373.45	2485.95
980.3511	2535.1735	3371	2484
980.4781	2536.4952	3360.7	2470.15
980.6052	2537.8163	3356.95	2466.8
980.7321	2539.1366	3347.65	2457.8
980.8591	2540.4562	3346.7	2455.6
980.986	2541.7752	3335.35	2447.2
981.1129	2543.0935	3335.3	2446.1
981.2397	2544.411	3328.9	2438.6
981.3665	2545.7279	3315	2425.85
981.4933	2547.0441	3316.9	2428.4
981.62	2548.3596	3321.6	2429.6
981.7467	2549.6744	3310.75	2421.25
981.8734	2550.9885	3306.2	2415.9
982.0001	2552.3019	3282.25	2394.1
982.1267	2553.6146	3280.7	2390.25
982.2532	2554.9266	3259.85	2372.1
982.3798	2556.2379	3254.1	2361.8
982.5063	2557.5485	3257.8	2370.5
982.6327	2558.8585	3255.8	2359.45
982.7592	2560.1677	3241.45	2347.15
982.8856	2561.4762	3242.25	2353
983.0119	2562.7841	3231.2	2339.65
983.1383	2564.0913	3219.85	2330.7
983.2646	2565.3977	3205.3	2317.2
983.3908	2566.7035	3222.25	2333.45
983.517	2568.0086	3210.9	2322.45
983.6432	2569.313	3201.6	2311.55
983.7694	2570.6167	3194.95	2300.05
983.8955	2571.9197	3200.5	2310.85
984.0216	2573.222	3201.55	2306.9
984.1476	2574.5236	3189.15	2300.8
984.2737	2575.8246	3169.4	2278.85
984.3996	2577.1248	3176.5	2283.05
984.5256	2578.4244	3146.6	2258.85
984.6515	2579.7232	3167.45	2278.65
984.7774	2581.0214	3182.65	2262.45
984.9032	2582.3189	3150.25	2261.6
985.029	2583.6157	3147.65	2254.45
985.1548	2584.9118	3149.3	2260.15
985.2806	2586.2072	3139.5	2249.8
985.4063	2587.5019	3130.7	2240.1
985.5319	2588.7959	3134	2243.45
985.6576	2590.0893	3124.1	2233.75
985.7832	2591.3819	3122.95	2236.45
985.9087	2592.6739	3109.95	2220.5
986.0343	2593.9652	3119.4	2229.65
986.1597	2595.2557	3105.3	2216.5
986.2852	2596.5456	3099.25	2205
986.4106	2597.8348	3082.4	2193.6
986.536	2599.1234	3073.6	2183.3
986.6614	2600.4112	3084.3	2196.95
986.7867	2601.6983	3070.95	2177.65
986.912	2602.9848	3063.05	2173.3
987.0372	2604.2705	3055.85	2161.35
987.1624	2605.5556	3051.9	2165.8
987.2876	2606.84	3046.05	2158.3
987.4128	2608.1237	3032.95	2143.45
987.5379	2609.4067	3023.85	2132.1
987.6629	2610.689	3015.7	2116.05
987.788	2611.9707	3019.5	2128.95
987.913	2613.2516	2997.85	2105.1
988.0379	2614.5319	2987.8	2100.3
988.1629	2615.8115	2983	2093.95
988.2878	2617.0903	2959.85	2070.65
988.4126	2618.3685	2973.15	2084.15
988.5375	2619.6461	2957.6	2068.1
988.6622	2620.9229	2954.35	2065.45
988.787	2622.199	2941.15	2049.5
988.9117	2623.4745	2930.65	2039.7
989.0364	2624.7493	2915.7	2027.1
989.161	2626.0234	2928.35	2041
989.2857	2627.2968	2926.55	2038.45
989.4102	2628.5695	2913.15	2023.5
989.5348	2629.8415	2908	2018.8
989.6593	2631.1128	2894.45	2003.55
989.7837	2632.3835	2884.85	1997.8
989.9082	2633.6535	2867.3	1979.45
990.0326	2634.9228	2870.5	1982.75
990.1569	2636.1914	2878.75	1988.3
990.2812	2637.4593	2867.75	1977.9
990.4055	2638.7265	2844.8	1955.55
990.5298	2639.9931	2853.75	1966.05
990.654	2641.259	2845.6	1953.05
990.7782	2642.5242	2837.85	1948
990.9023	2643.7887	2829.3	1940.5
991.0264	2645.0525	2817.45	1929.65
991.1505	2646.3156	2819.35	1927.05
991.2745	2647.5781	2809.45	1921.1
991.3985	2648.8398	2805.1	1916.7
991.5225	2650.1009	2800.95	1906.75
991.6464	2651.3613	2788.85	1898.85
991.7703	2652.6211	2786.25	1898.35
991.8942	2653.8801	2767.4	1878.55
992.018	2655.1385	2769.65	1878
992.1418	2656.3961	2763.3	1874.8
992.2655	2657.6531	2763.15	1874.65
992.3892	2658.9094	2750.55	1861.65
992.5129	2660.1651	2751.3	1862.25
992.6366	2661.42	2759.7	1871.55
992.7602	2662.6743	2748.9	1858.65
992.8837	2663.9279	2744.8	1857.1
993.0073	2665.1808	2736.55	1847.8
993.1307	2666.433	2734.35	1844.15
993.2542	2667.6846	2727.25	1841.05
993.3776	2668.9354	2737.4	1846.1
993.501	2670.1856	2731.25	1842.05
993.6244	2671.4351	2721.35	1834.5
993.7477	2672.6839	2725.65	1837.9
993.8709	2673.9321	2718.9	1828.7
993.9942	2675.1795	2712.7	1824.1
994.1174	2676.4263	2706.7	1820.15
994.2405	2677.6724	2708.45	1820.25
994.3637	2678.9179	2705.95	1818.95
994.4868	2680.1626	2700.05	1813.1
994.6098	2681.4067	2689.35	1800.6
994.7328	2682.6501	2689.7	1801.4
994.8558	2683.8928	2682.15	1793.65
994.9788	2685.1348	2675.45	1789.15
995.1017	2686.3761	2659	1768.75
995.2245	2687.6168	2654.95	1767
995.3474	2688.8568	2653.05	1763.3
995.4702	2690.0961	2645.6	1758.35
995.5929	2691.3348	2639.75	1752.15
995.7156	2692.5727	2627.45	1740.35
995.8383	2693.81	2626.35	1738.6
995.961	2695.0466	2616.85	1731
996.0836	2696.2826	2603.8	1713.25
996.2062	2697.5178	2617.5	1727.9
996.3287	2698.7524	2600.45	1712.25
996.4512	2699.9863	2599.85	1710.7
996.5737	2701.2195	2591.1	1706.55
996.6961	2702.452	2604.85	1714.95
996.8185	2703.6839	2596.75	1707.15
996.9408	2704.9151	2597.45	1710.1
997.0631	2706.1456	2590.15	1700.55
997.1854	2707.3755	2600.3	1712.45
997.3077	2708.6046	2608.4	1718.8
997.4299	2709.8331	2599.1	1710.35
997.552	2711.0609	2592.15	1704.8
997.6742	2712.2881	2581.6	1694.95
997.7963	2713.5145	2587.65	1697.7
997.9183	2714.7403	2608.55	1720.9
998.0403	2715.9654	2611.1	1724
998.1623	2717.1899	2632.2	1729.75
998.2842	2718.4136	2628.65	1741.1
998.4062	2719.6367	2628.7	1740
998.528	2720.8591	2638.1	1745.65
998.6498	2722.0809	2643.25	1756.3
998.7716	2723.3019	2651.65	1761.05
998.8934	2724.5223	2656.75	1767.8
999.0151	2725.7421	2659.7	1770.75
999.1368	2726.9611	2643.3	1753.8
999.2584	2728.1795	2641.65	1750.5
999.38	2729.3972	2631.1	1741.6
999.5016	2730.6142	2612.75	1713.05
999.6231	2731.8306	2595	1705.8
999.7446	2733.0462	2571.75	1683.15
999.8661	2734.2612	2552.85	1662.7
999.9875	2735.4756	2546.8	1658.1
1000.1089	2736.6892	2516.6	1630.75
1000.2302	2737.9022	2494.95	1607.75
1000.3515	2739.1145	2470.6	1583.25
1000.4728	2740.3262	2466.3	1572.9
1000.594	2741.5372	2448.6	1562.45
1000.7152	2742.7475	2438.15	1551.45
1000.8363	2743.9571	2426.55	1537
1000.9575	2745.1661	2412.3	1519.45
1001.0785	2746.3744	2388.5	1499.2
1001.1996	2747.582	2378.75	1490.8
1001.3206	2748.7889	2363.95	1475.4
1001.4415	2749.9952	2359.8	1473.85
1001.5625	2751.2008	2333.45	1444.35
1001.6833	2752.4057	2337.55	1446.95
1001.8042	2753.61	2322.25	1433.75
1001.925	2754.8136	2324	1434.8
1002.0458	2756.0165	2321.4	1437.1
1002.1665	2757.2188	2316	1430
1002.2872	2758.4204	2322.8	1437.7
1002.4078	2759.6213	2301.8	1413.3
1002.5285	2760.8215	2316.85	1426.55
1002.649	2762.0211	2304.7	1416.2
1002.7696	2763.22	2300.95	1410.65
1002.8901	2764.4182	2291	1402.65
1003.0106	2765.6158	2287	1401.05
1003.131	2766.8127	2282.15	1396.95
1003.2514	2768.009	2273.25	1386.2
1003.3717	2769.2045	2269.5	1382.1
1003.492	2770.3994	2258.25	1367.8
1003.6123	2771.5936	2256.5	1371.45
1003.7325	2772.7872	2238.8	1353.3
1003.8527	2773.9801	2246.65	1359.2
1003.9729	2775.1723	2254.55	1349.05
1004.093	2776.3639	2230.4	1346.55
1004.2131	2777.5548	2227.75	1337.55
1004.3331	2778.745	2232.7	1345.05
1004.4531	2779.9346	2221.95	1336.5
1004.5731	2781.1235	2223.4	1337.95
1004.693	2782.3117	2227.95	1342.95
1004.8129	2783.4992	2224.3	1338.4
1004.9328	2784.6861	2243.7	1358.7
1005.0526	2785.8723	2226.8	1341.5
1005.1723	2787.0579	2224.55	1338.45
1005.2921	2788.2428	2236.05	1348.65
1005.4118	2789.427	2238.75	1354.3
1005.5314	2790.6106	2233.4	1347.9
1005.651	2791.7935	2252.85	1366.05
1005.7706	2792.9757	2257.6	1370.85
1005.8902	2794.1573	2267.7	1378.5
1006.0097	2795.3382	2272.2	1385.95
1006.1291	2796.5184	2282.1	1398.4
1006.2485	2797.698	2310.75	1423.75
1006.3679	2798.8769	2310.35	1422.9
1006.4873	2800.0551	2323.3	1437.6
1006.6066	2801.2327	2340.55	1451.9
1006.7258	2802.4096	2351.75	1464.7
1006.8451	2803.5859	2372.15	1485.75
1006.9642	2804.7615	2395	1507.5
1007.0834	2805.9364	2420.75	1536.3
1007.2025	2807.1106	2439.25	1554.1
1007.3216	2808.2842	2479.5	1592.7
1007.4406	2809.4572	2492.05	1605.95
1007.5596	2810.6294	2516.3	1629.35
1007.6785	2811.801	2572.55	1686.4
1007.7975	2812.972	2605.05	1722.5
1007.9163	2814.1423	2660.3	1774.7
1008.0352	2815.3119	2701.9	1815.8
1008.154	2816.4808	2739.5	1856.9
1008.2727	2817.6491	2785.3	1899.3
1008.3914	2818.8167	2819.6	1935.55
1008.5101	2819.9837	2886.75	1997.45
1008.6288	2821.15	2915.6	2030.95
1008.7474	2822.3157	2967.9	2085.35
1008.8659	2823.4807	2995.25	2109.85
1008.9844	2824.645	3046.5	2159.2
1009.1029	2825.8086	3086.55	2202.8
1009.2214	2826.9716	3127.05	2245.3
1009.3398	2828.134	3163.05	2276.8
1009.4581	2829.2957	3207.45	2321.5
1009.5764	2830.4567	3234.95	2351.6
1009.6947	2831.617	3243.8	2358.25
1009.813	2832.7767	3259.35	2374.3
1009.9312	2833.9358	3244.25	2360.25
1010.0493	2835.0941	3234.45	2349.05
1010.1675	2836.2519	3235.6	2350.65
1010.2855	2837.4089	3209.4	2324.1
1010.4036	2838.5653	3211.05	2326.25
1010.5216	2839.7211	3214.05	2331.25
1010.6396	2840.8761	3214.05	2326.05
1010.7575	2842.0306	3231.9	2349.65
1010.8754	2843.1843	3262.95	2379.1
1010.9932	2844.3374	3326	2441.7
1011.111	2845.4899	3377.9	2491.95
1011.2288	2846.6417	3468.95	2583.4
1011.3465	2847.7928	3546.05	2661.4
1011.4642	2848.9433	3611.4	2725.65
1011.5818	2850.0931	3689.25	2804.75
1011.6995	2851.2422	3754.05	2868.8
1011.817	2852.3907	3833.05	2945.95
1011.9345	2853.5385	3890.55	3005.15
1012.052	2854.6857	3949.85	3057.8
1012.1695	2855.8323	4000.95	3117.25
1012.2869	2856.9781	4053	3167.1
1012.4042	2858.1233	4092.9	3208.8
1012.5216	2859.2679	4141.6	3258.7
1012.6389	2860.4118	4184.05	3298.15
1012.7561	2861.555	4235.7	3348.25
1012.8733	2862.6976	4271.35	3383.45
1012.9905	2863.8395	4284.05	3401.95
1013.1076	2864.9808	4310.45	3425.75
1013.2247	2866.1214	4324.65	3441.85
1013.3417	2867.2614	4327.4	3440.75
1013.4587	2868.4007	4337.75	3452.35
1013.5757	2869.5393	4353.8	3467.05
1013.6926	2870.6773	4361.8	3473.75
1013.8095	2871.8146	4372.6	3485.7
1013.9263	2872.9513	4376.5	3488.5
1014.0431	2874.0874	4359.05	3475.95
1014.1599	2875.2227	4356.25	3470
1014.2766	2876.3574	4333.6	3449.25
1014.3933	2877.4915	4293.55	3410.5
1014.51	2878.6249	4266	3382.05
1014.6266	2879.7577	4255.8	3370.3
1014.7431	2880.8898	4223.15	3325.95
1014.8596	2882.0212	4203.7	3318.35
1014.9761	2883.152	4197.65	3313.8
1015.0925	2884.2821	4179.15	3295.1
1015.2089	2885.4116	4173.95	3292.9
1015.3253	2886.5405	4173.6	3290.45
1015.4416	2887.6686	4171.85	3284
1015.5579	2888.7962	4169.4	3287.6
1015.6741	2889.923	4186.7	3303.45
1015.7903	2891.0493	4190.35	3307.75
1015.9065	2892.1748	4191	3305.75
1016.0226	2893.2997	4207.4	3322.9
1016.1387	2894.424	4214.75	3332.35
1016.2547	2895.5476	4231.45	3347.8
1016.3707	2896.6706	4250	3367.65
1016.4866	2897.7929	4282.05	3397.6
1016.6025	2898.9145	4304.1	3421.2
1016.7184	2900.0355	4347.4	3462.25
1016.8342	2901.1559	4366.65	3481.15
1016.95	2902.2756	4404.95	3523.15
1017.0658	2903.3946	4429.4	3548.5
1017.1815	2904.513	4456.4	3567.9
1017.2971	2905.6308	4468.8	3585.35
1017.4127	2906.7479	4501.15	3615.55
1017.5283	2907.8643	4520.2	3634.65
1017.6439	2908.9801	4529.55	3647.1
1017.7594	2910.0953	4538.4	3652.5
1017.8748	2911.2098	4524.15	3637.4
1017.9902	2912.3236	4509.85	3617.5
1018.1056	2913.4368	4523.25	3635.25
1018.2209	2914.5494	4497.85	3614.75
1018.3362	2915.6613	4460.85	3572.2
1018.4515	2916.7725	4427	3540.05
1018.5667	2917.8831	4391.15	3507.65
1018.6819	2918.9931	4383.2	3496.6
1018.797	2920.1024	4339.4	3454.15
1018.9121	2921.211	4325.2	3442.65
1019.0271	2922.319	4285.6	3401.45
1019.1421	2923.4264	4283.65	3402.3
1019.2571	2924.5331	4249.6	3365.05
1019.372	2925.6391	4241.45	3359.65
1019.4869	2926.7445	4232.6	3351.25
1019.6017	2927.8493	4219.05	3335.3
1019.7165	2928.9534	4192.5	3310.2
1019.8313	2930.0569	4178.9	3292.2
1019.946	2931.1597	4204.1	3320.35
1020.0606	2932.2619	4165.95	3282.2
1020.1753	2933.3634	4161.8	3280.8
1020.2899	2934.4643	4162.4	3272.15
1020.4044	2935.5645	4136.2	3244.8
1020.5189	2936.6641	4102.15	3212.95
1020.6334	2937.763	4048.35	3166.3
1020.7478	2938.8613	3986.45	3103.95
1020.8622	2939.959	3935.3	3046.55
1020.9765	2941.056	3857.6	2974.75
1021.0908	2942.1523	3772	2886.75
1021.2051	2943.248	3682.45	2801
1021.3193	2944.3431	3587	2702.65
1021.4334	2945.4375	3468.85	2586.25
1021.5476	2946.5313	3363.75	2480.4
1021.6617	2947.6244	3275.05	2392.65
1021.7757	2948.7169	3143.8	2260.75
1021.8897	2949.8087	3056.3	2171.45
1022.0037	2950.8999	2963.5	2080.65
1022.1176	2951.9904	2873.25	1990.4
1022.2315	2953.0803	2807.75	1924.85
1022.3453	2954.1696	2742	1857.8
1022.4591	2955.2582	2692.95	1809.05
1022.5728	2956.3462	2641.95	1760.95
1022.6865	2957.4335	2603.35	1720.55
1022.8002	2958.5202	2559.45	1675.55
1022.9138	2959.6062	2532.5	1649.65
1023.0274	2960.6916	2496.3	1615.2
1023.141	2961.7764	2486.2	1601.25
1023.2545	2962.8605	2470.4	1588.9
1023.3679	2963.9439	2444.3	1561.65
1023.4813	2965.0267	2426.1	1543.15
1023.5947	2966.1089	2444.95	1539.95
1023.708	2967.1905	2419.4	1538.3
1023.8213	2968.2714	2401.95	1520.05
1023.9346	2969.3516	2415.05	1530.85
1024.0478	2970.4312	2420.65	1529.85
1024.1609	2971.5102	2406.65	1524.85
1024.274	2972.5885	2399.6	1516.05
1024.3871	2973.6662	2409	1522.05
1024.5002	2974.7432	2402.7	1518.5
1024.6132	2975.8196	2397.55	1515.4
1024.7261	2976.8954	2368.25	1486.1
1024.839	2977.9705	2377.55	1495.85
1024.9519	2979.045	2353.3	1471.35
1025.0647	2980.1188	2340.5	1457.65
1025.1775	2981.192	2317.9	1436.65
1025.2902	2982.2645	2291.25	1407.85
1025.4029	2983.3364	2261.1	1378.1
1025.5156	2984.4077	2228.7	1348.15
1025.6282	2985.4783	2199.15	1310.95
1025.7407	2986.5483	2168.4	1285.5
1025.8532	2987.6177	2124.8	1243.15
1025.9657	2988.6864	2108.65	1224.85
1026.0782	2989.7545	2062.4	1177.9
1026.1906	2990.8219	2027.95	1145.65
1026.3029	2991.8887	2001	1116
1026.4152	2992.9548	1967.8	1084.05
1026.5275	2994.0204	1926.1	1045.15
1026.6397	2995.0852	1899.55	1018.2
1026.7519	2996.1495	1878.55	991.95
1026.864	2997.2131	1844.35	962.85
1026.9761	2998.276	1824.95	942.65
1027.0882	2999.3383	1799.5	915.95
1027.2002	3000.4	1776.25	892.6
1027.3122	3001.4611	1768.6	886.2
1027.4241	3002.5215	1752.85	868.05
1027.536	3003.5812	1730.9	848.7
1027.6478	3004.6404	1721.55	839.9
1027.7596	3005.6989	1706.55	821.45
1027.8714	3006.7567	1698.4	817.8
1027.9831	3007.8139	1709.9	807.85
1028.0947	3008.8705	1681.8	798.05
1028.2064	3009.9264	1687.5	787.2
1028.3179	3010.9818	1678.65	795.45
1028.4295	3012.0364	1665.6	780.8
1028.541	3013.0905	1662.35	779.55
1028.6524	3014.1439	1659.7	778.1
1028.7638	3015.1966	1656.95	776.7
1028.8752	3016.2487	1653.3	772.1
1028.9865	3017.3002	1655.85	766.2
1029.0978	3018.3511	1645.85	764.25
1029.209	3019.4013	1650.5	771.55
1029.3202	3020.4509	1657.7	777.35
1029.4314	3021.4998	1650.05	769.05
1029.5425	3022.5481	1652.25	770.4
1029.6535	3023.5958	1644.9	763.6
1029.7645	3024.6428	1639.3	757.45
1029.8755	3025.6892	1648.5	767.1
1029.9864	3026.735	1653.6	771.75
1030.0973	3027.7802	1640.2	757.35
1030.2082	3028.8247	1644.35	763.4
1030.319	3029.8685	1652.6	768.95
1030.4297	3030.9118	1655.95	775.6
1030.5404	3031.9544	1658	777.1
1030.6511	3032.9963	1663.45	782.7
1030.7617	3034.0376	1666.85	785.1
1030.8723	3035.0783	1669.75	784.5
1030.9829	3036.1184	1674.9	794.25
1031.0934	3037.1578	1675.6	793.55
1031.2038	3038.1966	1675.6	791.55
1031.3142	3039.2348	1667.95	785.15
1031.4246	3040.2723	1677.1	788.6
1031.5349	3041.3092	1663.25	781.15
1031.6452	3042.3455	1670	789.55
1031.7554	3043.3811	1656.1	772.9
1031.8656	3044.4161	1656.25	774.35
1031.9758	3045.4505	1648	765.7
1032.0859	3046.4842	1638.15	756.05
1032.1959	3047.5173	1633	753.05
1032.3059	3048.5498	1630.1	747.65
1032.4159	3049.5816	1614.65	731.2
1032.5258	3050.6128	1611.95	730.95
1032.6357	3051.6434	1601.05	718.5
1032.7455	3052.6734	1587.75	704.2
1032.8553	3053.7027	1588.1	705.65
1032.9651	3054.7314	1583.85	701.05
1033.0748	3055.7594	1569	686.9
1033.1845	3056.7868	1573.55	689.25
1033.2941	3057.8136	1555.9	674.05
1033.4037	3058.8398	1559.55	681.65
1033.5132	3059.8653	1552.1	669.75
1033.6227	3060.8902	1542.8	662.1
1033.7321	3061.9145	1537.2	655.7
1033.8415	3062.9381	1529.9	649.6
1033.9509	3063.9612	1534.75	638.3
1034.0602	3064.9835	1515.6	635.15
1034.1694	3066.0053	1507.4	624.8
1034.2787	3067.0264	1496.1	615.65
1034.3878	3068.0469	1488.65	605.75
1034.497	3069.0668	1476.55	588.2
1034.6061	3070.086	1479.6	598.5
1034.7151	3071.1046	1469.35	584.25
1034.8241	3072.1226	1462.5	582.05
1034.9331	3073.1399	1443.3	561.65
1035.042	3074.1567	1431.05	551.65
1035.1508	3075.1727	1424.85	542.75
1035.2597	3076.1882	1416	537.05
1035.3684	3077.203	1400.95	517.7
1035.4772	3078.2173	1396.25	512.35
1035.5859	3079.2308	1387.95	504.3
1035.6945	3080.2438	1383.55	500.4
1035.8031	3081.2561	1369.3	487.15
1035.9117	3082.2678	1358.85	477.9
1036.0202	3083.2789	1346.55	465.2
1036.1286	3084.2893	1345.45	463
1036.2371	3085.2991	1336.95	454.95
1036.3454	3086.3083	1333.7	447.5
1036.4538	3087.3169	1325.95	444.4
1036.562	3088.3248	1323.1	443.95
1036.6703	3089.3321	1317.55	435.45
1036.7785	3090.3388	1305.25	425.15
1036.8866	3091.3449	1303.7	421.6
1036.9948	3092.3503	1308.85	427.3
1037.1028	3093.3551	1299.6	421.4
1037.2108	3094.3593	1295.3	415.65
1037.3188	3095.3629	1283.8	402.7
1037.4267	3096.3658	1283.5	401.45
1037.5346	3097.3681	1274.45	393.9
1037.6425	3098.3698	1271.2	387.05
1037.7503	3099.3708	1273.35	389.65
1037.858	3100.3713	1270.5	391.15
1037.9657	3101.3711	1262.6	379.65
1038.0734	3102.3702	1388.2	371.1
1038.181	3103.3688	1264.5	381.1
1038.2886	3104.3667	1255.85	376.6
1038.3961	3105.364	1254.1	373.05
1038.5036	3106.3607	1253.65	369.8
1038.611	3107.3568	1241.55	358.6
1038.7184	3108.3522	1241.3	363.05
1038.8257	3109.347	1242.25	358.3
1038.933	3110.3412	1243.45	358.7
1039.0403	3111.3348	1234.25	352.65
1039.1475	3112.3277	1225.95	344.85
1039.2547	3113.32	1233.45	352.75
1039.3618	3114.3117	1225.3	346
1039.4689	3115.3028	1228.25	346.75
1039.5759	3116.2932	1227.75	346.1
1039.6829	3117.2831	1223.95	338.9
1039.7898	3118.2723	1212.75	332.3
1039.8967	3119.2608	1217.55	335.25
1040.0035	3120.2488	1210.1	327.55
1040.1103	3121.2361	1206.2	324.5
1040.2171	3122.2229	1208.9	329.15
1040.3238	3123.209	1206.9	325.75
1040.4305	3124.1944	1204.05	323.65
1040.5371	3125.1793	1208.55	324.45
1040.6437	3126.1635	1200.4	321
1040.7502	3127.1471	1197.8	316.85
1040.8567	3128.1301	1192.65	311.75
1040.9631	3129.1125	1194.65	313.6
1041.0695	3130.0942	1192.1	313.15
1041.1759	3131.0753	1196.3	306.3
1041.2822	3132.0558	1190.05	306.2
1041.3884	3133.0357	1187	304.6
1041.4946	3134.015	1182.25	300.8
1041.6008	3134.9936	1183.1	301.1
1041.7069	3135.9716	1199.65	297.05
1041.813	3136.949	1182.65	302.4
1041.919	3137.9258	1187.85	286.5
1042.025	3138.902	1184.15	300
1042.1309	3139.8775	1172.3	293.1
1042.2368	3140.8524	1173.2	293
1042.3427	3141.8267	1179.1	297
1042.4485	3142.8004	1168.9	288.05
1042.5542	3143.7735	1173.35	286
1042.6599	3144.7459	1168.25	284.15
1042.7656	3145.7178	1168.8	286.25
1042.8712	3146.689	1158.35	277.45
1042.9768	3147.6596	1166.05	282.9
1043.0823	3148.6295	1160.85	281.1
1043.1878	3149.5989	1157.75	276.3
1043.2932	3150.5676	1153.4	274.1
1043.3986	3151.5357	1148.4	270.6
1043.5039	3152.5032	1148.65	269.25
1043.6092	3153.4701	1148.8	268.9
1043.7145	3154.4364	1147.8	263.05
1043.8197	3155.402	1148.3	268.35
1043.9248	3156.367	1143.95	262.1
1044.03	3157.3315	1174.15	267.1
1044.135	3158.2952	1146.5	264.9
1044.24	3159.2584	1138.45	257.75
1044.345	3160.221	1136.3	255.95
1044.4499	3161.1829	1140.55	259.65
1044.5548	3162.1442	1135.8	254.1
1044.6596	3163.105	1135.2	253.5
1044.7644	3164.065	1129.1	248.2
1044.8692	3165.0245	1130.6	246
1044.9739	3165.9834	1126.8	247.45
1045.0785	3166.9416	1125.65	244.15
1045.1831	3167.8993	1126.15	243.8
1045.2877	3168.8563	1127.4	249
1045.3922	3169.8127	1124.55	247.3
1045.4966	3170.7684	1122.2	241.3
1045.6011	3171.7236	1117.4	234
1045.7054	3172.6782	1119.85	241.45
1045.8098	3173.6321	1115.4	233.35
1045.914	3174.5854	1119.8	233.05
1046.0183	3175.5381	1116.85	235.55
1046.1224	3176.4902	1114.85	235.4
1046.2266	3177.4417	1108.5	226.15
1046.3307	3178.3926	1113.05	232.05
1046.4347	3179.3428	1108.25	228.85
1046.5387	3180.2924	1108.65	228.55
1046.6427	3181.2415	1109.5	228
1046.7466	3182.1899	1109.95	228.9
1046.8504	3183.1377	1103.15	223.05
1046.9542	3184.0848	1103.3	218.8
1047.058	3185.0314	1099.55	218.3
1047.1617	3185.9773	1095.1	214.9
1047.2654	3186.9227	1100.95	215.7
1047.369	3187.8674	1094.95	216.55
1047.4726	3188.8115	1099	214.5
1047.5761	3189.755	1097.7	220.05
1047.6796	3190.6979	1092.15	211.15
1047.783	3191.6402	1092.2	214.35
1047.8864	3192.5818	1092.05	211.9
1047.9898	3193.5229	1097.8	211.95
1048.0931	3194.4633	1093.9	213.15
1048.1963	3195.4031	1087.8	206.6
1048.2995	3196.3423	1084	204
1048.4027	3197.2809	1084.7	205.1
1048.5058	3198.2189	1092.15	207.95
1048.6089	3199.1563	1091.95	205.8
1048.7119	3200.0931	1082.2	204.1
1048.8148	3201.0292	1081.05	201.6
1048.9178	3201.9648	1078.4	197.35
1049.0206	3202.8997	1078.4	195.15
1049.1235	3203.834	1076.85	196.3
1049.2262	3204.7677	1075.25	196.7
1049.329	3205.7008	1075.95	192.45
1049.4317	3206.6333	1073.85	194
1049.5343	3207.5652	1075.2	191.15
1049.6369	3208.4964	1074.15	193.25
1049.7394	3209.4271	1070.85	191.15
1049.8419	3210.3571	1070.85	190.5
1049.9444	3211.2865	1075.2	195.05
1050.0468	3212.2154	1071.85	191.1
1050.1491	3213.1436	1069.25	186.3
1050.2514	3214.0712	1071.9	185.2
1050.3537	3214.9982	1062.65	183.75
1050.4559	3215.9246	1066.25	185.3
1050.5581	3216.8503	1066.6	186.15
1050.6602	3217.7755	1062.8	181
1050.7623	3218.7001	1061.2	182.7
1050.8643	3219.624	1062.65	181.1
1050.9663	3220.5473	1059	178.65
1051.0682	3221.4701	1059.4	177.15
1051.1701	3222.3922	1060.85	179.5
1051.2719	3223.3137	1057.35	177.3
1051.3737	3224.2346	1055.95	175.3
1051.4754	3225.1549	1051.75	173.15
1051.5771	3226.0746	1054.4	174.75
1051.6788	3226.9937	1052.85	172.25
1051.7804	3227.9121	1052.45	172.2
1051.8819	3228.83	1053.25	174.8
1051.9834	3229.7473	1048	167.85
1052.0849	3230.6639	1052.3	172.2
1052.1863	3231.5799	1050.95	170.6
1052.2876	3232.4954	1047.7	165.65
1052.3889	3233.4102	1049.2	169.3
1052.4902	3234.3244	1052.3	172.3
1052.5914	3235.238	1046.2	165.95
1052.6926	3236.151	1069.55	166.15
1052.7937	3237.0634	1045.3	166.2
1052.8948	3237.9752	1047.2	167.75
1052.9958	3238.8864	1046.75	167.15
1053.0968	3239.797	1038.35	157.8
1053.1977	3240.7069	1041.85	161.45
1053.2986	3241.6163	1043.8	161.4
1053.3994	3242.5251	1040.65	160.05
1053.5002	3243.4332	1036.25	158.4
1053.6009	3244.3408	1033.75	153
1053.7016	3245.2477	1037.15	157.45
1053.8022	3246.154	1034.9	154.35
1053.9028	3247.0598	1034.95	154.6
1054.0034	3247.9649	1036	156.5
1054.1039	3248.8694	1034.1	153.6
1054.2043	3249.7733	1026.95	147.75
1054.3047	3250.6766	1030.65	149.4
1054.4051	3251.5793	1033.6	152.1
1054.5054	3252.4814	1025.45	145.65
1054.6056	3253.3829	1023.2	142.95
1054.7058	3254.2838	1023.75	144.7
1054.806	3255.1841	1022.45	143.35
1054.9061	3256.0838	1019.9	142.95
1055.0061	3256.9829	1019.9	141.95
1055.1062	3257.8814	1025.5	143.55
1055.2061	3258.7792	1020.5	139.6
1055.306	3259.6765	1015.05	134.55
1055.4059	3260.5731	1012.85	131
1055.5057	3261.4692	1015.2	135.35
1055.6055	3262.3647	1010.7	131.85
1055.7052	3263.2595	1014.65	135.65
1055.8049	3264.1538	1008.75	129.1
1055.9045	3265.0474	1009.15	128.1
1056.0041	3265.9404	1005.2	127.4
1056.1036	3266.8329	1002.6	123.95
1056.2031	3267.7247	1008.95	118.3
1056.3025	3268.616	998.65	121.35
1056.4019	3269.5066	992.4	112.75
1056.5013	3270.3966	991.2	108.4
1056.6005	3271.286	985.95	106.8
