Software Version:	3.9.2.0
Unit SN:	10000200
Spectrometer SN:	6960
Date:	3/26/2024 2:31:45 PM
Data Line Index:	25
Spectral Points:	2048
Integration time (ms):	125
Averages:	20
Delay (ms):	30000
Sequence Number:	1
Processing:	dark subtract
Laser Power (mW):	295
Laser Current (mA):	819
Laser Diode Temp (C):	25
Laser Case Temp (C):	27.8
System Temp (C):	27.8
Spectrometer Temp (C):	25.7
CCD Temp (C):	0.005
Secondary Temp (C):	20.006
Heatsink Temp (C):	23.371
CCDPCB Temp (C):	37.507
SecondaryPCB Temp (C):	34.717

Wavelength	RamanShift	Raw Counts	Dark Subtracted
787.061	30.1047	657.55	247.55
787.2016	32.3739	661.35	254.9
787.3422	34.6426	682.75	273.55
787.4828	36.9109	701.7	290.35
787.6235	39.1787	728.35	313.5
787.7642	41.4461	756	336.95
787.9049	43.7131	776.05	351.35
788.0456	45.9796	805.7	379.75
788.1863	48.2456	836.1	404.65
788.3271	50.5112	865.45	429.35
788.4679	52.7764	892.75	455.15
788.6087	55.0411	915.45	472.8
788.7496	57.3054	953.75	507.8
788.8904	59.5692	992.1	543.2
789.0313	61.8326	1032.15	580.05
789.1722	64.0955	1073.1	617.05
789.3132	66.3579	1127.2	665.95
789.4541	68.6199	1189.9	725.05
789.5951	70.8815	1293.15	827
789.7361	73.1426	1509.9	1035.25
789.8771	75.4032	2048.8	1571
790.0181	77.6634	3390.9	2906.7
790.1592	79.9231	6774.25	6282.8
790.3003	82.1824	14557.75	14047.8
790.4414	84.4412	33839.1	33293.9
790.5825	86.6995	62073.6	61484.45
790.7237	88.9574	65535	64899.25
790.8648	91.2148	65535	64871.15
791.006	93.4717	65535	64857
791.1472	95.7282	65535	64844.2
791.2885	97.9842	65535	64840.6
791.4297	100.2398	65535	64834.95
791.571	102.4949	65535	64833.2
791.7123	104.7495	65535	64829.8
791.8536	107.0036	65535	64830.6
791.9949	109.2573	65535	64828.9
792.1363	111.5105	65535	64827.1
792.2777	113.7632	65535	64823.3
792.4191	116.0154	65535	64814.25
792.5605	118.2672	65535	64823.7
792.7019	120.5185	65535	64821.2
792.8434	122.7693	65535	64819.55
792.9849	125.0197	65535	64815.2
793.1264	127.2696	65535	64818.1
793.2679	129.519	65535	64804.55
793.4094	131.7679	65535	64807
793.551	134.0163	65535	64798.95
793.6926	136.2642	65535	64799.35
793.8342	138.5117	65535	64796.45
793.9758	140.7587	65535	64791.8
794.1175	143.0052	65535	64792.55
794.2591	145.2512	65535	64795.65
794.4008	147.4967	65535	64789.25
794.5425	149.7417	65535	64788.3
794.6842	151.9863	65535	64784.35
794.826	154.2304	65535	64779.7
794.9677	156.4739	65535	64775.95
795.1095	158.717	65535	64776.65
795.2513	160.9596	65535	64772.05
795.3931	163.2017	65535	64771.85
795.535	165.4433	65535	64768.9
795.6768	167.6844	65535	64767.3
795.8187	169.925	65535	64768.35
795.9606	172.1651	65535	64762.2
796.1025	174.4047	65535	64763.55
796.2445	176.6439	65535	64760.35
796.3864	178.8825	65535	64754.95
796.5284	181.1206	65535	64750.35
796.6704	183.3582	65535	64745.8
796.8124	185.5954	65535	64744.65
796.9544	187.832	65535	64742.75
797.0965	190.0681	65535	64744.35
797.2386	192.3037	65535	64735.6
797.3806	194.5388	65535	64728.5
797.5228	196.7734	65535	64729.8
797.6649	199.0075	65535	64726.05
797.807	201.2411	65535	64726.5
797.9492	203.4742	65535	64722.95
798.0914	205.7068	65535	64722.35
798.2336	207.9389	65535	64721.65
798.3758	210.1704	65535	64719.2
798.518	212.4015	65535	64716.75
798.6603	214.632	65535	64719.05
798.8025	216.862	65535	64725.15
798.9448	219.0915	65535	64737.2
799.0871	221.3205	65535	64734.6
799.2294	223.549	65535	64738.45
799.3718	225.777	65535	64742.65
799.5141	228.0044	65535	64733.8
799.6565	230.2314	65535	64741.15
799.7989	232.4578	65535	64738.05
799.9413	234.6837	65535	64733.2
800.0837	236.909	65535	64729.35
800.2262	239.1339	65535	64704.45
800.3687	241.3582	65535	64717.7
800.5111	243.582	65535	64685.2
800.6536	245.8053	65535	64700.3
800.7961	248.0281	65535	64702.35
800.9387	250.2503	65535	64696.3
801.0812	252.472	65535	64693.9
801.2238	254.6932	65535	64693.6
801.3664	256.9139	65535	64691.35
801.509	259.134	65535	64693.85
801.6516	261.3536	65535	64689.85
801.7942	263.5727	65535	64692.05
801.9369	265.7912	65535	64690.3
802.0795	268.0092	65535	64686.55
802.2222	270.2267	65535	64685.1
802.3649	272.4436	65535	64688
802.5076	274.6601	65535	64678.25
802.6504	276.8759	65535	64688.3
802.7931	279.0913	65535	64682.3
802.9359	281.3061	65535	64681.1
803.0787	283.5204	65535	64671.75
803.2215	285.7341	65535	64672.7
803.3643	287.9473	65535	64663.05
803.5071	290.16	65535	64667.9
803.6499	292.3721	65535	64671.95
803.7928	294.5837	65535	64679.1
803.9357	296.7947	65535	64679.3
804.0786	299.0052	65535	64678.3
804.2215	301.2152	65535	64670.2
804.3644	303.4246	65535	64678.75
804.5074	305.6334	65535	64676.85
804.6503	307.8418	65535	64671.85
804.7933	310.0495	65535	64670.2
804.9363	312.2568	65535	64672.8
805.0793	314.4635	65535	64670
805.2223	316.6696	65535	64667.15
805.3653	318.8752	65535	64660.55
805.5084	321.0802	65535	64672.25
805.6514	323.2847	65535	64662.6
805.7945	325.4887	65535	64666.9
805.9376	327.692	65535	64664.15
806.0807	329.8949	65535	64659.95
806.2238	332.0972	65535	64660.6
806.367	334.2989	65535	64658.8
806.5101	336.5001	65535	64658.7
806.6533	338.7007	65535	64659.5
806.7965	340.9008	65535	64657.3
806.9397	343.1003	65535	64654.05
807.0829	345.2992	65535	64654
807.2261	347.4976	65535	64651.6
807.3693	349.6955	65535	64648.05
807.5126	351.8927	65535	64646.6
807.6559	354.0895	65535	64642.45
807.7991	356.2856	65535	64642.15
807.9424	358.4812	65535	64650.2
808.0857	360.6763	65535	64649.05
808.2291	362.8707	65535	64644.75
808.3724	365.0646	65535	64645.4
808.5158	367.258	65535	64641.9
808.6591	369.4508	65535	64640.85
808.8025	371.643	65535	64637.55
808.9459	373.8346	65535	64638.7
809.0893	376.0257	65535	64636.15
809.2327	378.2162	65535	64635.7
809.3762	380.4062	65535	64636
809.5196	382.5956	65535	64629.4
809.6631	384.7844	65535	64637.45
809.8066	386.9726	65535	64634
809.9501	389.1603	65535	64634.4
810.0936	391.3474	65535	64591.45
810.2371	393.5339	65535	64634.6
810.3806	395.7199	65535	64644.6
810.5241	397.9052	65535	64642.55
810.6677	400.09	65535	64643.85
810.8113	402.2743	65535	64639.85
810.9548	404.4579	65535	64646.15
811.0984	406.641	65535	64645.1
811.2421	408.8235	65535	64641.95
811.3857	411.0054	65535	64642.1
811.5293	413.1868	65535	64640.05
811.673	415.3675	65535	64636.7
811.8166	417.5477	65535	64631
811.9603	419.7273	65535	64629.2
812.104	421.9064	65535	64626.4
812.2477	424.0848	65535	64630.95
812.3914	426.2627	65535	64634.2
812.5351	428.4399	65535	64626.2
812.6788	430.6166	65535	64624.6
812.8226	432.7928	65535	64625.85
812.9663	434.9683	65535	64628.25
813.1101	437.1432	65535	64628.65
813.2539	439.3176	65535	64634.55
813.3977	441.4914	65535	64632.3
813.5415	443.6645	65535	64631.15
813.6853	445.8371	65535	64624.55
813.8291	448.0091	65535	64628.5
813.973	450.1806	65535	64631.05
814.1168	452.3514	65535	64630.15
814.2607	454.5216	65535	64630.95
814.4046	456.6913	65535	64628.55
814.5485	458.8603	65535	64629.45
814.6924	461.0288	65535	64629.75
814.8363	463.1967	65535	64635.85
814.9802	465.3639	65535	64634.1
815.1241	467.5306	65535	64628.05
815.2681	469.6967	65535	64632.45
815.412	471.8622	65535	64632.6
815.556	474.0271	65535	64631.35
815.7	476.1914	65535	64624
815.844	478.3551	65535	64628.05
815.988	480.5182	65535	64626.9
816.132	482.6807	65535	64632.8
816.276	484.8426	65535	64638.55
816.4201	487.0039	65535	64632
816.5641	489.1647	65535	64627.1
816.7082	491.3248	65535	64621.65
816.8522	493.4843	65535	64631.65
816.9963	495.6432	65535	64626.4
817.1404	497.8015	65535	64620.95
817.2845	499.9592	65535	64617.8
817.4286	502.1163	65535	64615.8
817.5727	504.2728	65535	64621
817.7168	506.4287	65535	64631.05
817.861	508.5839	65535	64633.05
818.0051	510.7386	65535	64626.05
818.1493	512.8927	65535	64613.4
818.2935	515.0461	65535	64620.3
818.4377	517.199	65535	64620.85
818.5818	519.3512	65535	64617.35
818.726	521.5029	65535	64614.45
818.8703	523.6539	65535	64615.9
819.0145	525.8043	65535	64615.15
819.1587	527.9541	65535	64612.6
819.303	530.1033	65535	64616.3
819.4472	532.2519	65535	64615.4
819.5915	534.3999	65535	64615.8
819.7357	536.5472	65535	64621.8
819.88	538.694	65535	64622.65
820.0243	540.8401	65535	64615.7
820.1686	542.9856	65535	64607.05
820.3129	545.1305	65535	64606.55
820.4572	547.2748	65535	64600.9
820.6016	549.4185	65535	64599.5
820.7459	551.5615	65535	64602.5
820.8902	553.704	65535	64600.45
821.0346	555.8458	65535	64607.8
821.1789	557.987	65535	64608.65
821.3233	560.1276	65535	64609.45
821.4677	562.2675	65535	64606.05
821.6121	564.4069	65535	64602.3
821.7565	566.5456	65535	64607
821.9009	568.6837	65535	64610.85
822.0453	570.8212	65535	64608.15
822.1897	572.958	65535	64608.1
822.3342	575.0942	65535	64611.8
822.4786	577.2299	65535	64616.95
822.6231	579.3648	65535	64629.2
822.7675	581.4992	65535	64636.4
822.912	583.6329	65535	64637.65
823.0565	585.766	65535	64631.05
823.201	587.8985	65535	64626.5
823.3454	590.0304	65535	64592.95
823.4899	592.1616	65535	64611.1
823.6345	594.2922	65535	64605.2
823.779	596.4222	65535	64604.7
823.9235	598.5515	65535	64602.2
824.068	600.6802	65535	64604.85
824.2126	602.8083	65535	64608.95
824.3571	604.9358	65535	64603.25
824.5017	607.0626	65535	64603.65
824.6462	609.1888	65535	64600.7
824.7908	611.3144	65535	64600.75
824.9354	613.4393	65535	64598.2
825.08	615.5636	65535	64601
825.2246	617.6873	65535	64601
825.3692	619.8103	65535	64602.45
825.5138	621.9327	65535	64603.25
825.6584	624.0544	65535	64605
825.803	626.1756	65535	64605.25
825.9477	628.2961	65535	64604.65
826.0923	630.4159	65535	64603.55
826.237	632.5351	65535	64600.5
826.3816	634.6537	65535	64601.1
826.5263	636.7716	65535	64594.5
826.6709	638.8889	65535	64601.3
826.8156	641.0056	65535	64594.2
826.9603	643.1216	65535	64591.45
827.105	645.237	65535	64596.45
827.2497	647.3518	65535	64603.55
827.3944	649.4659	65535	64608.5
827.5391	651.5793	65535	64607.3
827.6838	653.6922	65535	64602.9
827.8285	655.8043	65535	64605.2
827.9733	657.9159	65535	64607.05
828.118	660.0268	65535	64602
828.2627	662.137	65535	64599.15
828.4075	664.2466	65535	64596.7
828.5522	666.3556	65535	64595.15
828.697	668.4639	65535	64604.8
828.8418	670.5716	65535	64605.55
828.9865	672.6786	65535	64599.95
829.1313	674.785	65535	64596.3
829.2761	676.8907	65535	64600.8
829.4209	678.9958	65535	64607.85
829.5657	681.1002	65535	64601.5
829.7105	683.204	65535	64589.9
829.8553	685.3072	65535	64596.5
830.0001	687.4097	65535	64595.9
830.1449	689.5115	65535	64594.25
830.2898	691.6127	65535	64598.35
830.4346	693.7132	65535	64601.8
830.5794	695.8131	65535	64573.1
830.7243	697.9123	65535	64591.65
830.8691	700.0109	65535	64597
831.014	702.1089	65535	64593.25
831.1588	704.2061	65535	64597.9
831.3037	706.3028	65535	64593.65
831.4486	708.3987	65535	64590.4
831.5935	710.4941	65535	64594.5
831.7383	712.5887	65535	64599.55
831.8832	714.6827	65535	64592.9
832.0281	716.7761	65535	64597.7
832.173	718.8688	65535	64595.45
832.3179	720.9608	65535	64588.85
832.4628	723.0522	65535	64591.05
832.6077	725.1429	65535	64593.7
832.7527	727.233	65535	64591.7
832.8976	729.3224	65535	64591.5
833.0425	731.4112	65535	64589.25
833.1874	733.4993	65535	64589.15
833.3324	735.5867	65535	64593.4
833.4773	737.6735	65535	64590.45
833.6222	739.7596	65535	64595
833.7672	741.845	65535	64595.75
833.9122	743.9298	65535	64592.55
834.0571	746.014	65535	64590.7
834.2021	748.0974	65535	64589.55
834.347	750.1802	65535	64586.4
834.492	752.2624	65535	64589.35
834.637	754.3439	65535	64587.25
834.782	756.4247	65535	64578.55
834.9269	758.5048	65535	64592.35
835.0719	760.5843	65535	64588.15
835.2169	762.6631	65535	64588.3
835.3619	764.7413	65535	64593.55
835.5069	766.8188	65535	64589.75
835.6519	768.8956	65535	64583.8
835.7969	770.9718	65535	64589.15
835.9419	773.0473	65535	64586.45
836.0869	775.1221	65535	64587.8
836.232	777.1962	65535	64589.15
836.377	779.2697	65535	64585.05
836.522	781.3426	65535	64567
836.667	783.4147	65535	64585.15
836.8121	785.4862	65535	64586.95
836.9571	787.557	65535	64586
837.1021	789.6271	65535	64586.5
837.2472	791.6966	65535	64585.8
837.3922	793.7654	65535	64586.3
837.5373	795.8335	65535	64586.2
837.6823	797.901	65535	64587.65
837.8274	799.9678	65535	64582.95
837.9724	802.0339	65535	64587.5
838.1175	804.0993	65535	64573.5
838.2626	806.1641	65535	64587.65
838.4076	808.2282	65535	64586
838.5527	810.2916	65535	64582.3
838.6978	812.3544	65535	64589.3
838.8428	814.4164	65535	64588
838.9879	816.4778	65535	64584.15
839.133	818.5385	65535	64583.15
839.2781	820.5986	65535	64583.45
839.4232	822.658	65535	64582.7
839.5682	824.7166	65535	64587.35
839.7133	826.7747	65535	64586.85
839.8584	828.832	65535	64585
840.0035	830.8886	65535	64582.3
840.1486	832.9446	65535	64584.15
840.2937	834.9999	65535	64584.5
840.4388	837.0545	65535	64580.65
840.5839	839.1085	65535	64584.75
840.729	841.1618	65535	64579.7
840.8741	843.2143	65534.1	64583.6
841.0192	845.2662	65532.25	64582.95
841.1643	847.3175	65535	64585.65
841.3095	849.368	65502.75	64556.1
841.4546	851.4179	65535	64584.7
841.5997	853.467	65514.45	64565.45
841.7448	855.5155	65528.2	64579.5
841.8899	857.5633	65498.2	64546.4
842.0351	859.6105	65471.7	64521.9
842.1802	861.6569	65505.7	64556.2
842.3253	863.7027	65375.55	64421.85
842.4704	865.7478	65442.75	64489.05
842.6156	867.7922	65419.7	64468.6
842.7607	869.8359	65494.15	64540.75
842.9058	871.8789	65340.6	64385.25
843.0509	873.9212	65426.25	64440.95
843.1961	875.9629	65469.25	64516.8
843.3412	878.0039	65424.95	64475.45
843.4863	880.0441	65382.15	64436.4
843.6315	882.0837	65379.75	64432.8
843.7766	884.1226	65341.5	64392.15
843.9218	886.1609	65310.95	64357.85
844.0669	888.1984	65190.5	64240.6
844.212	890.2352	65360.7	64409.8
844.3572	892.2714	65099.4	64139.75
844.5023	894.3069	65256.95	64302.55
844.6475	896.3416	65038.5	64084.85
844.7926	898.3757	65021	64071.65
844.9377	900.4091	64599.6	63643.9
845.0829	902.4418	65172.45	64209.75
845.228	904.4739	64868.5	63914.35
845.3732	906.5052	64882.35	63928.1
845.5183	908.5358	64661.85	63708.65
845.6635	910.5658	64504.05	63548.85
845.8086	912.595	64542.2	63587.4
845.9538	914.6236	63963.75	63009.55
846.0989	916.6515	64744.9	63792.45
846.2441	918.6786	63904.65	62947.8
846.3892	920.7051	64167.35	63211.2
846.5344	922.7309	64034.85	63080.25
846.6795	924.756	64205.8	63255.25
846.8246	926.7804	63930.9	62977.7
846.9698	928.8041	63185.05	62234.9
847.1149	930.8272	63779.95	62824.55
847.2601	932.8495	63762	62807.85
847.4052	934.8711	63132.05	62180.2
847.5504	936.892	62644	61689.7
847.6955	938.9123	62887.55	61930.55
847.8407	940.9318	62425.85	61474.65
847.9858	942.9506	62266.85	61314.6
848.131	944.9688	62352	61394
848.2761	946.9862	61260.75	60308.7
848.4213	949.003	61687	60733.35
848.5664	951.019	60708.2	59752.35
848.7115	953.0344	60909.75	59957.75
848.8567	955.0491	60808.55	59852
849.0018	957.063	61164.95	60212.65
849.147	959.0763	61196.4	60235.35
849.2921	961.0888	60515	59557.1
849.4373	963.1007	61045.05	60093.95
849.5824	965.1119	61008.6	60066.8
849.7275	967.1223	60412.25	59475.1
849.8727	969.1321	61054.35	60114
850.0178	971.1412	60200.95	59257.5
850.1629	973.1495	59875.5	58926.25
850.3081	975.1572	60279.25	59292.8
850.4532	977.1641	59940.1	58988.6
850.5983	979.1704	59705.45	58752.15
850.7435	981.1759	59803.6	58846.4
850.8886	983.1808	59298.05	58342.05
851.0337	985.1849	59376.5	58412.55
851.1788	987.1884	59601.55	58649.6
851.324	989.1911	60111	59159.6
851.4691	991.1932	58867.8	57916.1
851.6142	993.1945	59115.05	58166.1
851.7593	995.1951	59430.25	58475.5
851.9045	997.1951	58696.45	57738.5
852.0496	999.1943	58412.5	57459.5
852.1947	1001.1928	58226.15	57272.35
852.3398	1003.1906	58367.55	57415.9
852.4849	1005.1877	57585.7	56635.55
852.63	1007.1841	57245.7	56295.75
852.7751	1009.1798	57182.9	56234.35
852.9202	1011.1748	56937	55984.6
853.0653	1013.1691	56644.2	55692.15
853.2104	1015.1627	55461.35	54510.1
853.3555	1017.1556	55420.35	54473.65
853.5006	1019.1477	55568.7	54620.9
853.6457	1021.1392	54899.3	53956.9
853.7908	1023.1299	54282.1	53340.65
853.9359	1025.12	54577.5	53639.6
854.081	1027.1093	54118	53188.25
854.2261	1029.0979	54100.95	53177.25
854.3712	1031.0859	53978.05	53043.3
854.5163	1033.0731	53401.25	52461.75
854.6613	1035.0596	53376	52432.25
854.8064	1037.0454	53116.2	52171.15
854.9515	1039.0304	52705.65	51754.5
855.0965	1041.0148	52209.25	51264
855.2416	1042.9985	52101.2	51151.3
855.3867	1044.9814	52204.75	51256.6
855.5317	1046.9636	51705.15	50753.1
855.6768	1048.9452	51555.95	50612.1
855.8219	1050.926	51465.55	50518.45
855.9669	1052.9061	51299.85	50353.05
856.112	1054.8855	51202.15	50254.35
856.257	1056.8642	50871.95	49926.5
856.4021	1058.8421	50802.2	49849.55
856.5471	1060.8194	50702.85	49753.85
856.6921	1062.7959	50539.55	49594.7
856.8372	1064.7717	50436.15	49484.5
856.9822	1066.7469	50315.35	49366.4
857.1272	1068.7213	50212.7	49265.4
857.2723	1070.695	49982.5	49032.5
857.4173	1072.6679	49588.95	48640.3
857.5623	1074.6402	49530.4	48584.2
857.7073	1076.6117	49397.65	48446.2
857.8523	1078.5826	49318.2	48367.1
857.9973	1080.5527	49190.65	48240.2
858.1423	1082.5221	49140	48194.05
858.2873	1084.4908	49240.7	48295.2
858.4323	1086.4587	49290.2	48341.25
858.5773	1088.426	49336.95	48389.65
858.7223	1090.3925	49188.55	48233.75
858.8673	1092.3584	48990.2	48042
859.0123	1094.3235	48550.8	47604.15
859.1573	1096.2879	48283.05	47336.75
859.3022	1098.2515	48136.2	47190.6
859.4472	1100.2145	48068.15	47121.7
859.5922	1102.1767	47950.05	46998.55
859.7371	1104.1382	47984.65	47037.75
859.8821	1106.099	48016.95	47065.4
860.027	1108.0591	47992.45	47046.55
860.172	1110.0185	47939	46992.85
860.3169	1111.9771	47947.3	47002.8
860.4619	1113.9351	47484.75	46540.25
860.6068	1115.8923	46949.95	46001.05
860.7517	1117.8488	46447.15	45501.45
860.8967	1119.8045	45952.8	45005.65
861.0416	1121.7596	45780.85	44835.75
861.1865	1123.7139	45553.65	44609.1
861.3314	1125.6675	45423.95	44478.9
861.4763	1127.6204	45469.35	44523.45
861.6212	1129.5726	45296.45	44348.2
861.7661	1131.524	45216.05	44270.4
861.911	1133.4748	45275.35	44329.45
862.0559	1135.4248	45053.95	44105.55
862.2008	1137.3741	44991.55	44043.35
862.3457	1139.3226	44865.95	43916.3
862.4905	1141.2705	44780.55	43834.95
862.6354	1143.2176	44424.45	43474.15
862.7803	1145.164	44363.65	43417.6
862.9251	1147.1097	44298.55	43353.3
863.07	1149.0546	44201.7	43253.9
863.2148	1150.9989	44053.4	43108.15
863.3597	1152.9424	43890.1	42945.5
863.5045	1154.8852	43542.95	42594.15
863.6493	1156.8272	43267.05	42323.45
863.7942	1158.7686	43173.2	42216
863.939	1160.7092	42921.95	41972.85
864.0838	1162.6491	42726.7	41779.4
864.2286	1164.5883	42764	41817.3
864.3734	1166.5267	42637.05	41691.85
864.5182	1168.4644	42747.65	41803.6
864.663	1170.4014	42779.6	41828.45
864.8078	1172.3377	42955.95	42012.75
864.9526	1174.2732	43022.95	42077.7
865.0974	1176.2081	43158.2	42215.65
865.2421	1178.1421	43217.35	42270.35
865.3869	1180.0755	43274.5	42329.3
865.5317	1182.0082	43031.4	42089.15
865.6764	1183.9401	42860.6	41918.65
865.8212	1185.8713	42529.5	41589.05
865.9659	1187.8017	42197.3	41264.8
866.1106	1189.7315	41876.75	40951.25
866.2554	1191.6605	41391.15	40463.8
866.4001	1193.5888	41025.1	40093.1
866.5448	1195.5163	40839.25	39902.4
866.6895	1197.4432	40626.65	39685.4
866.8342	1199.3693	40412.3	39471.3
866.9789	1201.2947	40213.75	39265.2
867.1236	1203.2193	39988	39047.65
867.2683	1205.1432	39968	39026.65
867.413	1207.0664	39886.7	38944.15
867.5576	1208.9889	39786.8	38841.3
867.7023	1210.9106	39733.95	38792.7
867.847	1212.8316	39657.85	38716.35
867.9916	1214.7519	39631.35	38681
868.1363	1216.6715	39489.75	38549.5
868.2809	1218.5903	39374.65	38433.35
868.4255	1220.5084	39201.2	38254.6
868.5701	1222.4257	39134.65	38193.55
868.7148	1224.3424	38836.85	37896.75
868.8594	1226.2583	38765.9	37823
869.004	1228.1735	38783.15	37844.7
869.1486	1230.0879	38730.05	37789
869.2932	1232.0016	38769.45	37827.55
869.4377	1233.9146	38695.05	37750.85
869.5823	1235.8269	38451.75	37509.7
869.7269	1237.7384	38262.1	37319.65
869.8715	1239.6492	37863.95	36927.45
870.016	1241.5592	37684.6	36743.9
870.1606	1243.4686	37523.75	36583.5
870.3051	1245.3772	37320.15	36378.15
870.4496	1247.285	37121.2	36179.65
870.5941	1249.1922	36933.1	35990.55
870.7387	1251.0986	36853	35910.2
870.8832	1253.0042	36710.35	35773.9
871.0277	1254.9092	36710.65	35769.5
871.1722	1256.8134	36679.15	35741.9
871.3167	1258.7169	36766.65	35826.8
871.4611	1260.6196	36839.5	35900.65
871.6056	1262.5216	36894.5	35955.3
871.7501	1264.4229	36958.45	36019.55
871.8945	1266.3234	37036.9	36095.95
872.039	1268.2232	36990.8	36053.65
872.1834	1270.1223	36860.4	35919.9
872.3278	1272.0207	36788.35	35848.35
872.4723	1273.9183	36591.85	35646.75
872.6167	1275.8151	36359.4	35422.5
872.7611	1277.7113	36281.35	35341.85
872.9055	1279.6067	35957.6	35020.25
873.0499	1281.5014	35694.55	34754.6
873.1943	1283.3953	35521.3	34579.65
873.3386	1285.2885	35329.15	34392.25
873.483	1287.181	35142.2	34201.6
873.6274	1289.0727	35149.7	34216.2
873.7717	1290.9637	35054.9	34117.8
873.9161	1292.854	35125.35	34188.75
874.0604	1294.7435	35117.55	34179.15
874.2047	1296.6323	35268.7	34334.15
874.349	1298.5204	35506.7	34566.75
874.4933	1300.4077	35678.6	34738.95
874.6376	1302.2943	35796.55	34857.75
874.7819	1304.1802	35811.95	34874.8
874.9262	1306.0653	35694.1	34758.1
875.0705	1307.9497	35463.8	34523.75
875.2147	1309.8333	35323.55	34386.55
875.359	1311.7162	35270.25	34334.1
875.5032	1313.5984	35372.1	34433.4
875.6475	1315.4798	35317.6	34366.55
875.7917	1317.3605	35438.3	34484
875.9359	1319.2405	35528.75	34587.9
876.0801	1321.1197	35510.45	34569.7
876.2243	1322.9982	35329.55	34386.65
876.3685	1324.876	35340.5	34405.6
876.5127	1326.753	35197.5	34261.1
876.6569	1328.6293	35216.45	34277.2
876.801	1330.5048	35203.4	34261.1
876.9452	1332.3796	35082.1	34144
877.0893	1334.2537	34982.45	34021.8
877.2335	1336.127	34851.7	33914.65
877.3776	1337.9996	34760.05	33822.45
877.5217	1339.8714	34572.85	33634.8
877.6658	1341.7426	34410.2	33428.9
877.8099	1343.6129	34357.4	33419.85
877.954	1345.4826	34158.05	33218.85
878.0981	1347.3515	34129.2	33186.65
878.2422	1349.2196	33968.6	33029.7
878.3862	1351.087	33906	32966.6
878.5303	1352.9537	33901.7	32961
878.6743	1354.8197	33933.55	32997.55
878.8184	1356.6849	34075.75	33135.75
878.9624	1358.5493	34042.3	33105.85
879.1064	1360.4131	33992.05	33054.45
879.2504	1362.276	33838.3	32902.25
879.3944	1364.1383	33563.6	32628.6
879.5384	1365.9998	33202.95	32258.5
879.6823	1367.8606	32823.5	31885.1
879.8263	1369.7206	32492.75	31554.5
879.9702	1371.5799	32253.75	31316.3
880.1142	1373.4384	32045.35	31106
880.2581	1375.2962	31903.75	30967.6
880.402	1377.1533	31549.2	30615.5
880.5459	1379.0096	31154.65	30223.25
880.6898	1380.8652	30793.55	29861.25
880.8337	1382.7201	30513.1	29579.25
880.9776	1384.5742	30167.6	29231.65
881.1215	1386.4275	29888.35	28949.55
881.2653	1388.2802	29695.85	28761.4
881.4092	1390.132	29480.95	28545.35
881.553	1391.9832	29389.95	28453
881.6968	1393.8336	29197.15	28261.45
881.8406	1395.6832	29079.2	28142.5
881.9844	1397.5322	28925.75	27992.45
882.1282	1399.3803	28796.75	27859
882.272	1401.2278	28649.3	27713.75
882.4158	1403.0745	28619	27686.75
882.5595	1404.9204	28463.7	27530.2
882.7033	1406.7656	28439.85	27503.7
882.847	1408.6101	28346.55	27409.6
882.9908	1410.4538	28192.15	27257.8
883.1345	1412.2968	28152.15	27215.3
883.2782	1414.139	28101.5	27168
883.4219	1415.9805	28087.75	27154.9
883.5656	1417.8213	28111.45	27156.95
883.7092	1419.6613	28117.95	27186.4
883.8529	1421.5006	28265.3	27333.75
883.9965	1423.3391	28480.45	27547.75
884.1402	1425.1769	28704	27767.6
884.2838	1427.0139	29141.9	28208
884.4274	1428.8502	29717.6	28782.05
884.571	1430.6858	30225	29290.65
884.7146	1432.5206	30557.1	29621.85
884.8582	1434.3547	30799.6	29863.95
885.0018	1436.188	30814.15	29880.7
885.1453	1438.0206	30689.5	29753.8
885.2889	1439.8524	30416.1	29484.9
885.4324	1441.6835	30291.85	29357
885.5759	1443.5139	30126.9	29192.2
885.7194	1445.3435	29995.25	29063
885.8629	1447.1724	29887.8	28954.7
886.0064	1449.0005	29748.2	28815.1
886.1499	1450.8279	29588.05	28654.5
886.2933	1452.6545	29547.65	28614.6
886.4368	1454.4804	29499	28570.9
886.5802	1456.3056	29468.65	28531.4
886.7237	1458.13	29243.3	28314.1
886.8671	1459.9536	29015.15	28082.45
887.0105	1461.7766	28607.4	27677.35
887.1539	1463.5987	28155.95	27221.45
887.2972	1465.4202	27725.4	26793.8
887.4406	1467.2409	27234.25	26300.95
887.584	1469.0608	26944.5	26014.7
887.7273	1470.88	26661.8	25733.05
887.8706	1472.6984	26386.45	25457
888.0139	1474.5161	26081.75	25149.05
888.1572	1476.3331	25876.6	24946.75
888.3005	1478.1493	25716.2	24786.85
888.4438	1479.9648	25610	24678.2
888.5871	1481.7795	25438.75	24506.3
888.7303	1483.5935	25317.5	24386.35
888.8736	1485.4067	25191.4	24259.65
889.0168	1487.2192	25157.65	24224.1
889.16	1489.031	25032.9	24100.2
889.3032	1490.842	24942.35	24011.7
889.4464	1492.6522	24883.8	23950.9
889.5896	1494.4618	24816.15	23884.95
889.7327	1496.2705	24741.5	23812.65
889.8759	1498.0785	24654.75	23724.15
890.019	1499.8858	24566	23632.95
890.1622	1501.6924	24500.1	23571.8
890.3053	1503.4981	24457.4	23527.25
890.4484	1505.3032	24413.55	23484.8
890.5914	1507.1075	24321.3	23392.35
890.7345	1508.911	24243.3	23313.4
890.8776	1510.7138	24133.85	23204.2
891.0206	1512.5159	24019.55	23089.1
891.1637	1514.3172	23967.3	23035.15
891.3067	1516.1178	23815.6	22889.05
891.4497	1517.9176	23763.6	22829.35
891.5927	1519.7166	23676.35	22746.35
891.7357	1521.515	23579.1	22644.7
891.8786	1523.3126	23514.4	22586.55
892.0216	1525.1094	23406.9	22476.9
892.1645	1526.9055	23337.5	22408.8
892.3074	1528.7008	23215.65	22286.4
892.4503	1530.4954	23120.7	22186.3
892.5932	1532.2893	23056.8	22132.05
892.7361	1534.0824	22965.05	22035.1
892.879	1535.8747	22942.75	22019.65
893.0218	1537.6663	22822	21899.15
893.1647	1539.4572	22746	21821
893.3075	1541.2473	22693.5	21770
893.4503	1543.0367	22587.95	21665.85
893.5931	1544.8253	22507.9	21581
893.7359	1546.6132	22493.8	21563.85
893.8787	1548.4003	22370.7	21440.8
894.0214	1550.1867	22339.45	21406.8
894.1642	1551.9723	22304.85	21375.5
894.3069	1553.7572	22269.45	21346.25
894.4496	1555.5414	22208.9	21288.7
894.5923	1557.3247	22186.35	21264.6
894.735	1559.1074	22164.2	21244.6
894.8777	1560.8893	22116.05	21199.9
895.0204	1562.6705	22120.9	21202.05
895.163	1564.4509	22142.15	21225.15
895.3056	1566.2305	22140.3	21226.5
895.4482	1568.0094	22220.6	21303.4
895.5908	1569.7876	22255.6	21338.4
895.7334	1571.565	22313.05	21395.9
895.876	1573.3417	22330.55	21412.7
896.0186	1575.1176	22256.05	21338.8
896.1611	1576.8928	22215.85	21299
896.3036	1578.6672	22059.8	21149.1
896.4461	1580.4409	21854.75	20945
896.5886	1582.2138	21697.05	20783.45
896.7311	1583.986	21496.2	20580.55
896.8736	1585.7575	21387.5	20473
897.0161	1587.5282	21219.95	20310.35
897.1585	1589.2981	21156.25	20246
897.3009	1591.0673	20986.6	20077.35
897.4433	1592.8358	20945.05	20035.85
897.5857	1594.6035	20906.8	19991.45
897.7281	1596.3704	20774.1	19860.75
897.8705	1598.1366	20753.2	19838.35
898.0128	1599.9021	20720.45	19810.45
898.1551	1601.6668	20644.25	19730.25
898.2975	1603.4308	20661.9	19747.7
898.4398	1605.194	20683.25	19767.6
898.5821	1606.9564	20702.65	19795.05
898.7243	1608.7182	20788.1	19881.65
898.8666	1610.4791	20818.3	19917.05
899.0088	1612.2394	20902.55	20001.2
899.1511	1613.9988	21064.9	20163.65
899.2933	1615.7576	21244.6	20338.85
899.4355	1617.5156	21434.45	20517.3
899.5776	1619.2728	21663.2	20749.15
899.7198	1621.0293	21788.1	20874.85
899.862	1622.785	21811.1	20900.2
900.0041	1624.54	21702.2	20794.05
900.1462	1626.2942	21474.4	20567.45
900.2883	1628.0477	21170.9	20260.7
900.4304	1629.8005	20856.35	19946.55
900.5725	1631.5525	20598	19691.95
900.7145	1633.3037	20331.65	19427.85
900.8566	1635.0542	20099.45	19193
900.9986	1636.804	19934.95	19030.45
901.1406	1638.553	19834.8	18883
901.2826	1640.3013	19658.45	18750.5
901.4245	1642.0488	19517.9	18611.05
901.5665	1643.7955	19499.7	18595.95
901.7085	1645.5416	19473.5	18568.85
901.8504	1647.2868	19517.35	18611.95
901.9923	1649.0313	19488.9	18581.25
902.1342	1650.7751	19618.9	18709.15
902.2761	1652.5181	19727.8	18821.25
902.4179	1654.2604	19899.6	18996.25
902.5598	1656.0019	20161.75	19259.5
902.7016	1657.7427	20461.6	19554.6
902.8434	1659.4828	20787.6	19879
902.9852	1661.222	20995.3	20086.2
903.127	1662.9606	21043.3	20135.85
903.2687	1664.6984	20829.7	19921.55
903.4105	1666.4354	20512.85	19601.45
903.5522	1668.1717	20051.05	19140.3
903.6939	1669.9072	19493.9	18580.5
903.8356	1671.642	19096.2	18185.2
903.9773	1673.3761	18790.65	17880.7
904.119	1675.1094	18515.6	17609.5
904.2606	1676.8419	18275.1	17366.95
904.4022	1678.5737	18042.75	17135.6
904.5439	1680.3048	17944.7	17033.95
904.6855	1682.0351	17788.2	16879.75
904.827	1683.7646	17652.2	16742.35
904.9686	1685.4934	17613.7	16708.75
905.1101	1687.2215	17468.65	16561.95
905.2517	1688.9488	17373.65	16464.9
905.3932	1690.6754	17281.55	16375.4
905.5347	1692.4012	17265.15	16358.2
905.6761	1694.1263	17187.7	16280.15
905.8176	1695.8506	17109.8	16204.45
905.9591	1697.5742	17065.45	16162.5
906.1005	1699.297	16970.8	16070.8
906.2419	1701.0191	16871.65	15971.15
906.3833	1702.7404	16803.3	15900.75
906.5246	1704.461	16725.7	15821.7
906.666	1706.1808	16627.6	15722.2
906.8073	1707.8999	16590.6	15688.3
906.9487	1709.6182	16536.1	15635.55
907.09	1711.3358	16486.3	15587.7
907.2313	1713.0527	16416.4	15518.05
907.3725	1714.7688	16338.4	15434.9
907.5138	1716.4841	16306.7	15405.55
907.655	1718.1987	16262.75	15355.8
907.7962	1719.9126	16200.55	15299.95
907.9374	1721.6257	16082.55	15181.85
908.0786	1723.338	16098.1	15200.1
908.2198	1725.0496	16003.05	15102.6
908.3609	1726.7605	15934.5	15032.2
908.502	1728.4706	15863.45	14963.4
908.6431	1730.18	15785.05	14885.6
908.7842	1731.8886	15772.65	14874.6
908.9253	1733.5964	15737.5	14818.8
909.0664	1735.3036	15692.4	14792.6
909.2074	1737.0099	15649.55	14753.05
909.3484	1738.7156	15610.65	14713.55
909.4894	1740.4204	15513.25	14612.2
909.6304	1742.1246	15500.6	14600.05
909.7714	1743.8279	15462.7	14563.65
909.9123	1745.5306	15401.45	14504.05
910.0532	1747.2325	15338.2	14442.45
910.1941	1748.9336	15320.6	14422.2
910.335	1750.634	15269.15	14367.25
910.4759	1752.3336	15245.75	14348.45
910.6168	1754.0325	15179	14285.25
910.7576	1755.7307	15170.25	14275.45
910.8984	1757.4281	15144	14244.5
911.0392	1759.1247	15107.5	14199.35
911.18	1760.8206	15041.75	14133.95
911.3208	1762.5158	15034.65	14129.95
911.4615	1764.2102	14954.9	14056.7
911.6022	1765.9039	14900.05	14001.8
911.7429	1767.5968	14869.9	13973.55
911.8836	1769.289	14820.6	13924
912.0243	1770.9804	14787.55	13890.55
912.1649	1772.6711	14770.2	13868.55
912.3056	1774.361	14722.7	13822.25
912.4462	1776.0502	14699.9	13800
912.5868	1777.7386	14652.85	13749.45
912.7274	1779.4263	14576	13677.2
912.8679	1781.1132	14589.95	13695.35
913.0084	1782.7994	14531.5	13636.1
913.149	1784.4849	14487.75	13595.7
913.2895	1786.1696	14459.95	13545.3
913.4299	1787.8535	14397.5	13503.75
913.5704	1789.5367	14358.55	13463.65
913.7108	1791.2192	14332.1	13437.95
913.8513	1792.9009	14336.45	13412.4
913.9917	1794.5818	14260.5	13361.65
914.132	1796.2621	14191.85	13294.35
914.2724	1797.9415	14148.85	13253.85
914.4128	1799.6202	14135.75	13237.95
914.5531	1801.2982	14124.35	13226.3
914.6934	1802.9755	14065.35	13167.75
914.8337	1804.6519	14044.8	13146.1
914.9739	1806.3277	13979.75	13084.9
915.1142	1808.0027	13916.25	13024
915.2544	1809.6769	13926.5	13035.6
915.3946	1811.3504	13887.85	12993.5
915.5348	1813.0231	13858.4	12963.05
915.675	1814.6951	13808.1	12913.05
915.8151	1816.3664	13820.2	12920.65
915.9553	1818.0369	13769.05	12871.95
916.0954	1819.7067	13712.95	12817.25
916.2355	1821.3757	13670.95	12771.2
916.3755	1823.044	13679.45	12781.25
916.5156	1824.7115	13656.15	12755.95
916.6556	1826.3783	13564.95	12669.4
916.7956	1828.0443	13505.2	12608.7
916.9356	1829.7096	13476.25	12578
917.0756	1831.3741	13460.6	12560.1
917.2155	1833.0379	13433.1	12538.95
917.3555	1834.701	13406.65	12512.5
917.4954	1836.3633	13382.15	12488.85
917.6353	1838.0248	13324.95	12428.8
917.7751	1839.6856	13313.15	12418.85
917.915	1841.3457	13312.35	12417.7
918.0548	1843.005	13237.1	12341.6
918.1946	1844.6636	13257.45	12363.55
918.3344	1846.3214	13197.9	12300.65
918.4742	1847.9785	13163.45	12267.95
918.6139	1849.6349	13126.1	12227.3
918.7537	1851.2904	13102.75	12196
918.8934	1852.9453	13059.2	12161.5
919.0331	1854.5994	13036.3	12134.75
919.1727	1856.2528	13037.95	12136.7
919.3124	1857.9054	12995.1	12099.25
919.452	1859.5572	12979.85	12087.7
919.5916	1861.2083	12973	12076.95
919.7312	1862.8587	12954.5	12058.9
919.8708	1864.5084	12900.65	12001.95
920.0103	1866.1572	12870	11972
920.1498	1867.8054	12820.55	11923.5
920.2893	1869.4528	12788.7	11889.15
920.4288	1871.0994	12736.65	11841.45
920.5683	1872.7453	12706.05	11808.4
920.7077	1874.3905	12678.8	11764.25
920.8471	1876.0349	12629.45	11731.65
920.9865	1877.6786	12635.2	11737.8
921.1259	1879.3215	12634.5	11736.35
921.2653	1880.9637	12576.15	11678.9
921.4046	1882.6051	12578.05	11680.9
921.5439	1884.2458	12510.85	11612.75
921.6832	1885.8858	12479.7	11583.05
921.8225	1887.525	12416.7	11521.35
921.9617	1889.1634	12382.3	11484.65
922.101	1890.8011	12351.35	11454.65
922.2402	1892.4381	12304.75	11406.75
922.3794	1894.0743	12304.05	11406.6
922.5185	1895.7098	12276.8	11382.55
922.6577	1897.3446	12259.85	11363.8
922.7968	1898.9786	12235.15	11336.5
922.9359	1900.6118	12191.5	11296.45
923.075	1902.2443	12165.2	11270.6
923.214	1903.8761	12111.2	11217.2
923.3531	1905.5071	12037.2	11141.85
923.4921	1907.1374	12001.9	11107.6
923.6311	1908.7669	11982.1	11087.8
923.77	1910.3957	11937.65	11043.15
923.909	1912.0237	11874.6	10978.5
924.0479	1913.651	11866	10970.7
924.1868	1915.2776	11828.7	10936.2
924.3257	1916.9034	11774.25	10881.5
924.4646	1918.5285	11713.35	10821.25
924.6034	1920.1528	11683.7	10787.45
924.7422	1921.7764	11678.45	10784.55
924.881	1923.3992	11636.6	10743
925.0198	1925.0213	11552.05	10657.95
925.1586	1926.6427	11522.7	10629.15
925.2973	1928.2633	11541	10579.1
925.436	1929.8832	11456.95	10559.9
925.5747	1931.5023	11408.7	10513.1
925.7134	1933.1207	11407.05	10511.45
925.852	1934.7383	11369.25	10471.5
925.9906	1936.3552	11332.85	10439.7
926.1292	1937.9714	11297.65	10402.8
926.2678	1939.5868	11234.75	10337.9
926.4064	1941.2015	11162.45	10266
926.5449	1942.8154	11157.8	10263.4
926.6834	1944.4286	11111.2	10214.6
926.8219	1946.041	11057.2	10138.7
926.9604	1947.6528	10998.85	10099.55
927.0988	1949.2637	10978.45	10083.55
927.2372	1950.8739	10948.75	10055.15
927.3756	1952.4834	10920.45	10025.75
927.514	1954.0921	10885.75	9992
927.6523	1955.7001	10849.8	9951.5
927.7907	1957.3074	10817.05	9926.7
927.929	1958.9139	10775.9	9885.25
928.0673	1960.5197	10756.15	9862.9
928.2055	1962.1247	10701.9	9807.55
928.3438	1963.729	10632.5	9742.35
928.482	1965.3325	10598.5	9685
928.6202	1966.9353	10576.5	9684.8
928.7584	1968.5374	10527.15	9635.9
928.8965	1970.1387	10493.8	9603.05
929.0346	1971.7393	10482.75	9589.9
929.1727	1973.3392	10454.8	9562.9
929.3108	1974.9383	10393	9502.45
929.4489	1976.5366	10368.15	9478.8
929.5869	1978.1342	10344.65	9454.6
929.7249	1979.7311	10334.4	9443.25
929.8629	1981.3273	10283.2	9392.9
930.0009	1982.9227	10234.7	9342.75
930.1388	1984.5173	10216.35	9326.8
930.2767	1986.1112	10151.25	9262.15
930.4146	1987.7044	10158.5	9272.8
930.5525	1989.2968	10124.3	9233.65
930.6904	1990.8885	10106.7	9217.85
930.8282	1992.4795	10066.3	9177.85
930.966	1994.0697	9999.15	9111.4
931.1038	1995.6592	9988.55	9101.55
931.2415	1997.2479	9967.5	9077.3
931.3793	1998.8359	9961.4	9072.6
931.517	2000.4232	9904.75	9018.1
931.6547	2002.0097	9872.4	8989.25
931.7923	2003.5955	9826.25	8939.95
931.93	2005.1805	9824.15	8935.45
932.0676	2006.7648	9778.25	8891.55
932.2052	2008.3484	9765.9	8878.4
932.3427	2009.9312	9781.8	8896.2
932.4803	2011.5133	9717.2	8834.2
932.6178	2013.0946	9672.25	8787.75
932.7553	2014.6752	9662.55	8775.85
932.8928	2016.2551	9644.45	8754.45
933.0302	2017.8342	9606.6	8717.95
933.1676	2019.4126	9575.55	8692
933.305	2020.9902	9513.8	8630.75
933.4424	2022.5672	9486.75	8599.9
933.5798	2024.1433	9480.3	8589.15
933.7171	2025.7188	9452.1	8567.35
933.8544	2027.2935	9421.05	8535.6
933.9917	2028.8674	9388.2	8504.8
934.129	2030.4406	9350.1	8466.15
934.2662	2032.0131	9333.4	8449.75
934.4034	2033.5849	9283.65	8393.25
934.5406	2035.1559	9272.5	8388.05
934.6778	2036.7261	9264.1	8377.95
934.8149	2038.2957	9240.55	8353.6
934.952	2039.8645	9226	8337.75
935.0891	2041.4325	9222.55	8331.75
935.2262	2042.9998	9165.75	8280.05
935.3632	2044.5664	9153.5	8266.6
935.5002	2046.1323	9127.55	8242.75
935.6372	2047.6974	9084.1	8199.65
935.7742	2049.2617	9064.95	8182.85
935.9111	2050.8254	9056	8164.95
936.048	2052.3883	9017.8	8130.35
936.1849	2053.9504	8992.1	8103.45
936.3218	2055.5118	8977.2	8089
936.4586	2057.0725	8921.65	8032.55
936.5955	2058.6325	8902.4	8015.2
936.7323	2060.1917	8863.4	7978.1
936.869	2061.7502	8865.65	7978.9
937.0058	2063.3079	8823.7	7939.3
937.1425	2064.8649	8790	7900.65
937.2792	2066.4212	8765.15	7877.15
937.4159	2067.9767	8773.5	7886.35
937.5525	2069.5315	8731.3	7845.65
937.6891	2071.0856	8677.45	7792.45
937.8257	2072.6389	8672.25	7785.5
937.9623	2074.1915	8617.75	7734.05
938.0989	2075.7433	8573.65	7686.75
938.2354	2077.2945	8530.7	7646.85
938.3719	2078.8448	8526.95	7639.3
938.5084	2080.3945	8488.6	7601.9
938.6448	2081.9434	8512.25	7623.8
938.7812	2083.4916	8495.5	7606.95
938.9176	2085.039	8437.75	7545.85
939.054	2086.5857	8435	7541.8
939.1903	2088.1317	8417	7527
939.3267	2089.677	8381	7487.6
939.463	2091.2215	8354.85	7462.5
939.5992	2092.7652	8338.6	7442.85
939.7355	2094.3083	8324.15	7432.55
939.8717	2095.8506	8321.6	7433
940.0079	2097.3921	8288.45	7399.9
940.1441	2098.933	8251.05	7360.3
940.2802	2100.4731	8251.35	7362.5
940.4163	2102.0124	8232.35	7335.45
940.5524	2103.5511	8216.75	7326.55
940.6885	2105.089	8202.45	7312.35
940.8245	2106.6261	8182.45	7294.1
940.9606	2108.1626	8159.7	7269.6
941.0965	2109.6983	8138.5	7221.2
941.2325	2111.2332	8105.35	7213.1
941.3684	2112.7675	8091.05	7199.15
941.5044	2114.301	8044.35	7152
941.6403	2115.8337	8039.35	7146.85
941.7761	2117.3657	8033.85	7145.1
941.912	2118.897	8020.85	7129.8
942.0478	2120.4276	7991.55	7094.65
942.1835	2121.9575	7952.45	7059.6
942.3193	2123.4866	7966.15	7061.8
942.455	2125.0149	7913.6	7021.2
942.5907	2126.5426	7877.7	6990.75
942.7264	2128.0695	7880.1	6991.7
942.8621	2129.5956	7837.85	6953.05
942.9977	2131.1211	7817.75	6926.25
943.1333	2132.6458	7798.45	6908.75
943.2689	2134.1698	7772.65	6880.4
943.4044	2135.693	7752.75	6859.3
943.54	2137.2155	7730.9	6837
943.6755	2138.7373	7731.8	6841.7
943.8109	2140.2584	7692.6	6806.4
943.9464	2141.7787	7679.95	6789.35
944.0818	2143.2983	7636.2	6752.85
944.2172	2144.8171	7598.5	6715.3
944.3526	2146.3353	7582.2	6693.75
944.4879	2147.8527	7551.9	6664.3
944.6232	2149.3693	7563.75	6672.75
944.7585	2150.8853	7537.35	6648.05
944.8938	2152.4005	7499.35	6607.75
945.029	2153.9149	7514.2	6623.65
945.1642	2155.4287	7551.75	6547
945.2994	2156.9417	7462.3	6570.8
945.4346	2158.454	7446.75	6557.95
945.5697	2159.9655	7429.8	6543.7
945.7048	2161.4764	7406.55	6518.55
945.8399	2162.9865	7369.3	6483.55
945.9749	2164.4958	7361.1	6473.4
946.1099	2166.0045	7337	6444.6
946.2449	2167.5124	7325.55	6439.4
946.3799	2169.0195	7295	6405.8
946.5148	2170.526	7291.6	6402.45
946.6498	2172.0317	7268.25	6379.25
946.7846	2173.5367	7242.2	6354.65
946.9195	2175.0409	7210.1	6318.95
947.0543	2176.5445	7217.5	6328.35
947.1891	2178.0473	7168.3	6276.95
947.3239	2179.5494	7164.4	6271.25
947.4587	2181.0507	7128.8	6237.15
947.5934	2182.5513	7105.4	6217.55
947.7281	2184.0512	7098.45	6207.35
947.8628	2185.5504	7076.95	6189.2
947.9974	2187.0488	7044.9	6155.8
948.132	2188.5465	7020.4	6134.05
948.2666	2190.0435	7008.05	6119.4
948.4012	2191.5397	6973.8	6084.05
948.5357	2193.0353	6958.05	6069
948.6702	2194.5301	6923.85	6031.75
948.8047	2196.0241	6901.55	6007.1
948.9392	2197.5175	6887.35	5993.8
949.0736	2199.0101	6860.1	5963.2
949.208	2200.502	6833.6	5944.7
949.3424	2201.9931	6806.65	5919.65
949.4767	2203.4835	6798.25	5911.05
949.611	2204.9733	6787.15	5894.4
949.7453	2206.4622	6756.05	5871.1
949.8796	2207.9505	6730.2	5842.2
950.0138	2209.438	6713.45	5828.9
950.148	2210.9248	6679.5	5789.05
950.2822	2212.4109	6689.25	5800.75
950.4164	2213.8962	6658.15	5763.1
950.5505	2215.3809	6639.95	5745.7
950.6846	2216.8648	6644.45	5748
950.8186	2218.3479	6598.3	5700.75
950.9527	2219.8304	6564.75	5670.4
951.0867	2221.3121	6562.6	5667.8
951.2207	2222.7931	6526.3	5635.35
951.3546	2224.2733	6508.15	5616.1
951.4886	2225.7529	6474.1	5581.95
951.6225	2227.2317	6462.65	5570.75
951.7563	2228.7098	6448.25	5560.6
951.8902	2230.1872	6426.45	5540.4
952.024	2231.6638	6425.95	5538.75
952.1578	2233.1397	6390	5498.95
952.2916	2234.6149	6380.1	5493.5
952.4253	2236.0894	6362.5	5472.35
952.559	2237.5632	6327.95	5436.15
952.6927	2239.0362	6308.55	5419.35
952.8263	2240.5085	6297.9	5408.75
952.9599	2241.9801	6285.4	5395.6
953.0935	2243.4509	6236.85	5347.6
953.2271	2244.921	6231.4	5338.5
953.3606	2246.3904	6215.15	5320.4
953.4941	2247.8591	6198.05	5307.3
953.6276	2249.3271	6172.65	5281.1
953.7611	2250.7943	6156.4	5263.7
953.8945	2252.2608	6132.25	5239.4
954.0279	2253.7266	6106	5214.7
954.1612	2255.1917	6101.5	5210.15
954.2946	2256.656	6068.35	5177.45
954.4279	2258.1197	6072.5	5184.05
954.5612	2259.5826	6038.35	5147.6
954.6944	2261.0447	6033.45	5143.05
954.8276	2262.5062	6016.25	5123.6
954.9608	2263.9669	6008.1	5115.5
955.094	2265.4269	6011.95	5122.15
955.2271	2266.8862	5974.65	5085.25
955.3602	2268.3448	5957.85	5066.95
955.4933	2269.8026	5944	5055.9
955.6264	2271.2598	5926	5037.2
955.7594	2272.7162	5912.1	5021.5
955.8924	2274.1719	5920.8	5028.45
956.0253	2275.6268	5897.6	5007.75
956.1583	2277.0811	5878.55	4985.1
956.2912	2278.5346	5865.9	4974.7
956.4241	2279.9874	5849.3	4959
956.5569	2281.4395	5838.25	4950.9
956.6897	2282.8908	5814.4	4921.05
956.8225	2284.3414	5797.2	4906.85
956.9553	2285.7914	5800.55	4912.05
957.088	2287.2406	5763.25	4869.95
957.2207	2288.689	5758	4866.85
957.3534	2290.1368	5753.25	4857.6
957.486	2291.5838	5730.25	4832.35
957.6186	2293.0302	5715.45	4818.1
957.7512	2294.4758	5690.1	4797.25
957.8838	2295.9206	5662.05	4768.05
958.0163	2297.3648	5645.05	4755.05
958.1488	2298.8082	5650.5	4759.95
958.2813	2300.251	5641.35	4751.15
958.4137	2301.693	5593.95	4696.85
958.5461	2303.1343	5590	4695.25
958.6785	2304.5748	5583.75	4693
958.8108	2306.0147	5550	4660.05
958.9432	2307.4538	5542.4	4652.9
959.0754	2308.8922	5514.3	4627.95
959.2077	2310.3299	5511.8	4624.1
959.3399	2311.7669	5486.45	4597.6
959.4721	2313.2031	5466.8	4575.9
959.6043	2314.6387	5453.6	4561.55
959.7365	2316.0735	5433.55	4541.6
959.8686	2317.5076	5430.05	4540.15
960.0006	2318.941	5413.6	4523.2
960.1327	2320.3737	5403.95	4511
960.2647	2321.8056	5377.55	4481
960.3967	2323.2369	5366.25	4473.35
960.5287	2324.6674	5359.2	4465.5
960.6606	2326.0972	5346.25	4454.75
960.7925	2327.5263	5314.2	4423.35
960.9244	2328.9547	5302.55	4411.7
961.0562	2330.3823	5320	4425.45
961.1881	2331.8092	5289.15	4392.7
961.3198	2333.2355	5268.05	4374.05
961.4516	2334.661	5255.05	4360.45
961.5833	2336.0858	5239.65	4344.35
961.715	2337.5098	5232.5	4339.55
961.8467	2338.9332	5208.1	4315.4
961.9783	2340.3558	5193.85	4300.2
962.1099	2341.7778	5196.3	4306.4
962.2415	2343.199	5177.05	4286.7
962.373	2344.6195	5154.5	4264.1
962.5045	2346.0393	5154.5	4265.1
962.636	2347.4583	5135.8	4245.35
962.7675	2348.8767	5135.45	4240.55
962.8989	2350.2943	5100.45	4204.65
963.0303	2351.7113	5097.25	4200.65
963.1617	2353.1275	5072.95	4179.75
963.293	2354.543	5063.4	4162.45
963.4243	2355.9578	5061.2	4167.35
963.5556	2357.3718	5019.2	4128.7
963.6868	2358.7852	5002.05	4108.35
963.818	2360.1978	4997.4	4107.4
963.9492	2361.6098	4988.5	4099.25
964.0803	2363.021	4980.2	4083.6
964.2114	2364.4315	4951.25	4059.85
964.3425	2365.8413	4936.25	4039.15
964.4736	2367.2504	4918.75	4030.35
964.6046	2368.6587	4904.85	4015.4
964.7356	2370.0664	4871.2	3983.05
964.8666	2371.4733	4877.8	3985.25
964.9975	2372.8795	4850.95	3959.7
965.1284	2374.285	4834.2	3942.5
965.2593	2375.6899	4808.8	3919.55
965.3901	2377.0939	4803.25	3912.4
965.5209	2378.4973	4778.05	3888.4
965.6517	2379.9	4774.4	3884.4
965.7825	2381.3019	4752.8	3862.85
965.9132	2382.7032	4734.5	3846.2
966.0439	2384.1037	4731.25	3845.7
966.1745	2385.5035	4713.65	3827.35
966.3051	2386.9027	4687.35	3800.7
966.4357	2388.3011	4683.6	3794.15
966.5663	2389.6987	4657.55	3770.2
966.6968	2391.0957	4649.8	3762.1
966.8273	2392.492	4626.9	3737.85
966.9578	2393.8876	4621.8	3733.05
967.0882	2395.2824	4591.65	3703.75
967.2186	2396.6765	4586.9	3697.45
967.349	2398.07	4564.4	3676.35
967.4793	2399.4627	4549.05	3659.8
967.6097	2400.8547	4561.25	3672.4
967.7399	2402.246	4549.45	3653.25
967.8702	2403.6366	4506.45	3615.45
968.0004	2405.0265	4508.8	3620.15
968.1306	2406.4156	4481.05	3587.7
968.2607	2407.8041	4466.2	3575.6
968.3909	2409.1918	4470.7	3578.25
968.521	2410.5789	4437.95	3547.8
968.651	2411.9652	4436.05	3542.1
968.781	2413.3508	4426.8	3535.6
968.911	2414.7358	4403.7	3511.55
969.041	2416.12	4390.7	3500.6
969.1709	2417.5035	4384.75	3496.15
969.3008	2418.8863	4383.85	3494.9
969.4307	2420.2684	4336.75	3447.3
969.5606	2421.6497	4338.95	3450
969.6904	2423.0304	4306	3416.35
969.8201	2424.4104	4306.45	3415.25
969.9499	2425.7896	4284.3	3395.6
970.0796	2427.1682	4282.55	3393.4
970.2093	2428.546	4286.3	3396.65
970.3389	2429.9232	4278.05	3387.35
970.4685	2431.2996	4251.4	3359.5
970.5981	2432.6753	4249.55	3356.3
970.7277	2434.0503	4241.55	3351.5
970.8572	2435.4246	4210.4	3322.05
970.9867	2436.7982	4218.1	3326.65
971.1161	2438.1711	4194.4	3305
971.2456	2439.5433	4170.65	3280
971.375	2440.9148	4161.75	3267.25
971.5043	2442.2856	4145.15	3257
971.6336	2443.6557	4143.8	3250.9
971.7629	2445.025	4126.05	3235.9
971.8922	2446.3937	4126.45	3235.2
972.0214	2447.7617	4111.15	3218.45
972.1506	2449.1289	4104.4	3216.15
972.2798	2450.4955	4107.25	3212.2
972.4089	2451.8613	4095.05	3205.75
972.538	2453.2265	4085.6	3195.25
972.6671	2454.5909	4081.15	3190.6
972.7961	2455.9546	4046.2	3156.4
972.9251	2457.3177	4037.2	3148.85
973.0541	2458.68	4018.85	3127.45
973.1831	2460.0416	4036.25	3144.45
973.312	2461.4025	4029.85	3137.55
973.4408	2462.7627	4011.75	3111.15
973.5697	2464.1222	3994.4	3105.5
973.6985	2465.4811	3986.45	3096.4
973.8273	2466.8392	3983.75	3094.5
973.956	2468.1966	3977.55	3086.1
974.0847	2469.5533	3967.15	3076.15
974.2134	2470.9093	3955.8	3065.4
974.3421	2472.2645	3943.55	3053.8
974.4707	2473.6191	3927.15	3037.25
974.5993	2474.973	3918.9	3029.6
974.7278	2476.3262	3911.5	3020.85
974.8563	2477.6787	3907.1	3019.8
974.9848	2479.0305	3881.2	2992.25
975.1132	2480.3816	3859.6	2968.4
975.2417	2481.7319	3845.25	2955.5
975.37	2483.0816	3850	2960.85
975.4984	2484.4306	3836.7	2945.95
975.6267	2485.7789	3835.7	2948.55
975.755	2487.1264	3819.2	2929.9
975.8833	2488.4733	3788.45	2900.6
976.0115	2489.8195	3795	2887.75
976.1397	2491.165	3781.6	2888.6
976.2678	2492.5097	3788.15	2896.7
976.3959	2493.8538	3751.2	2863.6
976.524	2495.1972	3727.85	2837.55
976.6521	2496.5398	3723.5	2831.05
976.7801	2497.8818	3721.4	2828.2
976.9081	2499.2231	3702.2	2811
977.036	2500.5637	3683.75	2791.9
977.164	2501.9035	3681.55	2791.05
977.2918	2503.2427	3683.95	2790.9
977.4197	2504.5812	3666.45	2776.45
977.5475	2505.919	3663.75	2769.85
977.6753	2507.256	3642.6	2752.6
977.8031	2508.5924	3642.1	2753.75
977.9308	2509.9281	3637.4	2743.5
978.0585	2511.2631	3620	2730.05
978.1861	2512.5974	3604.15	2715.45
978.3137	2513.9309	3593.55	2704.3
978.4413	2515.2638	3621.25	2703.8
978.5689	2516.596	3593.5	2703.8
978.6964	2517.9275	3568	2676.75
978.8239	2519.2583	3565.9	2675.7
978.9513	2520.5884	3555.8	2665.2
979.0788	2521.9178	3538.45	2649.35
979.2062	2523.2465	3527.85	2640.1
979.3335	2524.5745	3504.1	2614.45
979.4608	2525.9018	3512.95	2622.5
979.5881	2527.2284	3492.7	2603.65
979.7154	2528.5543	3503.4	2612.95
979.8426	2529.8796	3489.4	2599.45
979.9698	2531.2041	3481.7	2591.8
980.0969	2532.5279	3458.8	2572.1
980.224	2533.851	3452.75	2561.9
980.3511	2535.1735	3457.8	2568.1
980.4781	2536.4952	3443.8	2553.45
980.6052	2537.8163	3433.5	2542.75
980.7321	2539.1366	3439.3	2550.25
980.8591	2540.4562	3416.2	2524.75
980.986	2541.7752	3408.85	2517.9
981.1129	2543.0935	3434.65	2542.85
981.2397	2544.411	3407.9	2515.65
981.3665	2545.7279	3399.7	2508.95
981.4933	2547.0441	3377.4	2486.95
981.62	2548.3596	3391.35	2497.5
981.7467	2549.6744	3369.1	2478.15
981.8734	2550.9885	3363.25	2471.1
982.0001	2552.3019	3367.5	2478.7
982.1267	2553.6146	3360.3	2469.95
982.2532	2554.9266	3339.1	2449
982.3798	2556.2379	3324.1	2432.4
982.5063	2557.5485	3327.8	2439.75
982.6327	2558.8585	3313.15	2413.8
982.7592	2560.1677	3310.8	2416.5
982.8856	2561.4762	3312.5	2421.8
983.0119	2562.7841	3298.35	2406.45
983.1383	2564.0913	3312.8	2422.7
983.2646	2565.3977	3301.25	2410.25
983.3908	2566.7035	3283.9	2392.9
983.517	2568.0086	3279.8	2387.9
983.6432	2569.313	3280.75	2388.55
983.7694	2570.6167	3264.9	2369.05
983.8955	2571.9197	3247.05	2355.95
984.0216	2573.222	3255.9	2361.35
984.1476	2574.5236	3247.2	2357.4
984.2737	2575.8246	3248.85	2355.9
984.3996	2577.1248	3225.7	2332.9
984.5256	2578.4244	3224.05	2332.55
984.6515	2579.7232	3232.6	2340.85
984.7774	2581.0214	3246.05	2326
984.9032	2582.3189	3224.55	2334.15
985.029	2583.6157	3234.9	2338.45
985.1548	2584.9118	3214.5	2322.85
985.2806	2586.2072	3205.75	2314
985.4063	2587.5019	3188.85	2297.45
985.5319	2588.7959	3203.3	2312.8
985.6576	2590.0893	3208.35	2315.35
985.7832	2591.3819	3183.5	2291.6
985.9087	2592.6739	3172.25	2282.8
986.0343	2593.9652	3182.05	2289.7
986.1597	2595.2557	3156.45	2263.6
986.2852	2596.5456	3157.95	2264.55
986.4106	2597.8348	3148.4	2256.15
986.536	2599.1234	3141.05	2250.85
986.6614	2600.4112	3140.15	2251.95
986.7867	2601.6983	3138.8	2246.55
986.912	2602.9848	3118.8	2227.7
987.0372	2604.2705	3115.45	2216.75
987.1624	2605.5556	3125.95	2236.05
987.2876	2606.84	3094.45	2204.2
987.4128	2608.1237	3089.3	2197.1
987.5379	2609.4067	3088.9	2197.25
987.6629	2610.689	3080.75	2180
987.788	2611.9707	3072.2	2176.7
987.913	2613.2516	3075.45	2180.2
988.0379	2614.5319	3047.8	2157.2
988.1629	2615.8115	3039.55	2147.55
988.2878	2617.0903	3033.25	2139.6
988.4126	2618.3685	3036.4	2142.6
988.5375	2619.6461	3025.9	2132.5
988.6622	2620.9229	3018.4	2125.95
988.787	2622.199	3010.05	2119.45
988.9117	2623.4745	3014.3	2126
989.0364	2624.7493	3003.5	2114.2
989.161	2626.0234	2976.05	2084.65
989.2857	2627.2968	2985.7	2094.75
989.4102	2628.5695	2970.25	2076.4
989.5348	2629.8415	2956.3	2065.4
989.6593	2631.1128	2965.65	2072.95
989.7837	2632.3835	2945.3	2052.85
989.9082	2633.6535	2943.95	2055.55
990.0326	2634.9228	2945.15	2055.1
990.1569	2636.1914	2928.9	2037.8
990.2812	2637.4593	2927.85	2031.7
990.4055	2638.7265	2908.85	2016.85
990.5298	2639.9931	2915.4	2023.55
990.654	2641.259	2906.25	2014.3
990.7782	2642.5242	2902.2	2011.7
990.9023	2643.7887	2886.6	1995.4
991.0264	2645.0525	2888.5	1999.75
991.1505	2646.3156	2875.7	1984
991.2745	2647.5781	2866.05	1978.85
991.3985	2648.8398	2865.7	1974.35
991.5225	2650.1009	2861.8	1963.9
991.6464	2651.3613	2847.8	1957.55
991.7703	2652.6211	2829.1	1936.95
991.8942	2653.8801	2825.4	1937
992.018	2655.1385	2826.8	1934.9
992.1418	2656.3961	2803.7	1914.05
992.2655	2657.6531	2823.2	1932.9
992.3892	2658.9094	2816.7	1925.3
992.5129	2660.1651	2815	1925.25
992.6366	2661.42	2810.25	1920.3
992.7602	2662.6743	2799.5	1910.55
992.8837	2663.9279	2799.8	1910.1
993.0073	2665.1808	2800.05	1909.35
993.1307	2666.433	2794.7	1903.25
993.2542	2667.6846	2773.45	1884.2
993.3776	2668.9354	2790.15	1899
993.501	2670.1856	2778.1	1886.25
993.6244	2671.4351	2779.1	1890.9
993.7477	2672.6839	2789.8	1898.3
993.8709	2673.9321	2767.3	1879.6
993.9942	2675.1795	2760.95	1868.75
994.1174	2676.4263	2758.45	1868
994.2405	2677.6724	2755.55	1865.15
994.3637	2678.9179	2753.6	1863.1
994.4868	2680.1626	2749.6	1858.95
994.6098	2681.4067	2739.6	1848.95
994.7328	2682.6501	2744.9	1854.7
994.8558	2683.8928	2743.8	1854.2
994.9788	2685.1348	2724.6	1836.65
995.1017	2686.3761	2714.45	1825.45
995.2245	2687.6168	2708.75	1819.95
995.3474	2688.8568	2694.5	1804.2
995.4702	2690.0961	2702.85	1813.15
995.5929	2691.3348	2689.9	1798.25
995.7156	2692.5727	2677.45	1787.5
995.8383	2693.81	2672.9	1784.6
995.961	2695.0466	2663.9	1777.85
996.0836	2696.2826	2668.1	1774.2
996.2062	2697.5178	2660.3	1768.4
996.3287	2698.7524	2659.05	1770.05
996.4512	2699.9863	2645.5	1754.2
996.5737	2701.2195	2649.3	1760.9
996.6961	2702.452	2646.7	1755.65
996.8185	2703.6839	2643.65	1752.65
996.9408	2704.9151	2645.9	1757.4
997.0631	2706.1456	2643.85	1753.5
997.1854	2707.3755	2629.3	1736.95
997.3077	2708.6046	2641.1	1749
997.4299	2709.8331	2639.1	1748.35
997.552	2711.0609	2642.95	1753.6
997.6742	2712.2881	2637.35	1747.9
997.7963	2713.5145	2645.9	1755.45
997.9183	2714.7403	2659.95	1773.4
998.0403	2715.9654	2657.45	1767.65
998.1623	2717.1899	2672.45	1767.35
998.2842	2718.4136	2680.3	1791.2
998.4062	2719.6367	2680.9	1791.15
998.528	2720.8591	2689.65	1793.85
998.6498	2722.0809	2691.05	1801.55
998.7716	2723.3019	2696.65	1806.15
998.8934	2724.5223	2695.25	1804.7
999.0151	2725.7421	2688.3	1796.45
999.1368	2726.9611	2680.95	1790.2
999.2584	2728.1795	2689.7	1795.85
999.38	2729.3972	2668	1779.9
999.5016	2730.6142	2656.15	1759.6
999.6231	2731.8306	2625.3	1734.25
999.7446	2733.0462	2619.35	1729.25
999.8661	2734.2612	2598.85	1703.65
999.9875	2735.4756	2583.7	1692.2
1000.1089	2736.6892	2554.25	1664.4
1000.2302	2737.9022	2539.05	1651.55
1000.3515	2739.1145	2521.5	1632.8
1000.4728	2740.3262	2509.45	1614.7
1000.594	2741.5372	2481.8	1594.85
1000.7152	2742.7475	2470.05	1581.05
1000.8363	2743.9571	2455.95	1568
1000.9575	2745.1661	2443.65	1549.5
1001.0785	2746.3744	2430.35	1540.9
1001.1996	2747.582	2411.6	1523.8
1001.3206	2748.7889	2407.55	1516.85
1001.4415	2749.9952	2392.9	1503.2
1001.5625	2751.2008	2387	1497.1
1001.6833	2752.4057	2378.2	1485.5
1001.8042	2753.61	2369.25	1479.1
1001.925	2754.8136	2359.5	1470.55
1002.0458	2756.0165	2363.25	1475.85
1002.1665	2757.2188	2362.9	1476.05
1002.2872	2758.4204	2356.5	1469.65
1002.4078	2759.6213	2349.1	1458.45
1002.5285	2760.8215	2353.4	1462.75
1002.649	2762.0211	2336.1	1445.05
1002.7696	2763.22	2338.35	1445.15
1002.8901	2764.4182	2329.7	1438.4
1003.0106	2765.6158	2320.5	1432.75
1003.131	2766.8127	2321.4	1432.6
1003.2514	2768.009	2307.75	1420.95
1003.3717	2769.2045	2309.75	1420.15
1003.492	2770.3994	2307	1416.4
1003.6123	2771.5936	2291.3	1403.15
1003.7325	2772.7872	2281.65	1393.9
1003.8527	2773.9801	2275.15	1383.9
1003.9729	2775.1723	2288.65	1384.95
1004.093	2776.3639	2264	1376.05
1004.2131	2777.5548	2274.95	1385.15
1004.3331	2778.745	2259.3	1369.85
1004.4531	2779.9346	2256.3	1370.45
1004.5731	2781.1235	2276.2	1390
1004.693	2782.3117	2260.45	1374.6
1004.8129	2783.4992	2259.4	1371.8
1004.9328	2784.6861	2259	1372.05
1005.0526	2785.8723	2258.65	1369.45
1005.1723	2787.0579	2267.35	1379.55
1005.2921	2788.2428	2272.4	1384.9
1005.4118	2789.427	2271.35	1384.7
1005.5314	2790.6106	2275.8	1387.3
1005.651	2791.7935	2296.15	1407
1005.7706	2792.9757	2298.2	1410.7
1005.8902	2794.1573	2314.3	1424.6
1006.0097	2795.3382	2304.95	1416.95
1006.1291	2796.5184	2316.55	1430.35
1006.2485	2797.698	2339.9	1451.5
1006.3679	2798.8769	2359.5	1473.15
1006.4873	2800.0551	2361.45	1474.5
1006.6066	2801.2327	2371.65	1480.65
1006.7258	2802.4096	2385.3	1498.2
1006.8451	2803.5859	2418.35	1531.5
1006.9642	2804.7615	2425	1537.3
1007.0834	2805.9364	2446.2	1561.25
1007.2025	2807.1106	2475.4	1589.6
1007.3216	2808.2842	2501.3	1614.85
1007.4406	2809.4572	2531.3	1643.4
1007.5596	2810.6294	2568	1679.55
1007.6785	2811.801	2604.75	1719.3
1007.7975	2812.972	2645.15	1757.4
1007.9163	2814.1423	2686.95	1799.45
1008.0352	2815.3119	2726.85	1840.4
1008.154	2816.4808	2762.4	1875.8
1008.2727	2817.6491	2816.75	1929.05
1008.3914	2818.8167	2858.65	1974.05
1008.5101	2819.9837	2919.4	2028.2
1008.6288	2821.15	2948.7	2062.9
1008.7474	2822.3157	2988.4	2102
1008.8659	2823.4807	3040.75	2153.85
1008.9844	2824.645	3080.6	2191.65
1009.1029	2825.8086	3118.65	2234.2
1009.2214	2826.9716	3149.7	2263.2
1009.3398	2828.134	3201.3	2313.15
1009.4581	2829.2957	3225.55	2338.05
1009.5764	2830.4567	3240.6	2354.9
1009.6947	2831.617	3258.1	2371.5
1009.813	2832.7767	3281.35	2396
1009.9312	2833.9358	3269.35	2383.35
1010.0493	2835.0941	3268.5	2381.95
1010.1675	2836.2519	3258.5	2371.7
1010.2855	2837.4089	3237.45	2351.65
1010.4036	2838.5653	3213	2325.1
1010.5216	2839.7211	3219.4	2334.7
1010.6396	2840.8761	3235.3	2347.9
1010.7575	2842.0306	3255.85	2370.55
1010.8754	2843.1843	3292.95	2406.85
1010.9932	2844.3374	3342	2455.8
1011.111	2845.4899	3406.35	2519.35
1011.2288	2846.6417	3478.95	2592.85
1011.3465	2847.7928	3558.9	2674.1
1011.4642	2848.9433	3631.9	2744.8
1011.5818	2850.0931	3703.2	2817
1011.6995	2851.2422	3776.5	2890
1011.817	2852.3907	3847.9	2960.9
1011.9345	2853.5385	3918.05	3026.75
1012.052	2854.6857	3975.45	3079.35
1012.1695	2855.8323	4008.7	3124.75
1012.2869	2856.9781	4068.95	3182.8
1012.4042	2858.1233	4115.2	3228.1
1012.5216	2859.2679	4151.1	3263.9
1012.6389	2860.4118	4198.55	3312.45
1012.7561	2861.555	4254.7	3364.35
1012.8733	2862.6976	4288.45	3401.9
1012.9905	2863.8395	4293.8	3408.45
1013.1076	2864.9808	4338.1	3450.55
1013.2247	2866.1214	4337.05	3452.6
1013.3417	2867.2614	4334.5	3447.15
1013.4587	2868.4007	4353.35	3464.55
1013.5757	2869.5393	4381	3493.7
1013.6926	2870.6773	4377.05	3488.4
1013.8095	2871.8146	4387.7	3499.7
1013.9263	2872.9513	4394.85	3507.35
1014.0431	2874.0874	4369.25	3482.8
1014.1599	2875.2227	4357.55	3470.9
1014.2766	2876.3574	4347.4	3462.2
1014.3933	2877.4915	4313.15	3428.4
1014.51	2878.6249	4283.4	3400.6
1014.6266	2879.7577	4277.15	3389.7
1014.7431	2880.8898	4231.8	3335.6
1014.8596	2882.0212	4214.45	3329.85
1014.9761	2883.152	4208.15	3323.3
1015.0925	2884.2821	4183.15	3299.65
1015.2089	2885.4116	4185.65	3298.8
1015.3253	2886.5405	4187.05	3300.6
1015.4416	2887.6686	4190.15	3299.35
1015.5579	2888.7962	4179.45	3294.45
1015.6741	2889.923	4182	3299.05
1015.7903	2891.0493	4196.65	3308.5
1015.9065	2892.1748	4215	3328.55
1016.0226	2893.2997	4212.95	3326.7
1016.1387	2894.424	4227.45	3343.5
1016.2547	2895.5476	4247.75	3363.45
1016.3707	2896.6706	4260.85	3376.05
1016.4866	2897.7929	4291.85	3405.95
1016.6025	2898.9145	4319.25	3432.85
1016.7184	2900.0355	4356.35	3467.85
1016.8342	2901.1559	4366.3	3479.05
1016.95	2902.2756	4402.8	3518.5
1017.0658	2903.3946	4440.55	3554.6
1017.1815	2904.513	4455.65	3568.45
1017.2971	2905.6308	4481.8	3595.35
1017.4127	2906.7479	4493.5	3606.2
1017.5283	2907.8643	4531.9	3647.85
1017.6439	2908.9801	4560	3674.15
1017.7594	2910.0953	4552.2	3668.05
1017.8748	2911.2098	4544.75	3654.7
1017.9902	2912.3236	4542.55	3650.45
1018.1056	2913.4368	4524.3	3635.9
1018.2209	2914.5494	4497.1	3611.2
1018.3362	2915.6613	4473.75	3583.25
1018.4515	2916.7725	4425.25	3534.95
1018.5667	2917.8831	4403.3	3518.95
1018.6819	2918.9931	4378.1	3490.25
1018.797	2920.1024	4349.55	3464.15
1018.9121	2921.211	4331.8	3446.45
1019.0271	2922.319	4308.5	3422.45
1019.1421	2923.4264	4287.1	3401.8
1019.2571	2924.5331	4280.65	3396.7
1019.372	2925.6391	4258.3	3374.2
1019.4869	2926.7445	4243.05	3360.6
1019.6017	2927.8493	4221.05	3333.85
1019.7165	2928.9534	4221.8	3336.15
1019.8313	2930.0569	4194.55	3307.35
1019.946	2931.1597	4188.75	3303.6
1020.0606	2932.2619	4194.2	3309.3
1020.1753	2933.3634	4182.05	3297.7
1020.2899	2934.4643	4150.15	3259.9
1020.4044	2935.5645	4135.35	3243.35
1020.5189	2936.6641	4101.9	3210.8
1020.6334	2937.763	4042	3158.4
1020.7478	2938.8613	3996.95	3110.65
1020.8622	2939.959	3953.65	3063.45
1020.9765	2941.056	3871.05	2987.05
1021.0908	2942.1523	3790.25	2904.65
1021.2051	2943.248	3689.8	2806.2
1021.3193	2944.3431	3578.75	2695.35
1021.4334	2945.4375	3479.85	2595.1
1021.5476	2946.5313	3362.6	2480.6
1021.6617	2947.6244	3270.4	2384.2
1021.7757	2948.7169	3168.65	2282
1021.8897	2949.8087	3067.65	2182.75
1022.0037	2950.8999	2968.2	2083.8
1022.1176	2951.9904	2892.4	2008.4
1022.2315	2953.0803	2812.8	1926.35
1022.3453	2954.1696	2748.6	1864.35
1022.4591	2955.2582	2688.45	1803.1
1022.5728	2956.3462	2646.65	1761.65
1022.6865	2957.4335	2611.55	1727
1022.8002	2958.5202	2575.45	1687.65
1022.9138	2959.6062	2533.85	1649.15
1023.0274	2960.6916	2509.65	1624.45
1023.141	2961.7764	2495.6	1609.6
1023.2545	2962.8605	2480.2	1595.85
1023.3679	2963.9439	2463.65	1578.4
1023.4813	2965.0267	2457.2	1571.5
1023.5947	2966.1089	2465	1557.65
1023.708	2967.1905	2429.85	1546.35
1023.8213	2968.2714	2431.7	1548.55
1023.9346	2969.3516	2427.1	1544.25
1024.0478	2970.4312	2426.8	1534.35
1024.1609	2971.5102	2425.3	1541.05
1024.274	2972.5885	2426.35	1541.2
1024.3871	2973.6662	2426.65	1540.05
1024.5002	2974.7432	2410.15	1524.1
1024.6132	2975.8196	2403.95	1520.1
1024.7261	2976.8954	2387.85	1503.95
1024.839	2977.9705	2375.15	1490.65
1024.9519	2979.045	2370.4	1486.25
1025.0647	2980.1188	2348.05	1462.45
1025.1775	2981.192	2324.55	1440.15
1025.2902	2982.2645	2300.85	1414.65
1025.4029	2983.3364	2276.2	1391.05
1025.5156	2984.4077	2252.1	1368.4
1025.6282	2985.4783	2216.95	1324.9
1025.7407	2986.5483	2181.95	1298.4
1025.8532	2987.6177	2152.1	1269.7
1025.9657	2988.6864	2107.8	1224.15
1026.0782	2989.7545	2067.9	1184.05
1026.1906	2990.8219	2041.4	1157.9
1026.3029	2991.8887	2006.55	1118.95
1026.4152	2992.9548	1970.4	1086.4
1026.5275	2994.0204	1937.75	1054.75
1026.6397	2995.0852	1909.95	1026.6
1026.7519	2996.1495	1886.75	1001.7
1026.864	2997.2131	1855.65	971.25
1026.9761	2998.276	1839.55	955.9
1027.0882	2999.3383	1807.65	921.4
1027.2002	3000.4	1794.8	909.25
1027.3122	3001.4611	1775.25	891.3
1027.4241	3002.5215	1764.15	880.15
1027.536	3003.5812	1744.7	859.5
1027.6478	3004.6404	1724.65	839.2
1027.7596	3005.6989	1716.05	829.35
1027.8714	3006.7567	1708.1	823.7
1027.9831	3007.8139	1719.15	812.95
1028.0947	3008.8705	1696.15	811.55
1028.2064	3009.9264	1703	804.5
1028.3179	3010.9818	1693.05	806.8
1028.4295	3012.0364	1677	791.15
1028.541	3013.0905	1678.05	795.9
1028.6524	3014.1439	1676.25	791.35
1028.7638	3015.1966	1669.3	787.7
1028.8752	3016.2487	1669.25	786.1
1028.9865	3017.3002	1676.9	784.05
1029.0978	3018.3511	1665.45	783.4
1029.209	3019.4013	1665.75	784.85
1029.3202	3020.4509	1661.4	777.05
1029.4314	3021.4998	1664.1	781.45
1029.5425	3022.5481	1660.85	777
1029.6535	3023.5958	1666.6	785.65
1029.7645	3024.6428	1661.9	777.75
1029.8755	3025.6892	1661.8	778.85
1029.9864	3026.735	1660.95	775
1030.0973	3027.7802	1664.65	779.2
1030.2082	3028.8247	1664.45	782.4
1030.319	3029.8685	1663.4	776.9
1030.4297	3030.9118	1667.1	780.9
1030.5404	3031.9544	1679	797.8
1030.6511	3032.9963	1678.3	795.15
1030.7617	3034.0376	1674.8	791.5
1030.8723	3035.0783	1672.35	787.75
1030.9829	3036.1184	1683.55	799.45
1031.0934	3037.1578	1693.35	809.45
1031.2038	3038.1966	1689.3	804.85
1031.3142	3039.2348	1683.35	800.4
1031.4246	3040.2723	1685	792.2
1031.5349	3041.3092	1686.1	803.7
1031.6452	3042.3455	1677.05	793.65
1031.7554	3043.3811	1677.6	794.35
1031.8656	3044.4161	1661.5	779.4
1031.9758	3045.4505	1658.35	775.45
1032.0859	3046.4842	1655	769.3
1032.1959	3047.5173	1644.4	759.7
1032.3059	3048.5498	1632.9	748.6
1032.4159	3049.5816	1630.4	745.35
1032.5258	3050.6128	1618.4	734.2
1032.6357	3051.6434	1614.7	729.75
1032.7455	3052.6734	1614.85	729.7
1032.8553	3053.7027	1601.6	719.55
1032.9651	3054.7314	1593.35	710.75
1033.0748	3055.7594	1583.55	702.2
1033.1845	3056.7868	1588.45	704.55
1033.2941	3057.8136	1579.85	697.4
1033.4037	3058.8398	1561.3	679.85
1033.5132	3059.8653	1556.3	671.5
1033.6227	3060.8902	1545.3	663.2
1033.7321	3061.9145	1551.15	666.2
1033.8415	3062.9381	1542.6	659.4
1033.9509	3063.9612	1548.65	651.3
1034.0602	3064.9835	1530.5	647.25
1034.1694	3066.0053	1522.85	638.1
1034.2787	3067.0264	1516.65	632.6
1034.3878	3068.0469	1500.05	614.85
1034.497	3069.0668	1490.95	606.05
1034.6061	3070.086	1478.15	596.15
1034.7151	3071.1046	1483.75	599.35
1034.8241	3072.1226	1467.5	582.3
1034.9331	3073.1399	1453.1	569.6
1035.042	3074.1567	1447.9	563.9
1035.1508	3075.1727	1444.2	557.4
1035.2597	3076.1882	1423.7	540.1
1035.3684	3077.203	1415.8	531.85
1035.4772	3078.2173	1406.8	522.7
1035.5859	3079.2308	1396.15	509.35
1035.6945	3080.2438	1384.3	500.9
1035.8031	3081.2561	1381.9	498.65
1035.9117	3082.2678	1369.15	486.7
1036.0202	3083.2789	1363.1	479.1
1036.1286	3084.2893	1358.45	477.3
1036.2371	3085.2991	1343.3	458.95
1036.3454	3086.3083	1346.3	458.55
1036.4538	3087.3169	1339.95	455.85
1036.562	3088.3248	1338.2	455.25
1036.6703	3089.3321	1323.3	438.45
1036.7785	3090.3388	1317.7	437.7
1036.8866	3091.3449	1311.05	427.1
1036.9948	3092.3503	1317.35	432.55
1037.1028	3093.3551	1298.15	417.3
1037.2108	3094.3593	1302.15	420.85
1037.3188	3095.3629	1290	408.25
1037.4267	3096.3658	1289.6	404.55
1037.5346	3097.3681	1293.45	410.15
1037.6425	3098.3698	1284.7	399.3
1037.7503	3099.3708	1286	396.95
1037.858	3100.3713	1276.85	393.2
1037.9657	3101.3711	1275.55	392.25
1038.0734	3102.3702	1404.45	388.25
1038.181	3103.3688	1274.45	389.8
1038.2886	3104.3667	1264.05	383.65
1038.3961	3105.364	1265.6	384.05
1038.5036	3106.3607	1259.3	374.2
1038.611	3107.3568	1259	376.55
1038.7184	3108.3522	1248.9	366.95
1038.8257	3109.347	1252.05	367.65
1038.933	3110.3412	1246.05	359.25
1039.0403	3111.3348	1241.05	360.8
1039.1475	3112.3277	1243.35	361.55
1039.2547	3113.32	1236.8	355.55
1039.3618	3114.3117	1238.9	356.8
1039.4689	3115.3028	1232.15	348.75
1039.5759	3116.2932	1233.6	348.2
1039.6829	3117.2831	1235	346.55
1039.7898	3118.2723	1222.75	340.9
1039.8967	3119.2608	1220.65	337.6
1040.0035	3120.2488	1224	342.65
1040.1103	3121.2361	1226.8	343.15
1040.2171	3122.2229	1219	337.25
1040.3238	3123.209	1212.35	329.4
1040.4305	3124.1944	1213.2	330.3
1040.5371	3125.1793	1219.75	335.75
1040.6437	3126.1635	1211.95	330.55
1040.7502	3127.1471	1206.6	324.65
1040.8567	3128.1301	1205.2	323.05
1040.9631	3129.1125	1208.3	326.95
1041.0695	3130.0942	1203.15	322.35
1041.1759	3131.0753	1210.2	317.8
1041.2822	3132.0558	1199.85	313.75
1041.3884	3133.0357	1199.15	317.4
1041.4946	3134.015	1193.9	310.85
1041.6008	3134.9936	1191.85	308.2
1041.7069	3135.9716	1214.8	309.7
1041.813	3136.949	1191.6	308
1041.919	3137.9258	1203.35	300.7
1042.025	3138.902	1194.95	306.4
1042.1309	3139.8775	1187.9	307.9
1042.2368	3140.8524	1182.85	299.3
1042.3427	3141.8267	1182.95	299.95
1042.4485	3142.8004	1179.9	297.15
1042.5542	3143.7735	1179.65	290.9
1042.6599	3144.7459	1179.65	295
1042.7656	3145.7178	1173.5	289.4
1042.8712	3146.689	1172.2	290.85
1042.9768	3147.6596	1177.5	292.5
1043.0823	3148.6295	1170.05	287.4
1043.1878	3149.5989	1164.7	283.2
1043.2932	3150.5676	1158.55	278.55
1043.3986	3151.5357	1160.6	278.85
1043.5039	3152.5032	1161.35	280
1043.6092	3153.4701	1159.1	277.35
1043.7145	3154.4364	1161.35	276.15
1043.8197	3155.402	1151.45	268.9
1043.9248	3156.367	1157	272.55
1044.03	3157.3315	1184.4	262.4
1044.135	3158.2952	1149.45	264.8
1044.24	3159.2584	1146.7	266
1044.345	3160.221	1146.75	263.4
1044.4499	3161.1829	1144.3	262.85
1044.5548	3162.1442	1139.6	256.45
1044.6596	3163.105	1133.4	251.7
1044.7644	3164.065	1134.75	252.5
1044.8692	3165.0245	1139.85	256
1044.9739	3165.9834	1137.15	256.75
1045.0785	3166.9416	1134.4	251.95
1045.1831	3167.8993	1132	248.6
1045.2877	3168.8563	1131.55	248.9
1045.3922	3169.8127	1131	250.9
1045.4966	3170.7684	1130.85	246.4
1045.6011	3171.7236	1128.75	246.1
1045.7054	3172.6782	1125.9	243.8
1045.8098	3173.6321	1126.5	244.75
1045.914	3174.5854	1129.15	243.1
1046.0183	3175.5381	1122.75	239.05
1046.1224	3176.4902	1117.15	234.95
1046.2266	3177.4417	1119.7	236.3
1046.3307	3178.3926	1116.35	233.9
1046.4347	3179.3428	1115.95	236
1046.5387	3180.2924	1110.6	228.85
1046.6427	3181.2415	1108.7	225.65
1046.7466	3182.1899	1113.25	229.35
1046.8504	3183.1377	1113.55	231.95
1046.9542	3184.0848	1108.5	223.9
1047.058	3185.0314	1108.15	224.85
1047.1617	3185.9773	1107.25	224.3
1047.2654	3186.9227	1104.8	221.3
1047.369	3187.8674	1100.7	219.4
1047.4726	3188.8115	1105.4	219.8
1047.5761	3189.755	1100.35	217.85
1047.6796	3190.6979	1102.85	221.1
1047.783	3191.6402	1099.1	217.7
1047.8864	3192.5818	1102.15	220
1047.9898	3193.5229	1103.1	215.85
1048.0931	3194.4633	1097.4	215.5
1048.1963	3195.4031	1096.55	215.8
1048.2995	3196.3423	1091.5	209
1048.4027	3197.2809	1089.35	208.05
1048.5058	3198.2189	1093.8	210.1
1048.6089	3199.1563	1094.45	207.45
1048.7119	3200.0931	1091.15	209.85
1048.8148	3201.0292	1090.75	211
1048.9178	3201.9648	1092.7	209.45
1049.0206	3202.8997	1088.4	202.85
1049.1235	3203.834	1082.2	199.2
1049.2262	3204.7677	1084.6	202.65
1049.329	3205.7008	1086.35	204.2
1049.4317	3206.6333	1079.3	200.3
1049.5343	3207.5652	1081.85	196.8
1049.6369	3208.4964	1082.15	200.15
1049.7394	3209.4271	1075.95	194.9
1049.8419	3210.3571	1079.55	198.25
1049.9444	3211.2865	1081.75	200.85
1050.0468	3212.2154	1081.05	200.6
1050.1491	3213.1436	1075.5	191.85
1050.2514	3214.0712	1083.75	195.3
1050.3537	3214.9982	1074.3	194.15
1050.4559	3215.9246	1075.1	191.2
1050.5581	3216.8503	1072.4	193.25
1050.6602	3217.7755	1070.1	190.2
1050.7623	3218.7001	1063.8	181.95
1050.8643	3219.624	1068.65	188.05
1050.9663	3220.5473	1071.65	189.85
1051.0682	3221.4701	1066.3	183.75
1051.1701	3222.3922	1067.35	182.75
1051.2719	3223.3137	1068.25	187.3
1051.3737	3224.2346	1061.35	182.25
1051.4754	3225.1549	1062.5	181.9
1051.5771	3226.0746	1059.35	179.5
1051.6788	3226.9937	1058.2	175.8
1051.7804	3227.9121	1059.75	181.05
1051.8819	3228.83	1060.25	181.5
1051.9834	3229.7473	1060.8	178
1052.0849	3230.6639	1056.95	174.9
1052.1863	3231.5799	1057.4	176.7
1052.2876	3232.4954	1057	174
1052.3889	3233.4102	1054.3	174.4
1052.4902	3234.3244	1053.25	170.4
1052.5914	3235.238	1052.35	172
1052.6926	3236.151	1075.7	169.7
1052.7937	3237.0634	1052.15	169.15
1052.8948	3237.9752	1049.65	169.75
1052.9958	3238.8864	1044.7	162.3
1053.0968	3239.797	1047.1	166.85
1053.1977	3240.7069	1048	165.75
1053.2986	3241.6163	1046.4	162.85
1053.3994	3242.5251	1044	164.05
1053.5002	3243.4332	1042.05	163.5
1053.6009	3244.3408	1043.15	162.15
1053.7016	3245.2477	1047	166.65
1053.8022	3246.154	1044	163.7
1053.9028	3247.0598	1040.3	159.85
1054.0034	3247.9649	1037.7	156.05
1054.1039	3248.8694	1036	152.85
1054.2043	3249.7733	1037	157.15
1054.3047	3250.6766	1034.5	151.55
1054.4051	3251.5793	1035.05	151.45
1054.5054	3252.4814	1033	151.8
1054.6056	3253.3829	1033.8	151.5
1054.7058	3254.2838	1035.8	155.45
1054.806	3255.1841	1030.5	149.3
1054.9061	3256.0838	1025.15	145.65
1055.0061	3256.9829	1023.25	142.45
1055.1062	3257.8814	1028.55	145.3
1055.2061	3258.7792	1029.8	146.45
1055.306	3259.6765	1023	139.95
1055.4059	3260.5731	1018.6	139.1
1055.5057	3261.4692	1017.2	134.55
1055.6055	3262.3647	1018.15	137.2
1055.7052	3263.2595	1015.25	134.2
1055.8049	3264.1538	1012.25	130.3
1055.9045	3265.0474	1012.8	132.65
1056.0041	3265.9404	1009.2	128.2
1056.1036	3266.8329	1006.15	125.2
1056.2031	3267.7247	1014.05	123.5
1056.3025	3268.616	1002.3	122.8
1056.4019	3269.5066	1001.15	118.95
1056.5013	3270.3966	1000.8	119.2
1056.6005	3271.286	992.2	111.55
