Software Version:	3.9.2.0
Unit SN:	10000200
Spectrometer SN:	6960
Date:	3/26/2024 1:06:04 PM
Data Line Index:	25
Spectral Points:	2048
Integration time (ms):	125
Averages:	20
Delay (ms):	30000
Sequence Number:	1
Processing:	dark subtract
Laser Power (mW):	305
Laser Current (mA):	818
Laser Diode Temp (C):	25
Laser Case Temp (C):	26
System Temp (C):	25.9
Spectrometer Temp (C):	23.6
CCD Temp (C):	0.007
Secondary Temp (C):	20.01
Heatsink Temp (C):	21.728
CCDPCB Temp (C):	36.107
SecondaryPCB Temp (C):	30.182

Wavelength	RamanShift	Raw Counts	Dark Subtracted
787.061	30.1047	424.8	15.25
787.2016	32.3739	424.85	17.35
787.3422	34.6426	426.35	17.7
787.4828	36.9109	429.3	18.65
787.6235	39.1787	433.9	18.55
787.7642	41.4461	438.85	18.4
787.9049	43.7131	444.7	20.95
788.0456	45.9796	448.8	20.75
788.1863	48.2456	454.85	26.4
788.3271	50.5112	457.7	23.1
788.4679	52.7764	461.05	25.55
788.6087	55.0411	465.9	25.7
788.7496	57.3054	473.45	29.35
788.8904	59.5692	478.7	32.25
789.0313	61.8326	482.55	32.4
789.1722	64.0955	490.55	34.55
789.3132	66.3579	499.15	36.45
789.4541	68.6199	505.3	39.05
789.5951	70.8815	520	54.65
789.7361	73.1426	543.35	71.2
789.8771	75.4032	592.75	118.05
790.0181	77.6634	709.2	230.85
790.1592	79.9231	987.2	504.05
790.3003	82.1824	1575.7	1089.3
790.4414	84.4412	2570.35	2077.7
790.5825	86.6995	3896.05	3391.55
790.7237	88.9574	5245.1	4733.65
790.8648	91.2148	6234.25	5718.7
791.006	93.4717	6756.25	6237.3
791.1472	95.7282	6950.6	6428.75
791.2885	97.9842	7015.8	6491.6
791.4297	100.2398	7019.35	6491.45
791.571	102.4949	6985.55	6453.6
791.7123	104.7495	6967.3	6432.1
791.8536	107.0036	6947.15	6411.9
791.9949	109.2573	6889.4	6354.5
792.1363	111.5105	6815	6278.25
792.2777	113.7632	6773.9	6234.65
792.4191	116.0154	6707.55	6158.45
792.5605	118.2672	6667.7	6124.7
792.7019	120.5185	6578	6035.7
792.8434	122.7693	6521.45	5975.35
792.9849	125.0197	6452.95	5903.25
793.1264	127.2696	6429.2	5877.95
793.2679	129.519	6394.75	5840.4
793.4094	131.7679	6388.05	5829.7
793.551	134.0163	6341.15	5779.65
793.6926	136.2642	6338.8	5772.35
793.8342	138.5117	6353.15	5779.1
793.9758	140.7587	6314.05	5744.2
794.1175	143.0052	6304.75	5733.5
794.2591	145.2512	6246.8	5678.35
794.4008	147.4967	6192.05	5619.7
794.5425	149.7417	6152.1	5576.75
794.6842	151.9863	6117.05	5537.6
794.826	154.2304	6099.95	5516.65
794.9677	156.4739	6075.8	5490.55
795.1095	158.717	6084.9	5497.25
795.2513	160.9596	6098.55	5504.35
795.3931	163.2017	6095.6	5500.3
795.535	165.4433	6125.3	5525.5
795.6768	167.6844	6119.25	5519.65
795.8187	169.925	6087.05	5484.3
795.9606	172.1651	6037.05	5431.65
796.1025	174.4047	6012.3	5402.35
796.2445	176.6439	5967.1	5355.95
796.3864	178.8825	5939.8	5325.2
796.5284	181.1206	5914.55	5297.55
796.6704	183.3582	5892.65	5270.15
796.8124	185.5954	5877.05	5253.6
796.9544	187.832	5871.75	5244.05
797.0965	190.0681	5879.05	5249.5
797.2386	192.3037	5874.35	5240.25
797.3806	194.5388	5878.2	5243.55
797.5228	196.7734	5883.8	5245.5
797.6649	199.0075	5888.65	5245.55
797.807	201.2411	5923.7	5278.25
797.9492	203.4742	5915.95	5270.1
798.0914	205.7068	5955.4	5308.8
798.2336	207.9389	5965.9	5318.05
798.3758	210.1704	5969.8	5317.1
798.518	212.4015	5956.45	5302.15
798.6603	214.632	5961.95	5308.4
798.8025	216.862	5951.75	5307.9
798.9448	219.0915	5952.55	5315.2
799.0871	221.3205	5959.25	5322.65
799.2294	223.549	5966.5	5333.45
799.3718	225.777	5959.05	5328.75
799.5141	228.0044	5948.45	5313.25
799.6565	230.2314	5946.75	5316.3
799.7989	232.4578	5923	5288.05
799.9413	234.6837	5908.25	5268.9
800.0837	236.909	5909.1	5264.7
800.2262	239.1339	5909.1	5244.15
800.3687	241.3582	5893.2	5242.05
800.5111	243.582	5882.85	5197.05
800.6536	245.8053	5896.1	5223.65
800.7961	248.0281	5880.1	5211.6
800.9387	250.2503	5880.8	5210.35
801.0812	252.472	5880.2	5204.85
801.2238	254.6932	5883.55	5203.7
801.3664	256.9139	5878.15	5195.15
801.509	259.134	5868.05	5182.8
801.6516	261.3536	5893.55	5209.95
801.7942	263.5727	5913.5	5229
801.9369	265.7912	5923.35	5238.15
802.0795	268.0092	5964.65	5279.05
802.2222	270.2267	5982.3	5294.85
802.3649	272.4436	6021.1	5330.95
802.5076	274.6601	6049.1	5353.95
802.6504	276.8759	6043.7	5349.95
802.7931	279.0913	6067.7	5372.75
802.9359	281.3061	6062.35	5368.55
803.0787	283.5204	6091.6	5393.35
803.2215	285.7341	6112.95	5413.85
803.3643	287.9473	6138	5425.55
803.5071	290.16	6133.65	5426.35
803.6499	292.3721	6094.5	5392.9
803.7928	294.5837	6052.45	5348.3
803.9357	296.7947	6015.35	5311.05
804.0786	299.0052	5987.45	5283.75
804.2215	301.2152	5975.05	5268.5
804.3644	303.4246	5967.25	5264
804.5074	305.6334	5924.6	5219.6
804.6503	307.8418	5935.5	5226.05
804.7933	310.0495	5917.2	5208.8
804.9363	312.2568	5876.45	5168.55
805.0793	314.4635	5833.2	5121.85
805.2223	316.6696	5797.75	5085.25
805.3653	318.8752	5754	5033.95
805.5084	321.0802	5715.4	5000.5
805.6514	323.2847	5678.8	4960.8
805.7945	325.4887	5687.75	4970.1
805.9376	327.692	5677.95	4959.35
806.0807	329.8949	5720.8	4999.15
806.2238	332.0972	5735.75	5013.7
806.367	334.2989	5787.1	5060.75
806.5101	336.5001	5786.9	5062.95
806.6533	338.7007	5769.05	5043.15
806.7965	340.9008	5719.95	4996.1
806.9397	343.1003	5667.45	4938.55
807.0829	345.2992	5630.9	4898.45
807.2261	347.4976	5596.45	4866.15
807.3693	349.6955	5552.95	4818.6
807.5126	351.8927	5550.8	4817.2
807.6559	354.0895	5535.2	4788.5
807.7991	356.2856	5516.7	4777.25
807.9424	358.4812	5491.8	4755.75
808.0857	360.6763	5487.45	4748.1
808.2291	362.8707	5476.25	4736.2
808.3724	365.0646	5472.55	4730.4
808.5158	367.258	5489.1	4742.8
808.6591	369.4508	5477.25	4730.7
808.8025	371.643	5498.25	4749.7
808.9459	373.8346	5514.95	4762.95
809.0893	376.0257	5530.6	4775.95
809.2327	378.2162	5559.8	4806.85
809.3762	380.4062	5584.9	4828.95
809.5196	382.5956	5547.05	4789
809.6631	384.7844	5514.1	4756.1
809.8066	386.9726	5458.65	4696.85
809.9501	389.1603	5432.1	4675.7
810.0936	391.3474	5426	4636
810.2371	393.5339	5392.5	4635.65
810.3806	395.7199	5361.85	4606.95
810.5241	397.9052	5392.9	4641.3
810.6677	400.09	5419.6	4668.85
810.8113	402.2743	5452.45	4701.6
810.9548	404.4579	5467.4	4716.4
811.0984	406.641	5504.05	4750.8
811.2421	408.8235	5519.4	4766
811.3857	411.0054	5594.4	4840.1
811.5293	413.1868	5683.5	4926.9
811.673	415.3675	5774.45	5014.4
811.8166	417.5477	5818.75	5057.65
811.9603	419.7273	5752.25	4988.95
812.104	421.9064	5590	4820.1
812.2477	424.0848	5515.85	4749.8
812.3914	426.2627	5443.6	4673.6
812.5351	428.4399	5391.1	4620.6
812.6788	430.6166	5362.35	4588.75
812.8226	432.7928	5291.45	4514.85
812.9663	434.9683	5255.2	4481
813.1101	437.1432	5237.5	4459.45
813.2539	439.3176	5195.25	4418.6
813.3977	441.4914	5165.4	4389.25
813.5415	443.6645	5169.3	4389.15
813.6853	445.8371	5178.2	4399
813.8291	448.0091	5147.3	4368.2
813.973	450.1806	5145	4363.05
814.1168	452.3514	5118.7	4333.55
814.2607	454.5216	5124.25	4335.25
814.4046	456.6913	5090.3	4304.6
814.5485	458.8603	5087.7	4304.35
814.6924	461.0288	5106.65	4324.1
814.8363	463.1967	5085.55	4300.6
814.9802	465.3639	5085.35	4298.25
815.1241	467.5306	5076.2	4288.65
815.2681	469.6967	5079.45	4292.8
815.412	471.8622	5055.55	4271.05
815.556	474.0271	5038.25	4250.15
815.7	476.1914	5029.8	4240.95
815.844	478.3551	5038.75	4249
815.988	480.5182	5038.55	4247.55
816.132	482.6807	5050.8	4258.35
816.276	484.8426	5051.3	4262
816.4201	487.0039	5074.75	4283.4
816.5641	489.1647	5122.6	4329.65
816.7082	491.3248	5170.25	4377.6
816.8522	493.4843	5178.05	4386.85
816.9963	495.6432	5170.85	4377.65
817.1404	497.8015	5151.3	4354.15
817.2845	499.9592	5128.25	4333.15
817.4286	502.1163	5063.7	4268.75
817.5727	504.2728	5036.85	4237.7
817.7168	506.4287	5023.25	4226.15
817.861	508.5839	4984.6	4188.15
818.0051	510.7386	4970.85	4174.4
818.1493	512.8927	4988.4	4183.35
818.2935	515.0461	4983.75	4185.7
818.4377	517.199	5003.1	4203.9
818.5818	519.3512	5027.8	4227.9
818.726	521.5029	5073.9	4267.75
818.8703	523.6539	5130.25	4326.25
819.0145	525.8043	5128.5	4325.25
819.1587	527.9541	5093.6	4289.2
819.303	530.1033	5044.8	4241.45
819.4472	532.2519	4994.3	4190.05
819.5915	534.3999	4973.45	4167.35
819.7357	536.5472	4977.1	4171.5
819.88	538.694	4946	4140.55
820.0243	540.8401	4972.35	4166.05
820.1686	542.9856	4988.85	4180
820.3129	545.1305	5010.85	4199.55
820.4572	547.2748	5028.7	4218.8
820.6016	549.4185	5031.2	4217.65
820.7459	551.5615	5018.95	4208.15
820.8902	553.704	5047.05	4233.55
821.0346	555.8458	5041.45	4231.9
821.1789	557.987	5030.8	4220.4
821.3233	560.1276	5071.15	4256.25
821.4677	562.2675	5098.85	4285.9
821.6121	564.4069	5173.9	4359.45
821.7565	566.5456	5211.15	4400.85
821.9009	568.6837	5219.55	4407.15
822.0453	570.8212	5129.45	4317.15
822.1897	572.958	5080.65	4266.35
822.3342	575.0942	5057.1	4244.2
822.4786	577.2299	5011.9	4197.6
822.6231	579.3648	4973.05	4158.7
822.7675	581.4992	4928.4	4115.1
822.912	583.6329	4926.1	4111.95
823.0565	585.766	4926.2	4111.5
823.201	587.8985	4959.95	4145.5
823.3454	590.0304	4990.4	4161.45
823.4899	592.1616	5003.8	4184.05
823.6345	594.2922	5000.85	4180.7
823.779	596.4222	4978.6	4157
823.9235	598.5515	4934.9	4113.9
824.068	600.6802	4883.6	4064.15
824.2126	602.8083	4848.2	4025.1
824.3571	604.9358	4849.85	4028.25
824.5017	607.0626	4828.55	4005.25
824.6462	609.1888	4815	3991.35
824.7908	611.3144	4843.9	4021.05
824.9354	613.4393	4851.9	4028.35
825.08	615.5636	4881.65	4059.1
825.2246	617.6873	4936.6	4113.75
825.3692	619.8103	4983.35	4156.95
825.5138	621.9327	4966.7	4137.2
825.6584	624.0544	4945	4118.6
825.803	626.1756	4902.9	4077.85
825.9477	628.2961	4846.2	4019.3
826.0923	630.4159	4834.05	4008.05
826.237	632.5351	4816.3	3987.35
826.3816	634.6537	4823.1	3994.45
826.5263	636.7716	4817	3987.45
826.6709	638.8889	4797.9	3969.3
826.8156	641.0056	4799.6	3969.15
826.9603	643.1216	4812.05	3983.15
827.105	645.237	4844.45	4011.65
827.2497	647.3518	4815.6	3985.15
827.3944	649.4659	4780.15	3951.55
827.5391	651.5793	4781.65	3950.85
827.6838	653.6922	4755.15	3924.8
827.8285	655.8043	4747	3915.45
827.9733	657.9159	4729.1	3895.9
828.118	660.0268	4711.85	3877.3
828.2627	662.137	4697.45	3864.5
828.4075	664.2466	4712.55	3876.15
828.5522	666.3556	4714	3879.15
828.697	668.4639	4697.3	3858.8
828.8418	670.5716	4689.2	3855.2
828.9865	672.6786	4705.85	3869.5
829.1313	674.785	4670.55	3831.65
829.2761	676.8907	4663.25	3829.5
829.4209	678.9958	4673.6	3840.75
829.5657	681.1002	4642.05	3804.8
829.7105	683.204	4661.5	3820.85
829.8553	685.3072	4635.85	3794.85
830.0001	687.4097	4635.8	3798.5
830.1449	689.5115	4633.3	3792.3
830.2898	691.6127	4646.65	3809.65
830.4346	693.7132	4649.2	3809.75
830.5794	695.8131	4644.3	3793.5
830.7243	697.9123	4647.75	3805.75
830.8691	700.0109	4644.4	3802.35
831.014	702.1089	4636.75	3796.75
831.1588	704.2061	4651.2	3809.65
831.3037	706.3028	4667.5	3823.7
831.4486	708.3987	4670.8	3828.9
831.5935	710.4941	4688.5	3846.15
831.7383	712.5887	4706.65	3865.1
831.8832	714.6827	4705.3	3857.5
832.0281	716.7761	4699.65	3857.1
832.173	718.8688	4696.4	3852.9
832.3179	720.9608	4679.55	3833.35
832.4628	723.0522	4689.7	3843.6
832.6077	725.1429	4683.85	3840.15
832.7527	727.233	4726.25	3881.6
832.8976	729.3224	4773.75	3926.7
833.0425	731.4112	4808.7	3961.8
833.1874	733.4993	4818.65	3971
833.3324	735.5867	4789.75	3942
833.4773	737.6735	4745.3	3895.45
833.6222	739.7596	4698.35	3849.65
833.7672	741.845	4649.9	3803.6
833.9122	743.9298	4676.3	3825
834.0571	746.014	4676.6	3829.25
834.2021	748.0974	4687.55	3836.7
834.347	750.1802	4692.55	3842.8
834.492	752.2624	4668.9	3818.35
834.637	754.3439	4619.85	3768.35
834.782	756.4247	4624.55	3764.85
834.9269	758.5048	4597.7	3749.65
835.0719	760.5843	4603.9	3753.3
835.2169	762.6631	4600.75	3751.25
835.3619	764.7413	4622.05	3772.75
835.5069	766.8188	4676.5	3826.1
835.6519	768.8956	4728	3872.85
835.7969	770.9718	4776.6	3926.45
835.9419	773.0473	4784.45	3931.8
836.0869	775.1221	4745	3893.6
836.232	777.1962	4712.45	3860.85
836.377	779.2697	4742.25	3888.1
836.522	781.3426	4841.3	3971.65
836.667	783.4147	4873.5	4020
836.8121	785.4862	4883	4030.45
836.9571	787.557	4804.8	3952.6
837.1021	789.6271	4707.1	3854.2
837.2472	791.6966	4613.35	3758.55
837.3922	793.7654	4501.95	3647.6
837.5373	795.8335	4458.8	3603.75
837.6823	797.901	4437.35	3582.6
837.8274	799.9678	4426.75	3571.1
837.9724	802.0339	4394.65	3540.7
838.1175	804.0993	4402.55	3537.65
838.2626	806.1641	4399.95	3542.55
838.4076	808.2282	4401.25	3547.15
838.5527	810.2916	4384.1	3524.35
838.6978	812.3544	4351.75	3495.75
838.8428	814.4164	4333.05	3479.1
838.9879	816.4778	4342.9	3485.85
839.133	818.5385	4353.4	3497.8
839.2781	820.5986	4360.5	3505.45
839.4232	822.658	4394.55	3535.35
839.5682	824.7166	4409.3	3552.75
839.7133	826.7747	4492.5	3634.75
839.8584	828.832	4550.35	3692.9
840.0035	830.8886	4573.8	3712.3
840.1486	832.9446	4608.45	3748.85
840.2937	834.9999	4580.55	3722.05
840.4388	837.0545	4544.45	3684.05
840.5839	839.1085	4469.95	3612.7
840.729	841.1618	4405.3	3543.05
840.8741	843.2143	4355.4	3498.05
841.0192	845.2662	4318.15	3459.1
841.1643	847.3175	4280.75	3423.1
841.3095	849.368	4278.1	3416.35
841.4546	851.4179	4272.95	3412.9
841.5997	853.467	4260	3400.85
841.7448	855.5155	4271.95	3410.1
841.8899	857.5633	4261.8	3402
842.0351	859.6105	4247.25	3387.15
842.1802	861.6569	4232.45	3373.05
842.3253	863.7027	4211.65	3350.2
842.4704	865.7478	4207.9	3346.95
842.6156	867.7922	4192.6	3332.4
842.7607	869.8359	4187.9	3328.4
842.9058	871.8789	4180.2	3317.95
843.0509	873.9212	4200.1	3305.05
843.1961	875.9629	4166.15	3303.45
843.3412	878.0039	4154.25	3290.95
843.4863	880.0441	4160.55	3299.55
843.6315	882.0837	4175.95	3312.75
843.7766	884.1226	4207.05	3341.3
843.9218	886.1609	4200	3337.2
844.0669	888.1984	4243.65	3381.5
844.212	890.2352	4284.25	3421.7
844.3572	892.2714	4291.55	3422.4
844.5023	894.3069	4279.85	3414.1
844.6475	896.3416	4229.4	3364.05
844.7926	898.3757	4191	3324.05
844.9377	900.4091	4174	3309.1
845.0829	902.4418	4152.85	3285.35
845.228	904.4739	4148.05	3280.85
845.3732	906.5052	4169.4	3304.8
845.5183	908.5358	4166.45	3300.85
845.6635	910.5658	4162.55	3294.25
845.8086	912.595	4107.25	3242.3
845.9538	914.6236	4077.25	3211.3
846.0989	916.6515	4045.55	3179.7
846.2441	918.6786	4030.5	3162.85
846.3892	920.7051	4007.55	3138.85
846.5344	922.7309	4006.7	3143.5
846.6795	924.756	3988.4	3121.65
846.8246	926.7804	4000.55	3132.25
846.9698	928.8041	3986.4	3119.65
847.1149	930.8272	3981.3	3112.8
847.2601	932.8495	3986.05	3117.6
847.4052	934.8711	3990.5	3120.6
847.5504	936.892	3976.2	3109.4
847.6955	938.9123	3978.95	3109.65
847.8407	940.9318	4009.45	3140.95
847.9858	942.9506	4002.85	3134.05
848.131	944.9688	3992.3	3123.8
848.2761	946.9862	3972.55	3104.8
848.4213	949.003	3937.75	3069.1
848.5664	951.019	3906.5	3036.5
848.7115	953.0344	3877.55	3007.95
848.8567	955.0491	3865.75	2994.25
849.0018	957.063	3864.6	2996.75
849.147	959.0763	3854.1	2978.7
849.2921	961.0888	3859.95	2988.25
849.4373	963.1007	3849.5	2978.05
849.5824	965.1119	3829.7	2959.65
849.7275	967.1223	3819.75	2949.3
849.8727	969.1321	3808.4	2940.55
850.0178	971.1412	3810.2	2939.9
850.1629	973.1495	3776.55	2907.4
850.3081	975.1572	3807.95	2904.05
850.4532	977.1641	3785.2	2915.35
850.5983	979.1704	3761.55	2889.35
850.7435	981.1759	3755.65	2881.75
850.8886	983.1808	3752.45	2876.8
851.0337	985.1849	3744.15	2863.25
851.1788	987.1884	3718.25	2843.35
851.324	989.1911	3734.95	2859.7
851.4691	991.1932	3721.3	2849.45
851.6142	993.1945	3710.1	2838.7
851.7593	995.1951	3697.45	2825.55
851.9045	997.1951	3701.7	2822.55
852.0496	999.1943	3676.8	2806.2
852.1947	1001.1928	3656.95	2783.5
852.3398	1003.1906	3664.7	2794.25
852.4849	1005.1877	3683.55	2808.4
852.63	1007.1841	3665.6	2793.2
852.7751	1009.1798	3689.4	2819.3
852.9202	1011.1748	3676	2804.85
853.0653	1013.1691	3647.05	2771.95
853.2104	1015.1627	3618.05	2746.1
853.3555	1017.1556	3569.95	2696.95
853.5006	1019.1477	3559.15	2682.75
853.6457	1021.1392	3526.7	2655.6
853.7908	1023.1299	3508.45	2636.05
853.9359	1025.12	3494.2	2618.75
854.081	1027.1093	3481.05	2609.95
854.2261	1029.0979	3492.15	2622.3
854.3712	1031.0859	3489.55	2617.65
854.5163	1033.0731	3497.4	2624.3
854.6613	1035.0596	3499.35	2625.4
854.8064	1037.0454	3476.75	2603.55
854.9515	1039.0304	3460.95	2589.05
855.0965	1041.0148	3438.05	2563.85
855.2416	1042.9985	3422.1	2546.45
855.3867	1044.9814	3398.25	2523.3
855.5317	1046.9636	3373.65	2496.3
855.6768	1048.9452	3373.95	2499.8
855.8219	1050.926	3384.9	2511.25
855.9669	1052.9061	3390.25	2514
856.112	1054.8855	3398.4	2522.35
856.257	1056.8642	3388.9	2512.65
856.4021	1058.8421	3380.7	2500.85
856.5471	1060.8194	3370.25	2495
856.6921	1062.7959	3355.3	2480
856.8372	1064.7717	3342.4	2466.8
856.9822	1066.7469	3328.8	2451.5
857.1272	1068.7213	3337.1	2457.05
857.2723	1070.695	3330.2	2453.6
857.4173	1072.6679	3345.95	2468.9
857.5623	1074.6402	3364.85	2489.55
857.7073	1076.6117	3382.2	2501.05
857.8523	1078.5826	3364.15	2489.35
857.9973	1080.5527	3320.65	2443.1
858.1423	1082.5221	3289.4	2411.75
858.2873	1084.4908	3257.6	2380.05
858.4323	1086.4587	3236.75	2359.65
858.5773	1088.426	3227.25	2347.7
858.7223	1090.3925	3206.45	2324.5
858.8673	1092.3584	3215.8	2341.9
859.0123	1094.3235	3207.25	2332.2
859.1573	1096.2879	3213.35	2334.55
859.3022	1098.2515	3211.95	2336.25
859.4472	1100.2145	3242.15	2365.95
859.5922	1102.1767	3245.25	2364.7
859.7371	1104.1382	3267.05	2390.5
859.8821	1106.099	3303.85	2423.35
860.027	1108.0591	3329.15	2451.05
860.172	1110.0185	3367.2	2488.45
860.3169	1111.9771	3389.05	2513.1
860.4619	1113.9351	3425.5	2547.6
860.6068	1115.8923	3454	2576.65
860.7517	1117.8488	3500.2	2621.5
860.8967	1119.8045	3479.05	2601.35
861.0416	1121.7596	3397.85	2519.4
861.1865	1123.7139	3285.55	2409.45
861.3314	1125.6675	3241.15	2363.15
861.4763	1127.6204	3225.6	2348.2
861.6212	1129.5726	3228.35	2346.85
861.7661	1131.524	3230.65	2355.8
861.911	1133.4748	3193.4	2312.4
862.0559	1135.4248	3156.95	2276.65
862.2008	1137.3741	3089.95	2210.95
862.3457	1139.3226	3067.2	2187.3
862.4905	1141.2705	3066.7	2188.8
862.6354	1143.2176	3060.45	2176.15
862.7803	1145.164	3067.35	2185.1
862.9251	1147.1097	3061.35	2182.2
863.07	1149.0546	3048.8	2167.9
863.2148	1150.9989	3021.95	2139.65
863.3597	1152.9424	2991.9	2112.9
863.5045	1154.8852	2979.4	2099.2
863.6493	1156.8272	2947.7	2068.85
863.7942	1158.7686	2963.3	2076
863.939	1160.7092	2957.2	2077.25
864.0838	1162.6491	2951.65	2070.85
864.2286	1164.5883	2954.15	2074.95
864.3734	1166.5267	2955.75	2073.8
864.5182	1168.4644	2970.55	2090.6
864.663	1170.4014	2984.9	2100.95
864.8078	1172.3377	3004.25	2125.2
864.9526	1174.2732	3032.05	2152.7
865.0974	1176.2081	3109.35	2229.35
865.2421	1178.1421	3184.05	2303.2
865.3869	1180.0755	3289.95	2411
865.5317	1182.0082	3359.55	2479.6
865.6764	1183.9401	3377.55	2495.7
865.8212	1185.8713	3295.35	2415.6
865.9659	1187.8017	3187.85	2308.4
866.1106	1189.7315	3083.9	2205.65
866.2554	1191.6605	2988.9	2110.5
866.4001	1193.5888	2946.3	2065.5
866.5448	1195.5163	2929.45	2047.75
866.6895	1197.4432	2896.65	2015
866.8342	1199.3693	2870.35	1989.45
866.9789	1201.2947	2852.95	1968.4
867.1236	1203.2193	2843.4	1960.55
867.2683	1205.1432	2819.6	1938.1
867.413	1207.0664	2824.85	1942.1
867.5576	1208.9889	2825.45	1940.35
867.7023	1210.9106	2812.7	1932.05
867.847	1212.8316	2804.15	1922.8
867.9916	1214.7519	2800.6	1911.5
868.1363	1216.6715	2804.15	1923.2
868.2809	1218.5903	2819.85	1938.1
868.4255	1220.5084	2819.35	1937.35
868.5701	1222.4257	2824.2	1940.95
868.7148	1224.3424	2825.4	1944.8
868.8594	1226.2583	2847.3	1961.55
869.004	1228.1735	2858.15	1975.75
869.1486	1230.0879	2856.6	1973.4
869.2932	1232.0016	2889.3	2009.5
869.4377	1233.9146	2913.2	2028
869.5823	1235.8269	2927.85	2047.55
869.7269	1237.7384	2924.85	2041.55
869.8715	1239.6492	2912.45	2030.95
870.016	1241.5592	2932.9	2049.35
870.1606	1243.4686	2945.55	2064.55
870.3051	1245.3772	2999	2117.95
870.4496	1247.285	3063.85	2180.3
870.5941	1249.1922	3123.65	2239.85
870.7387	1251.0986	3168.95	2287.35
870.8832	1253.0042	3216.8	2334.35
871.0277	1254.9092	3302.6	2419.9
871.1722	1256.8134	3369.4	2486
871.3167	1258.7169	3444.3	2564.85
871.4611	1260.6196	3488.8	2605.65
871.6056	1262.5216	3522.4	2640.85
871.7501	1264.4229	3519	2637.5
871.8945	1266.3234	3501.75	2620.75
872.039	1268.2232	3446.5	2562.8
872.1834	1270.1223	3390.8	2507.95
872.3278	1272.0207	3353.05	2469.65
872.4723	1273.9183	3341.5	2451.25
872.6167	1275.8151	3316.6	2433.6
872.7611	1277.7113	3338.25	2454.25
872.9055	1279.6067	3389.6	2508
873.0499	1281.5014	3504.5	2619.25
873.1943	1283.3953	3656.65	2772.5
873.3386	1285.2885	3813.15	2931
873.483	1287.181	3943.75	3057.55
873.6274	1289.0727	4018.6	3136.7
873.7717	1290.9637	3985.75	3102.15
873.9161	1292.854	3899	3013.6
874.0604	1294.7435	3773.85	2890.05
874.2047	1296.6323	3658.55	2775.55
874.349	1298.5204	3565.05	2676.8
874.4933	1300.4077	3478.1	2592.9
874.6376	1302.2943	3427.85	2542.75
874.7819	1304.1802	3392.45	2508.8
874.9262	1306.0653	3366.4	2479.55
875.0705	1307.9497	3332.95	2449.7
875.2147	1309.8333	3313.85	2429.25
875.359	1311.7162	3299.5	2415
875.5032	1313.5984	3262.15	2374.4
875.6475	1315.4798	3256.2	2355.55
875.7917	1317.3605	3240.75	2350.1
875.9359	1319.2405	3252.05	2365.15
876.0801	1321.1197	3238.75	2352.25
876.2243	1322.9982	3229.7	2341.05
876.3685	1324.876	3175	2291.45
876.5127	1326.753	3100.9	2217.55
876.6569	1328.6293	3024.05	2139.55
876.801	1330.5048	2944.4	2058.8
876.9452	1332.3796	2865.85	1981.7
877.0893	1334.2537	2826.8	1919.2
877.2335	1336.127	2761.35	1877.9
877.3776	1337.9996	2743.95	1858.65
877.5217	1339.8714	2712.5	1827.25
877.6658	1341.7426	2733.35	1806.5
877.8099	1343.6129	2678.4	1794
877.954	1345.4826	2658.6	1772.9
878.0981	1347.3515	2644.8	1758.5
878.2422	1349.2196	2639.2	1751.05
878.3862	1351.087	2628.9	1745.1
878.5303	1352.9537	2619.15	1731.8
878.6743	1354.8197	2617	1731.85
878.8184	1356.6849	2613.85	1728.5
878.9624	1358.5493	2620.5	1735.05
879.1064	1360.4131	2637.65	1753.45
879.2504	1362.276	2656.65	1771.65
879.3944	1364.1383	2695.35	1809.95
879.5384	1365.9998	2697.8	1806.15
879.6823	1367.8606	2686.5	1801.7
879.8263	1369.7206	2678.45	1793.25
879.9702	1371.5799	2676.75	1789.95
880.1142	1373.4384	2677	1793.5
880.2581	1375.2962	2658.15	1772.95
880.402	1377.1533	2599.8	1714.25
880.5459	1379.0096	2567.25	1682.1
880.6898	1380.8652	2524.2	1638.75
880.8337	1382.7201	2510.25	1623.05
880.9776	1384.5742	2477.7	1593.95
881.1215	1386.4275	2449.45	1562.3
881.2653	1388.2802	2435.75	1553.7
881.4092	1390.132	2420.2	1535.6
881.553	1391.9832	2407.05	1519.7
881.6968	1393.8336	2391	1505.25
881.8406	1395.6832	2389.5	1503.5
881.9844	1397.5322	2373.6	1488
882.1282	1399.3803	2379.15	1487.35
882.272	1401.2278	2356.55	1469.9
882.4158	1403.0745	2344.05	1457.95
882.5595	1404.9204	2322.85	1436.8
882.7033	1406.7656	2326.1	1441.45
882.847	1408.6101	2313.7	1429.2
882.9908	1410.4538	2303.35	1417.9
883.1345	1412.2968	2289.75	1404.95
883.2782	1414.139	2300.05	1414.45
883.4219	1415.9805	2297.2	1410.95
883.5656	1417.8213	2318.95	1412.4
883.7092	1419.6613	2311.55	1423.85
883.8529	1421.5006	2325.65	1439.45
883.9965	1423.3391	2360.65	1473.25
884.1402	1425.1769	2391.05	1502.45
884.2838	1427.0139	2457.4	1571.35
884.4274	1428.8502	2523.4	1634.9
884.571	1430.6858	2580.2	1693.15
884.7146	1432.5206	2602.3	1717.65
884.8582	1434.3547	2590.35	1702.8
885.0018	1436.188	2575.6	1692.65
885.1453	1438.0206	2568.8	1681.7
885.2889	1439.8524	2544.55	1659
885.4324	1441.6835	2542.7	1656.8
885.5759	1443.5139	2532.6	1644.4
885.7194	1445.3435	2543.1	1657.1
885.8629	1447.1724	2540.35	1655
886.0064	1449.0005	2537.45	1651.45
886.1499	1450.8279	2522.45	1635.5
886.2933	1452.6545	2510.45	1624.35
886.4368	1454.4804	2518.95	1633.95
886.5802	1456.3056	2520.3	1625.15
886.7237	1458.13	2484.2	1599.5
886.8671	1459.9536	2473.75	1586.9
887.0105	1461.7766	2440	1553.25
887.1539	1463.5987	2403.55	1518
887.2972	1465.4202	2364.85	1478
887.4406	1467.2409	2341.25	1454.25
887.584	1469.0608	2307.15	1421.8
887.7273	1470.88	2285.8	1397.2
887.8706	1472.6984	2262.1	1376.3
888.0139	1474.5161	2235.4	1346
888.1572	1476.3331	2213	1327.85
888.3005	1478.1493	2211.45	1326.3
888.4438	1479.9648	2195.5	1307.2
888.5871	1481.7795	2183.45	1297.9
888.7303	1483.5935	2195.45	1311.4
888.8736	1485.4067	2185.4	1299.15
889.0168	1487.2192	2195	1308.35
889.16	1489.031	2192.55	1303.05
889.3032	1490.842	2194.5	1308.3
889.4464	1492.6522	2186.45	1300.85
889.5896	1494.4618	2184.55	1295.85
889.7327	1496.2705	2182.3	1296.65
889.8759	1498.0785	2177.8	1290.45
890.019	1499.8858	2161.95	1274.95
890.1622	1501.6924	2152.9	1268
890.3053	1503.4981	2160.4	1273.55
890.4484	1505.3032	2142.2	1255.45
890.5914	1507.1075	2136.5	1249.05
890.7345	1508.911	2128.55	1241.5
890.8776	1510.7138	2133.15	1245.45
891.0206	1512.5159	2105.55	1217.55
891.1637	1514.3172	2102.95	1216.95
891.3067	1516.1178	2093.55	1207.9
891.4497	1517.9176	2096.15	1206.8
891.5927	1519.7166	2082	1196
891.7357	1521.515	2080.85	1188.05
891.8786	1523.3126	2077.3	1190.65
892.0216	1525.1094	2074	1185.3
892.1645	1526.9055	2050.1	1165.1
892.3074	1528.7008	2056.6	1169.05
892.4503	1530.4954	2045.7	1157.5
892.5932	1532.2893	2031.75	1142.55
892.7361	1534.0824	2032.75	1142.1
892.879	1535.8747	2028.35	1141.55
893.0218	1537.6663	2019.2	1131.35
893.1647	1539.4572	2013.95	1125.75
893.3075	1541.2473	2017.1	1129.6
893.4503	1543.0367	2014.15	1127.9
893.5931	1544.8253	2004.15	1114.3
893.7359	1546.6132	2008.35	1118.95
893.8787	1548.4003	2019.25	1120.5
894.0214	1550.1867	2014.65	1118.65
894.1642	1551.9723	2011.7	1118.25
894.3069	1553.7572	2019.65	1132.75
894.4496	1555.5414	2035.35	1149.2
894.5923	1557.3247	2046.3	1160.5
894.735	1559.1074	2072.6	1185.6
894.8777	1560.8893	2094.55	1209.8
895.0204	1562.6705	2138.4	1251.7
895.163	1564.4509	2158.45	1272.1
895.3056	1566.2305	2151.25	1264.05
895.4482	1568.0094	2169.55	1285.5
895.5908	1569.7876	2164.15	1278.75
895.7334	1571.565	2165.8	1279
895.876	1573.3417	2166.85	1281.1
896.0186	1575.1176	2157	1271.55
896.1611	1576.8928	2173.2	1284.55
896.3036	1578.6672	2179.95	1295.95
896.4461	1580.4409	2210.85	1327.05
896.5886	1582.2138	2227.1	1339.65
896.7311	1583.986	2262.6	1376.95
896.8736	1585.7575	2288.9	1405.05
897.0161	1587.5282	2316	1432.05
897.1585	1589.2981	2361.55	1480.1
897.3009	1591.0673	2369.55	1483.6
897.4433	1592.8358	2367.6	1482.3
897.5857	1594.6035	2378.5	1491.2
897.7281	1596.3704	2353.85	1466.5
897.8705	1598.1366	2336.35	1449.6
898.0128	1599.9021	2308.05	1420.95
898.1551	1601.6668	2282	1391.85
898.2975	1603.4308	2259.85	1372.8
898.4398	1605.194	2246.65	1357.45
898.5821	1606.9564	2259.55	1373.85
898.7243	1608.7182	2310.2	1419.9
898.8666	1610.4791	2352.9	1469.25
899.0088	1612.2394	2448.55	1563.95
899.1511	1613.9988	2539.4	1654.5
899.2933	1615.7576	2631.85	1748.9
899.4355	1617.5156	2678.65	1785.15
899.5776	1619.2728	2657.45	1771.3
899.7198	1621.0293	2604.7	1718
899.862	1622.785	2512.65	1626.35
900.0041	1624.54	2381	1495.15
900.1462	1626.2942	2272.8	1386.6
900.2883	1628.0477	2176.5	1288.55
900.4304	1629.8005	2094.75	1202.7
900.5725	1631.5525	2037.95	1152.4
900.7145	1633.3037	1988.55	1101.7
900.8566	1635.0542	1941.6	1056.05
900.9986	1636.804	1909.4	1024.1
901.1406	1638.553	1929.85	995.15
901.2826	1640.3013	1865.6	981.35
901.4245	1642.0488	1837.15	948.95
901.5665	1643.7955	1828.55	943.45
901.7085	1645.5416	1812.95	926.2
901.8504	1647.2868	1797.85	912.9
901.9923	1649.0313	1783.25	899.15
902.1342	1650.7751	1793.5	905.35
902.2761	1652.5181	1780.9	896.25
902.4179	1654.2604	1774.1	888.15
902.5598	1656.0019	1769.95	885.2
902.7016	1657.7427	1782.5	897.6
902.8434	1659.4828	1790.35	904.8
902.9852	1661.222	1811.2	925.75
903.127	1662.9606	1839.95	953.35
903.2687	1664.6984	1879.1	992.6
903.4105	1666.4354	1897.8	1009.3
903.5522	1668.1717	1888.9	1001.8
903.6939	1669.9072	1845.4	957.25
903.8356	1671.642	1810.3	922.5
903.9773	1673.3761	1762.25	876.5
904.119	1675.1094	1735.25	848.95
904.2606	1676.8419	1712.45	825.9
904.4022	1678.5737	1693.4	808.6
904.5439	1680.3048	1688.7	801.75
904.6855	1682.0351	1672.25	785.1
904.827	1683.7646	1669.45	779.4
904.9686	1685.4934	1658.85	771.75
905.1101	1687.2215	1649.55	762.15
905.2517	1688.9488	1638.2	748.85
905.3932	1690.6754	1636.05	751.35
905.5347	1692.4012	1636.8	751.75
905.6761	1694.1263	1635.95	750.9
905.8176	1695.8506	1621.75	734.45
905.9591	1697.5742	1618.5	732.35
906.1005	1699.297	1613.25	725.5
906.2419	1701.0191	1611.8	725.45
906.3833	1702.7404	1603.55	719.3
906.5246	1704.461	1596.1	707.35
906.666	1706.1808	1602.2	710.8
906.8073	1707.8999	1599	711.4
906.9487	1709.6182	1594.9	707.55
907.09	1711.3358	1586.8	701.8
907.2313	1713.0527	1583.25	699.9
907.3725	1714.7688	1588.75	698.05
907.5138	1716.4841	1579.9	691.85
907.655	1718.1987	1583.8	693.2
907.7962	1719.9126	1576.4	691.25
907.9374	1721.6257	1575.7	686.15
908.0786	1723.338	1576.85	691.45
908.2198	1725.0496	1569.7	683.15
908.3609	1726.7605	1566.75	678.8
908.502	1728.4706	1568.55	681.4
908.6431	1730.18	1566.4	680.55
908.7842	1731.8886	1560.6	674.75
908.9253	1733.5964	1568.05	676.65
909.0664	1735.3036	1558.55	671.3
909.2074	1737.0099	1557.65	671.55
909.3484	1738.7156	1550	665.95
909.4894	1740.4204	1548.15	660.05
909.6304	1742.1246	1552.45	665.9
909.7714	1743.8279	1547.1	662.7
909.9123	1745.5306	1546.55	659.7
910.0532	1747.2325	1540.85	654.4
910.1941	1748.9336	1538.15	654.6
910.335	1750.634	1529.55	640.8
910.4759	1752.3336	1539	652
910.6168	1754.0325	1534.85	650.35
910.7576	1755.7307	1533.2	646.7
910.8984	1757.4281	1531.2	645.45
911.0392	1759.1247	1532.05	637.05
911.18	1760.8206	1536.9	645.75
911.3208	1762.5158	1528.8	638.3
911.4615	1764.2102	1530.95	647.65
911.6022	1765.9039	1525.6	639.7
911.7429	1767.5968	1514.6	629.8
911.8836	1769.289	1524.6	636.7
912.0243	1770.9804	1515.05	627
912.1649	1772.6711	1518.2	632.5
912.3056	1774.361	1523.2	635
912.4462	1776.0502	1520.1	632.4
912.5868	1777.7386	1522.25	633.55
912.7274	1779.4263	1516.85	630.75
912.8679	1781.1132	1506.1	621.45
913.0084	1782.7994	1511.75	622.35
913.149	1784.4849	1503.4	617.1
913.2895	1786.1696	1509.45	617.6
913.4299	1787.8535	1500.25	613.95
913.5704	1789.5367	1503.7	618.35
913.7108	1791.2192	1503.25	617.95
913.8513	1792.9009	1518.35	606.6
913.9917	1794.5818	1496.85	610
914.132	1796.2621	1496.9	612.3
914.2724	1797.9415	1488.55	601.6
914.4128	1799.6202	1488	601.2
914.5531	1801.2982	1488.05	602.45
914.6934	1802.9755	1487.9	599.25
914.8337	1804.6519	1492.7	605.5
914.9739	1806.3277	1482.2	596.95
915.1142	1808.0027	1477.8	592.55
915.2544	1809.6769	1477.75	590.75
915.3946	1811.3504	1478.75	591.25
915.5348	1813.0231	1477.6	591.95
915.675	1814.6951	1473.85	588.55
915.8151	1816.3664	1481.2	592.05
915.9553	1818.0369	1476.45	591.35
916.0954	1819.7067	1463.05	578.65
916.2355	1821.3757	1471.65	582.35
916.3755	1823.044	1462.95	576.5
916.5156	1824.7115	1466.7	578.85
916.6556	1826.3783	1460.9	576.3
916.7956	1828.0443	1455.55	570.15
916.9356	1829.7096	1457.5	570.3
917.0756	1831.3741	1466.15	577.8
917.2155	1833.0379	1460.7	576.1
917.3555	1834.701	1457.6	570.25
917.4954	1836.3633	1463.45	578.25
917.6353	1838.0248	1458.6	571
917.7751	1839.6856	1448.1	561.5
917.915	1841.3457	1453.2	568.55
918.0548	1843.005	1443.8	558.45
918.1946	1844.6636	1451.75	565.15
918.3344	1846.3214	1447.35	560.25
918.4742	1847.9785	1450.95	564.1
918.6139	1849.6349	1447.25	560.05
918.7537	1851.2904	1457.05	562.25
918.8934	1852.9453	1445.35	558.55
919.0331	1854.5994	1448.25	558.8
919.1727	1856.2528	1448.65	555.85
919.3124	1857.9054	1436	548.6
919.452	1859.5572	1434.05	549.2
919.5916	1861.2083	1437.9	550.95
919.7312	1862.8587	1434.1	547.65
919.8708	1864.5084	1439.8	552.9
920.0103	1866.1572	1430.85	546.6
920.1498	1867.8054	1431.95	545.2
920.2893	1869.4528	1423.3	538
920.4288	1871.0994	1423.3	539.15
920.5683	1872.7453	1429.2	542.6
920.7077	1874.3905	1436.65	543.5
920.8471	1876.0349	1415.85	527.15
920.9865	1877.6786	1417.4	530.1
921.1259	1879.3215	1417.35	531.45
921.2653	1880.9637	1416.2	530.75
921.4046	1882.6051	1420.65	533.05
921.5439	1884.2458	1421	532.3
921.6832	1885.8858	1408.55	523.2
921.8225	1887.525	1422.75	534.4
921.9617	1889.1634	1408.05	521.25
922.101	1890.8011	1412.5	525.25
922.2402	1892.4381	1406.95	521.65
922.3794	1894.0743	1406.9	520.4
922.5185	1895.7098	1408.85	521.7
922.6577	1897.3446	1404	515.3
922.7968	1898.9786	1411	520.15
922.9359	1900.6118	1401.7	515.25
923.075	1902.2443	1402	515.7
923.214	1903.8761	1397.1	512.25
923.3531	1905.5071	1395.55	508.3
923.4921	1907.1374	1394.9	506.9
923.6311	1908.7669	1395.85	509.8
923.77	1910.3957	1394.95	507.95
923.909	1912.0237	1390.5	505.75
924.0479	1913.651	1397.2	510.85
924.1868	1915.2776	1385.2	500.95
924.3257	1916.9034	1375.3	489.75
924.4646	1918.5285	1386.15	501.85
924.6034	1920.1528	1371.5	483.9
924.7422	1921.7764	1384.8	500.05
924.881	1923.3992	1377.6	491.2
925.0198	1925.0213	1374.05	486.15
925.1586	1926.6427	1372.3	487.85
925.2973	1928.2633	1443.3	489.2
925.436	1929.8832	1373.8	486.95
925.5747	1931.5023	1367.85	481
925.7134	1933.1207	1366.2	478.35
925.852	1934.7383	1369.75	482.85
925.9906	1936.3552	1357.55	470.65
926.1292	1937.9714	1364.1	476.95
926.2678	1939.5868	1369.25	481.3
926.4064	1941.2015	1361.3	474.6
926.5449	1942.8154	1361.6	473.75
926.6834	1944.4286	1358.6	471.9
926.8219	1946.041	1374.05	463.55
926.9604	1947.6528	1354.35	462.6
927.0988	1949.2637	1361	475.25
927.2372	1950.8739	1350.65	463.05
927.3756	1952.4834	1348.65	462.1
927.514	1954.0921	1353.45	466.75
927.6523	1955.7001	1352.5	462.7
927.7907	1957.3074	1348.25	464.25
927.929	1958.9139	1342.2	456.4
928.0673	1960.5197	1349.4	463.85
928.2055	1962.1247	1338.4	452.25
928.3438	1963.729	1346.3	460.65
928.482	1965.3325	1362.2	451.15
928.6202	1966.9353	1337.5	452.65
928.7584	1968.5374	1334.2	447.2
928.8965	1970.1387	1340.4	454.2
929.0346	1971.7393	1330.4	442.8
929.1727	1973.3392	1333.9	449
929.3108	1974.9383	1330.05	446
929.4489	1976.5366	1330.6	443.15
929.5869	1978.1342	1327.05	441.35
929.7249	1979.7311	1324	438.15
929.8629	1981.3273	1334.25	449.15
930.0009	1982.9227	1331.7	445.3
930.1388	1984.5173	1329.55	443.45
930.2767	1986.1112	1322.2	436.75
930.4146	1987.7044	1319	434.85
930.5525	1989.2968	1324.05	438.2
930.6904	1990.8885	1317.25	427.8
930.8282	1992.4795	1319.4	431.85
930.966	1994.0697	1317.4	432.8
931.1038	1995.6592	1316.4	430.95
931.2415	1997.2479	1315.3	429.65
931.3793	1998.8359	1314.4	429.9
931.517	2000.4232	1308.45	424.4
931.6547	2002.0097	1310.75	427.25
931.7923	2003.5955	1312.2	425.2
931.93	2005.1805	1310.7	423.4
932.0676	2006.7648	1314.9	430.15
932.2052	2008.3484	1304.85	417.15
932.3427	2009.9312	1310.3	422.9
932.4803	2011.5133	1302.55	419.7
932.6178	2013.0946	1304.3	420.75
932.7553	2014.6752	1304.4	421
932.8928	2016.2551	1301.6	416.4
933.0302	2017.8342	1294.7	408.85
933.1676	2019.4126	1299.85	416.8
933.305	2020.9902	1295.7	413.15
933.4424	2022.5672	1295.8	408.55
933.5798	2024.1433	1306.25	415.3
933.7171	2025.7188	1294.05	408.05
933.8544	2027.2935	1295.85	412.25
933.9917	2028.8674	1291.25	406.75
934.129	2030.4406	1288.9	404.4
934.2662	2032.0131	1284.95	400.4
934.4034	2033.5849	1289.5	401.65
934.5406	2035.1559	1292.25	408.6
934.6778	2036.7261	1284.95	400.1
934.8149	2038.2957	1288.3	404.05
934.952	2039.8645	1287	404.3
935.0891	2041.4325	1289.85	401.8
935.2262	2042.9998	1284.35	400.4
935.3632	2044.5664	1284.15	396
935.5002	2046.1323	1282.25	397.5
935.6372	2047.6974	1280.65	396.35
935.7742	2049.2617	1280.05	394.15
935.9111	2050.8254	1292.35	402.65
936.048	2052.3883	1285.85	398.95
936.1849	2053.9504	1280.25	396.05
936.3218	2055.5118	1278.7	392.6
936.4586	2057.0725	1280.05	391.8
936.5955	2058.6325	1276.1	392.7
936.7323	2060.1917	1276.5	392.6
936.869	2061.7502	1278.6	390.95
937.0058	2063.3079	1272.8	389.2
937.1425	2064.8649	1279.15	391.45
937.2792	2066.4212	1272.7	386.65
937.4159	2067.9767	1272.75	388.95
937.5525	2069.5315	1269.35	387.4
937.6891	2071.0856	1272.4	386.1
937.8257	2072.6389	1275.75	389
937.9623	2074.1915	1267.95	384.4
938.0989	2075.7433	1267.7	381.65
938.2354	2077.2945	1263.05	380.85
938.3719	2078.8448	1262.55	376.85
938.5084	2080.3945	1261.8	377.2
938.6448	2081.9434	1270.35	387.4
938.7812	2083.4916	1266.15	379.95
938.9176	2085.039	1268.25	380.9
939.054	2086.5857	1264.7	379.7
939.1903	2088.1317	1266.55	380.15
939.3267	2089.677	1260.1	373.85
939.463	2091.2215	1256.85	372.6
939.5992	2092.7652	1268.6	381.5
939.7355	2094.3083	1257.65	371
939.8717	2095.8506	1256.8	372.55
940.0079	2097.3921	1259.85	373.5
940.1441	2098.933	1256.25	371.7
940.2802	2100.4731	1256.75	373.7
940.4163	2102.0124	1272.85	369.45
940.5524	2103.5511	1258.05	374.45
940.6885	2105.089	1258.45	372.15
940.8245	2106.6261	1257.15	375
940.9606	2108.1626	1259.65	374.95
941.0965	2109.6983	1285.7	371.4
941.2325	2111.2332	1255.85	368.45
941.3684	2112.7675	1253.15	365.5
941.5044	2114.301	1260.35	374.55
941.6403	2115.8337	1252.9	368.35
941.7761	2117.3657	1251.7	366.45
941.912	2118.897	1253.45	368.25
942.0478	2120.4276	1259.55	368.35
942.1835	2121.9575	1257.45	370.55
942.3193	2123.4866	1265.5	367.15
942.455	2125.0149	1248.35	359.15
942.5907	2126.5426	1249.05	365
942.7264	2128.0695	1250.4	361.35
942.8621	2129.5956	1243	357.4
942.9977	2131.1211	1246.8	357.05
943.1333	2132.6458	1242.95	358.2
943.2689	2134.1698	1239.7	354.75
943.4044	2135.693	1242	353.35
943.54	2137.2155	1245.05	358.35
943.6755	2138.7373	1243.3	357.7
943.8109	2140.2584	1237.25	351.75
943.9464	2141.7787	1242.1	351.25
944.0818	2143.2983	1236.85	353.6
944.2172	2144.8171	1233.4	350
944.3526	2146.3353	1237.65	352.7
944.4879	2147.8527	1230.7	344.75
944.6232	2149.3693	1228	342.85
944.7585	2150.8853	1237.7	352.4
944.8938	2152.4005	1229.05	343.25
945.029	2153.9149	1238.15	354.3
945.1642	2155.4287	1333.95	347.85
945.2994	2156.9417	1236.45	350.7
945.4346	2158.454	1235.85	349.35
945.5697	2159.9655	1231.35	346.65
945.7048	2161.4764	1225.2	340.75
945.8399	2162.9865	1225.2	340.1
945.9749	2164.4958	1226.05	338.95
946.1099	2166.0045	1233.85	345.05
946.2449	2167.5124	1226.75	342.65
946.3799	2169.0195	1224.95	341.9
946.5148	2170.526	1225.45	341.05
946.6498	2172.0317	1227.9	344.1
946.7846	2173.5367	1226.55	341.95
946.9195	2175.0409	1222.8	338
947.0543	2176.5445	1221.2	338
947.1891	2178.0473	1218.5	333.1
947.3239	2179.5494	1221.35	333.6
947.4587	2181.0507	1224.85	339.65
947.5934	2182.5513	1218.1	332.1
947.7281	2184.0512	1214.95	330.15
947.8628	2185.5504	1219.85	334.65
947.9974	2187.0488	1208.8	325.1
948.132	2188.5465	1212.75	327.75
948.2666	2190.0435	1213.05	327.75
948.4012	2191.5397	1210.35	325.7
948.5357	2193.0353	1212.8	328.05
948.6702	2194.5301	1210.2	321.9
948.8047	2196.0241	1212.85	328.3
948.9392	2197.5175	1211.35	326.4
949.0736	2199.0101	1213.35	324.9
949.208	2200.502	1208.8	324.4
949.3424	2201.9931	1200.85	316.55
949.4767	2203.4835	1210.7	326.25
949.611	2204.9733	1216.25	313.1
949.7453	2206.4622	1196.2	312.55
949.8796	2207.9505	1203.8	316.3
950.0138	2209.438	1198.2	316.7
950.148	2210.9248	1202.45	316.95
950.2822	2212.4109	1196.15	312.3
950.4164	2213.8962	1202.7	315.75
950.5505	2215.3809	1199.4	313.75
950.6846	2216.8648	1195.75	310.65
950.8186	2218.3479	1196.55	306.85
950.9527	2219.8304	1199.2	308.95
951.0867	2221.3121	1193.15	306.9
951.2207	2222.7931	1187.2	302.35
951.3546	2224.2733	1186.65	302.1
951.4886	2225.7529	1191.4	305.8
951.6225	2227.2317	1192.15	304.35
951.7563	2228.7098	1188.45	304.2
951.8902	2230.1872	1188.5	305.2
952.024	2231.6638	1188.05	302.65
952.1578	2233.1397	1186.25	297.8
952.2916	2234.6149	1182.05	297.65
952.4253	2236.0894	1181.55	296
952.559	2237.5632	1183.45	298.5
952.6927	2239.0362	1180.5	294.4
952.8263	2240.5085	1179.1	293.4
952.9599	2241.9801	1180.3	293.55
953.0935	2243.4509	1178.4	295.35
953.2271	2244.921	1177.5	293.45
953.3606	2246.3904	1185	294.85
953.4941	2247.8591	1179	294.25
953.6276	2249.3271	1174.55	291.3
953.7611	2250.7943	1173.3	284.65
953.8945	2252.2608	1172.6	288.25
954.0279	2253.7266	1175.45	290.7
954.1612	2255.1917	1168.05	283.05
954.2946	2256.656	1171.8	285.45
954.4279	2258.1197	1166.8	282.6
954.5612	2259.5826	1174.55	286.55
954.6944	2261.0447	1169.65	284.15
954.8276	2262.5062	1165.45	277.6
954.9608	2263.9669	1173.65	286.55
955.094	2265.4269	1166.6	283.7
955.2271	2266.8862	1170.05	287.1
955.3602	2268.3448	1159.2	275
955.4933	2269.8026	1171.15	283.2
955.6264	2271.2598	1167.5	283.2
955.7594	2272.7162	1156.15	271.95
955.8924	2274.1719	1162.45	277.3
956.0253	2275.6268	1161.4	276.4
956.1583	2277.0811	1162.85	278.85
956.2912	2278.5346	1158.6	274.25
956.4241	2279.9874	1159.3	274.3
956.5569	2281.4395	1155.75	272.4
956.6897	2282.8908	1163.7	272.5
956.8225	2284.3414	1161.35	274.05
956.9553	2285.7914	1151.7	268.3
957.088	2287.2406	1157.3	270.65
957.2207	2288.689	1153.1	265.85
957.3534	2290.1368	1155.4	268.6
957.486	2291.5838	1151.6	262.75
957.6186	2293.0302	1158	270.9
957.7512	2294.4758	1150.2	264
957.8838	2295.9206	1149.6	264.55
958.0163	2297.3648	1151.1	266.35
958.1488	2298.8082	1151.2	264.8
958.2813	2300.251	1147.6	264.3
958.4137	2301.693	1148.6	262.35
958.5461	2303.1343	1152.2	267.4
958.6785	2304.5748	1149.45	264.05
958.8108	2306.0147	1145.9	259.1
958.9432	2307.4538	1146.35	259.15
959.0754	2308.8922	1142.95	260.3
959.2077	2310.3299	1136.2	253.15
959.3399	2311.7669	1141.4	257.3
959.4721	2313.2031	1146.05	259.4
959.6043	2314.6387	1141.25	256.7
959.7365	2316.0735	1138.7	251.95
959.8686	2317.5076	1143.6	256.75
960.0006	2318.941	1137.95	252.5
960.1327	2320.3737	1139.8	254.05
960.2647	2321.8056	1137.95	250.95
960.3967	2323.2369	1136.85	251.15
960.5287	2324.6674	1140.85	252.5
960.6606	2326.0972	1140.3	251.95
960.7925	2327.5263	1139.6	254.35
960.9244	2328.9547	1141.6	256.35
961.0562	2330.3823	1136.6	250.55
961.1881	2331.8092	1139.85	251.35
961.3198	2333.2355	1138.6	252.85
961.4516	2334.661	1130.6	245.55
961.5833	2336.0858	1130.3	242.45
961.715	2337.5098	1126.2	241.6
961.8467	2338.9332	1125.5	240.5
961.9783	2340.3558	1131.65	243.7
962.1099	2341.7778	1128.7	243.5
962.2415	2343.199	1124.9	239.45
962.373	2344.6195	1127	242
962.5045	2346.0393	1126.15	242.35
962.636	2347.4583	1129.15	244.3
962.7675	2348.8767	1123.4	236.5
962.8989	2350.2943	1125.65	239.75
963.0303	2351.7113	1127.9	240.5
963.1617	2353.1275	1126.45	239.55
963.293	2354.543	1144.25	235.75
963.4243	2355.9578	1122.75	234.8
963.5556	2357.3718	1123.05	239.45
963.6868	2358.7852	1123.35	234.9
963.818	2360.1978	1117.85	230.35
963.9492	2361.6098	1118.2	232.9
964.0803	2363.021	1124.7	234.6
964.2114	2364.4315	1119.75	234
964.3425	2365.8413	1123.35	231.7
964.4736	2367.2504	1113.85	228.8
964.6046	2368.6587	1112.95	227.65
964.7356	2370.0664	1111.65	226.55
964.8666	2371.4733	1113.25	228.35
964.9975	2372.8795	1112.7	227.4
965.1284	2374.285	1115.85	230.45
965.2593	2375.6899	1112.55	227.75
965.3901	2377.0939	1104.4	219.4
965.5209	2378.4973	1112.45	228.5
965.6517	2379.9	1108.8	224.7
965.7825	2381.3019	1105.8	219.6
965.9132	2382.7032	1106	223.1
966.0439	2384.1037	1109.05	225.55
966.1745	2385.5035	1103	218.4
966.3051	2386.9027	1106.8	220.1
966.4357	2388.3011	1106.15	216.3
966.5663	2389.6987	1102.35	216.9
966.6968	2391.0957	1100.2	215.45
966.8273	2392.492	1105.65	221.45
966.9578	2393.8876	1103.05	216.85
967.0882	2395.2824	1103.35	218.2
967.2186	2396.6765	1095.75	211.75
967.349	2398.07	1091.6	205.45
967.4793	2399.4627	1099.55	210.3
967.6097	2400.8547	1099.65	212.45
967.7399	2402.246	1101.2	208.1
967.8702	2403.6366	1098.65	211.95
968.0004	2405.0265	1094.2	208.6
968.1306	2406.4156	1097.25	208.75
968.2607	2407.8041	1094.45	205.25
968.3909	2409.1918	1096.8	207.65
968.521	2410.5789	1089.05	202.95
968.651	2411.9652	1092.2	202.25
968.781	2413.3508	1089.8	202.9
968.911	2414.7358	1092.7	207
969.041	2416.12	1090.2	205.65
969.1709	2417.5035	1086.5	200.55
969.3008	2418.8863	1082.9	195.45
969.4307	2420.2684	1088.3	202.55
969.5606	2421.6497	1087.25	199.6
969.6904	2423.0304	1083.05	197.05
969.8201	2424.4104	1081.4	195.4
969.9499	2425.7896	1087.55	200.4
970.0796	2427.1682	1084.8	198.1
970.2093	2428.546	1083.5	197.1
970.3389	2429.9232	1084.3	195
970.4685	2431.2996	1076.15	192.4
970.5981	2432.6753	1077.15	191.55
970.7277	2434.0503	1078.85	192.3
970.8572	2435.4246	1081.7	196.95
970.9867	2436.7982	1082.55	194.25
971.1161	2438.1711	1075.7	189.65
971.2456	2439.5433	1076.3	188.15
971.375	2440.9148	1082.5	190.75
971.5043	2442.2856	1075.15	190.45
971.6336	2443.6557	1079.6	192
971.7629	2445.025	1074.1	189
971.8922	2446.3937	1074.25	188.95
972.0214	2447.7617	1072.55	186.1
972.1506	2449.1289	1071	183.95
972.2798	2450.4955	1078.4	188.35
972.4089	2451.8613	1068.55	184.15
972.538	2453.2265	1073.1	186.5
972.6671	2454.5909	1069.5	182.7
972.7961	2455.9546	1070.8	186.9
972.9251	2457.3177	1068.55	184.1
973.0541	2458.68	1071.4	181.45
973.1831	2460.0416	1071.15	186.9
973.312	2461.4025	1072.35	183.1
973.4408	2462.7627	1079.25	182.05
973.5697	2464.1222	1066.45	180.1
973.6985	2465.4811	1067.9	181.8
973.8273	2466.8392	1065.65	180.5
973.956	2468.1966	1067.55	180.05
974.0847	2469.5533	1067.7	181
974.2134	2470.9093	1065.25	177.8
974.3421	2472.2645	1067.65	180.9
974.4707	2473.6191	1062.25	177.3
974.5993	2474.973	1065.65	180.7
974.7278	2476.3262	1063.9	175.7
974.8563	2477.6787	1056.85	172.25
974.9848	2479.0305	1059.6	173.7
975.1132	2480.3816	1066.75	179.2
975.2417	2481.7319	1059.95	174.8
975.37	2483.0816	1060.95	173.3
975.4984	2484.4306	1057.4	169.8
975.6267	2485.7789	1057.3	171.5
975.755	2487.1264	1057.45	171.7
975.8833	2488.4733	1050.8	165.8
976.0115	2489.8195	1064.75	171.95
976.1397	2491.165	1062.95	173.6
976.2678	2492.5097	1056.75	169.25
976.3959	2493.8538	1051.85	165.15
976.524	2495.1972	1056.1	171.4
976.6521	2496.5398	1053.25	166.9
976.7801	2497.8818	1055	166.75
976.9081	2499.2231	1051.15	163.95
977.036	2500.5637	1054.3	166.9
977.164	2501.9035	1051.2	163.95
977.2918	2503.2427	1053.8	164.25
977.4197	2504.5812	1050.55	165.2
977.5475	2505.919	1049.5	163.15
977.6753	2507.256	1049.4	163
977.8031	2508.5924	1050.6	164.25
977.9308	2509.9281	1053.5	162.45
978.0585	2511.2631	1042.45	157.6
978.1861	2512.5974	1044.95	159.7
978.3137	2513.9309	1045.7	160.95
978.4413	2515.2638	1071.35	162.05
978.5689	2516.596	1047.65	161.35
978.6964	2517.9275	1045.8	159.55
978.8239	2519.2583	1048.45	159.35
978.9513	2520.5884	1046.9	159.5
979.0788	2521.9178	1042.05	154.95
979.2062	2523.2465	1040.85	156.3
979.3335	2524.5745	1038	153.25
979.4608	2525.9018	1036.55	149.55
979.5881	2527.2284	1043.7	158.5
979.7154	2528.5543	1042.3	157.5
979.8426	2529.8796	1045.45	158.35
979.9698	2531.2041	1039.6	153.5
980.0969	2532.5279	1036.5	150.85
980.224	2533.851	1041.05	154.75
980.3511	2535.1735	1035.7	149.65
980.4781	2536.4952	1035.45	147.5
980.6052	2537.8163	1037.85	151.65
980.7321	2539.1366	1036.5	150.8
980.8591	2540.4562	1035.75	148.45
980.986	2541.7752	1033.35	149.55
981.1129	2543.0935	1032.8	146.85
981.2397	2544.411	1037.25	150.75
981.3665	2545.7279	1032.65	147.9
981.4933	2547.0441	1031.2	144.1
981.62	2548.3596	1034.35	145.9
981.7467	2549.6744	1034.1	146.8
981.8734	2550.9885	1043.3	151.05
982.0001	2552.3019	1028.3	143.75
982.1267	2553.6146	1031.9	145.3
982.2532	2554.9266	1033.15	146.75
982.3798	2556.2379	1029.5	141.2
982.5063	2557.5485	1030.3	147.7
982.6327	2558.8585	1038.1	146.2
982.7592	2560.1677	1033.05	143.3
982.8856	2561.4762	1030.2	143.9
983.0119	2562.7841	1031.4	142
983.1383	2564.0913	1024.65	140.05
983.2646	2565.3977	1025.95	140.6
983.3908	2566.7035	1028.2	141
983.517	2568.0086	1032.9	146.05
983.6432	2569.313	1029.25	142.8
983.7694	2570.6167	1032.5	144.25
983.8955	2571.9197	1028.8	144.45
984.0216	2573.222	1029.2	139
984.1476	2574.5236	1028.3	142.05
984.2737	2575.8246	1026.35	137.9
984.3996	2577.1248	1028.75	139.8
984.5256	2578.4244	1027.1	143.15
984.6515	2579.7232	1022.35	136.8
984.7774	2581.0214	1056.2	142.9
984.9032	2582.3189	1026.15	141.3
985.029	2583.6157	1037.85	137.25
985.1548	2584.9118	1023.75	138.75
985.2806	2586.2072	1021.5	134.6
985.4063	2587.5019	1022.8	137.3
985.5319	2588.7959	1023.5	137.85
985.6576	2590.0893	1027.55	141.65
985.7832	2591.3819	1024.3	140.6
985.9087	2592.6739	1020.9	135.45
986.0343	2593.9652	1022.95	136.45
986.1597	2595.2557	1021.05	134.15
986.2852	2596.5456	1028.85	140.85
986.4106	2597.8348	1025.9	140.9
986.536	2599.1234	1022.9	138.65
986.6614	2600.4112	1018.85	132.85
986.7867	2601.6983	1024.5	137
986.912	2602.9848	1017.75	131.9
987.0372	2604.2705	1027.35	136.3
987.1624	2605.5556	1022.1	136.55
987.2876	2606.84	1014.85	128.9
987.4128	2608.1237	1014.85	127.85
987.5379	2609.4067	1015.65	128.45
987.6629	2610.689	1026.45	134.3
987.788	2611.9707	1023.25	132.05
987.913	2613.2516	1021.2	130.5
988.0379	2614.5319	1014.4	129.7
988.1629	2615.8115	1016.35	131
988.2878	2617.0903	1013.65	127.15
988.4126	2618.3685	1009.85	123.7
988.5375	2619.6461	1013.15	126.05
988.6622	2620.9229	1010.4	124.2
988.787	2622.199	1009.75	121.5
988.9117	2623.4745	1012.5	127.05
989.0364	2624.7493	1014	128
989.161	2626.0234	1010.2	126.9
989.2857	2627.2968	1008.5	123.2
989.4102	2628.5695	1007.15	119.8
989.5348	2629.8415	1008.75	123.75
989.6593	2631.1128	1011.6	123.7
989.7837	2632.3835	1008.4	122.35
989.9082	2633.6535	1003.9	118
990.0326	2634.9228	1007.2	122.65
990.1569	2636.1914	1006.25	121.05
990.2812	2637.4593	1012.65	121.8
990.4055	2638.7265	1003.95	118.8
990.5298	2639.9931	1002.85	117.85
990.654	2641.259	1007.55	120.6
990.7782	2642.5242	1005.05	119.2
990.9023	2643.7887	1001.1	114
991.0264	2645.0525	1003.6	118.6
991.1505	2646.3156	1016.85	117.85
991.2745	2647.5781	1000.7	114.45
991.3985	2648.8398	1002.3	118.65
991.5225	2650.1009	1004.15	109.55
991.6464	2651.3613	1005.1	118.9
991.7703	2652.6211	999.2	113.15
991.8942	2653.8801	999.3	114.9
992.018	2655.1385	1006.65	116.9
992.1418	2656.3961	1000.2	114.15
992.2655	2657.6531	997	111.15
992.3892	2658.9094	1001.15	116
992.5129	2660.1651	994.6	109.5
992.6366	2661.42	997.95	111.75
992.7602	2662.6743	1001.35	116.4
992.8837	2663.9279	995.15	110.45
993.0073	2665.1808	999.9	115.1
993.1307	2666.433	997.1	111
993.2542	2667.6846	996.25	110.1
993.3776	2668.9354	999.3	110.7
993.501	2670.1856	995.9	110.45
993.6244	2671.4351	1000.1	116
993.7477	2672.6839	1002.25	115.3
993.8709	2673.9321	995.35	111.1
993.9942	2675.1795	995.65	111.3
994.1174	2676.4263	997.65	112.1
994.2405	2677.6724	993.2	108.7
994.3637	2678.9179	997.15	109.4
994.4868	2680.1626	996.2	111.65
994.6098	2681.4067	996.75	110.5
994.7328	2682.6501	992.8	106.35
994.8558	2683.8928	995.7	110.5
994.9788	2685.1348	993.3	108.4
995.1017	2686.3761	991.9	108.1
995.2245	2687.6168	991.75	105.4
995.3474	2688.8568	992.35	106.8
995.4702	2690.0961	988.6	105.75
995.5929	2691.3348	987.6	101.35
995.7156	2692.5727	988	101.45
995.8383	2693.81	988.45	103.35
995.961	2695.0466	986.55	101.35
996.0836	2696.2826	988.05	100.05
996.2062	2697.5178	991.6	103.7
996.3287	2698.7524	987.85	102.15
996.4512	2699.9863	989.2	102.9
996.5737	2701.2195	986.15	102.6
996.6961	2702.452	986.6	98.25
996.8185	2703.6839	989.5	103.2
996.9408	2704.9151	986.4	100.8
997.0631	2706.1456	986.7	102.6
997.1854	2707.3755	991.35	105.5
997.3077	2708.6046	990.85	103.9
997.4299	2709.8331	992.55	107.85
997.552	2711.0609	985.65	98.5
997.6742	2712.2881	988.15	102.9
997.7963	2713.5145	990.9	102.65
997.9183	2714.7403	990.65	105.7
998.0403	2715.9654	990.5	104.3
998.1623	2717.1899	1003.05	102.65
998.2842	2718.4136	991.8	105.9
998.4062	2719.6367	990.4	105.25
998.528	2720.8591	996.65	103.05
998.6498	2722.0809	993.05	106.7
998.7716	2723.3019	993	104.9
998.8934	2724.5223	992.7	105.95
999.0151	2725.7421	995	109.3
999.1368	2726.9611	989.65	102.6
999.2584	2728.1795	990.6	101.45
999.38	2729.3972	991.9	106.3
999.5016	2730.6142	990.85	98
999.6231	2731.8306	985.55	97.1
999.7446	2733.0462	986.1	98.65
999.8661	2734.2612	986.4	95.75
999.9875	2735.4756	984.4	95.7
1000.1089	2736.6892	981.4	93.15
1000.2302	2737.9022	981.75	97.1
1000.3515	2739.1145	981.25	97.1
1000.4728	2740.3262	990.1	95.9
1000.594	2741.5372	979.3	95.1
1000.7152	2742.7475	980.75	95.65
1000.8363	2743.9571	979.8	93.1
1000.9575	2745.1661	982.15	90.55
1001.0785	2746.3744	976.7	91.2
1001.1996	2747.582	976.3	94.4
1001.3206	2748.7889	976.05	88.5
1001.4415	2749.9952	978.1	94.25
1001.5625	2751.2008	974.35	88.2
1001.6833	2752.4057	975.7	89.45
1001.8042	2753.61	974.35	89.15
1001.925	2754.8136	972	85.15
1002.0458	2756.0165	969.8	85.4
1002.1665	2757.2188	971.1	85.4
1002.2872	2758.4204	972.05	87
1002.4078	2759.6213	974.6	87.15
1002.5285	2760.8215	975.6	84.85
1002.649	2762.0211	974.4	87.6
1002.7696	2763.22	973.55	84.9
1002.8901	2764.4182	972.7	86.15
1003.0106	2765.6158	966.75	80.55
1003.131	2766.8127	967.55	81.35
1003.2514	2768.009	968.95	83.4
1003.3717	2769.2045	968.9	81.4
1003.492	2770.3994	970.5	83.2
1003.6123	2771.5936	964.95	78.15
1003.7325	2772.7872	961.2	76.5
1003.8527	2773.9801	965.8	77.2
1003.9729	2775.1723	981	80.3
1004.093	2776.3639	965.3	81
1004.2131	2777.5548	967.35	79.4
1004.3331	2778.745	964.5	75.8
1004.4531	2779.9346	961.45	78.55
1004.5731	2781.1235	966.2	80.85
1004.693	2782.3117	962.35	77.8
1004.8129	2783.4992	964.55	79.6
1004.9328	2784.6861	961.8	77.85
1005.0526	2785.8723	967.35	79.7
1005.1723	2787.0579	962.55	75.95
1005.2921	2788.2428	962.25	78.35
1005.4118	2789.427	959.5	75.55
1005.5314	2790.6106	959.9	76.1
1005.651	2791.7935	963.95	78.55
1005.7706	2792.9757	963	76.8
1005.8902	2794.1573	962.8	75.05
1006.0097	2795.3382	962.5	78
1006.1291	2796.5184	960.45	76.95
1006.2485	2797.698	965.2	80.1
1006.3679	2798.8769	964.4	75.7
1006.4873	2800.0551	964.25	79.35
1006.6066	2801.2327	966	78.7
1006.7258	2802.4096	961.9	78.15
1006.8451	2803.5859	965.05	79.25
1006.9642	2804.7615	964.65	77.5
1007.0834	2805.9364	962.9	80.65
1007.2025	2807.1106	964.8	81.75
1007.3216	2808.2842	964.05	77.15
1007.4406	2809.4572	963.9	78.5
1007.5596	2810.6294	965.9	79.45
1007.6785	2811.801	960.85	78.05
1007.7975	2812.972	966.7	82.5
1007.9163	2814.1423	971.15	86.9
1008.0352	2815.3119	969.7	83.4
1008.154	2816.4808	970	84.7
1008.2727	2817.6491	976.3	89.05
1008.3914	2818.8167	977.05	92.2
1008.5101	2819.9837	984.15	93.55
1008.6288	2821.15	982.9	97.85
1008.7474	2822.3157	987.85	103.65
1008.8659	2823.4807	993.6	109.05
1008.9844	2824.645	1007.85	123.05
1009.1029	2825.8086	1004.85	120.9
1009.2214	2826.9716	1012.85	126.9
1009.3398	2828.134	1021.2	134.4
1009.4581	2829.2957	1025.45	139.75
1009.5764	2830.4567	1031.5	147.6
1009.6947	2831.617	1034.55	148
1009.813	2832.7767	1039.3	155.1
1009.9312	2833.9358	1036.45	151.9
1010.0493	2835.0941	1037.15	151.7
1010.1675	2836.2519	1034.75	151.05
1010.2855	2837.4089	1028.35	141.75
1010.4036	2838.5653	1027.15	143
1010.5216	2839.7211	1022.25	138
1010.6396	2840.8761	1027.45	141.15
1010.7575	2842.0306	1023	139.2
1010.8754	2843.1843	1021.9	137
1010.9932	2844.3374	1022.6	139.3
1011.111	2845.4899	1026.5	140.85
1011.2288	2846.6417	1024.85	140.4
1011.3465	2847.7928	1027.05	145.75
1011.4642	2848.9433	1032.6	147.75
1011.5818	2850.0931	1026.95	141.75
1011.6995	2851.2422	1031	144.3
1011.817	2852.3907	1026.95	140.45
1011.9345	2853.5385	1034.05	147.6
1012.052	2854.6857	1038.25	143.2
1012.1695	2855.8323	1029.55	145
1012.2869	2856.9781	1030.2	145.35
1012.4042	2858.1233	1035.7	150.9
1012.5216	2859.2679	1039.9	155.25
1012.6389	2860.4118	1046.4	161
1012.7561	2861.555	1047.95	160.55
1012.8733	2862.6976	1051.5	164.65
1012.9905	2863.8395	1048.95	164.6
1013.1076	2864.9808	1053.8	167.35
1013.2247	2866.1214	1048.5	165.4
1013.3417	2867.2614	1053.85	167.05
1013.4587	2868.4007	1054.95	168.6
1013.5757	2869.5393	1055.35	167.25
1013.6926	2870.6773	1059.35	171.4
1013.8095	2871.8146	1066.4	177.7
1013.9263	2872.9513	1065.85	179.9
1014.0431	2874.0874	1063.6	178.45
1014.1599	2875.2227	1071.05	186.15
1014.2766	2876.3574	1064.6	180.65
1014.3933	2877.4915	1068.65	184.25
1014.51	2878.6249	1070.3	186.5
1014.6266	2879.7577	1071.5	184.9
1014.7431	2880.8898	1083.65	189.4
1014.8596	2882.0212	1075.4	192.95
1014.9761	2883.152	1077.3	194
1015.0925	2884.2821	1081.35	198.8
1015.2089	2885.4116	1083.15	200.55
1015.3253	2886.5405	1082.1	196.7
1015.4416	2887.6686	1088	200.05
1015.5579	2888.7962	1086.45	202.85
1015.6741	2889.923	1088.65	204.7
1015.7903	2891.0493	1079.3	195.9
1015.9065	2892.1748	1082.85	199.45
1016.0226	2893.2997	1083.05	197.95
1016.1387	2894.424	1078.8	193.5
1016.2547	2895.5476	1078	195.35
1016.3707	2896.6706	1080.9	196.35
1016.4866	2897.7929	1082.45	196.35
1016.6025	2898.9145	1078.05	194.8
1016.7184	2900.0355	1084.1	199.45
1016.8342	2901.1559	1082.7	196.1
1016.95	2902.2756	1086.1	199.1
1017.0658	2903.3946	1084	200
1017.1815	2904.513	1084.75	196.8
1017.2971	2905.6308	1078.05	194.2
1017.4127	2906.7479	1080.4	195.05
1017.5283	2907.8643	1075.9	191.2
1017.6439	2908.9801	1076.35	191.5
1017.7594	2910.0953	1074.2	188.45
1017.8748	2911.2098	1076.9	188.35
1017.9902	2912.3236	1083.65	191.95
1018.1056	2913.4368	1080.05	192.6
1018.2209	2914.5494	1073.8	188.5
1018.3362	2915.6613	1077.5	189.35
1018.4515	2916.7725	1073.25	186.25
1018.5667	2917.8831	1068.95	184.25
1018.6819	2918.9931	1070.3	184.3
1018.797	2920.1024	1060.35	174.9
1018.9121	2921.211	1061.45	178
1019.0271	2922.319	1060.8	175.9
1019.1421	2923.4264	1056.25	173.6
1019.2571	2924.5331	1058.1	174.6
1019.372	2925.6391	1056.75	171.45
1019.4869	2926.7445	1055.7	172.15
1019.6017	2927.8493	1056.3	172.3
1019.7165	2928.9534	1058.8	172.95
1019.8313	2930.0569	1061.7	174.1
1019.946	2931.1597	1059.5	173.4
1020.0606	2932.2619	1061.25	178.85
1020.1753	2933.3634	1056.45	171.05
1020.2899	2934.4643	1067.45	177.1
1020.4044	2935.5645	1069.25	177.55
1020.5189	2936.6641	1068.75	179.1
1020.6334	2937.763	1065.7	182.5
1020.7478	2938.8613	1062.75	176.65
1020.8622	2939.959	1067.5	176.75
1020.9765	2941.056	1057.5	171.6
1021.0908	2942.1523	1055.05	168.95
1021.2051	2943.248	1048.05	163.55
1021.3193	2944.3431	1039.3	154.95
1021.4334	2945.4375	1035.5	149.75
1021.5476	2946.5313	1027.7	143.5
1021.6617	2947.6244	1020.7	136.85
1021.7757	2948.7169	1013.75	129.45
1021.8897	2949.8087	1013.5	129.55
1022.0037	2950.8999	1006.85	119.8
1022.1176	2951.9904	1000.2	115.05
1022.2315	2953.0803	993.15	107.15
1022.3453	2954.1696	991.9	106.25
1022.4591	2955.2582	987.5	103
1022.5728	2956.3462	986.3	100.85
1022.6865	2957.4335	981.8	96.4
1022.8002	2958.5202	984.75	100.2
1022.9138	2959.6062	980	93.6
1023.0274	2960.6916	979.45	96.25
1023.141	2961.7764	985.15	98.75
1023.2545	2962.8605	982.4	97.5
1023.3679	2963.9439	984.4	100
1023.4813	2965.0267	983.25	98.05
1023.5947	2966.1089	1003.8	96.4
1023.708	2967.1905	982	97
1023.8213	2968.2714	980.1	95.8
1023.9346	2969.3516	978	93.7
1024.0478	2970.4312	987.5	92.2
1024.1609	2971.5102	978.75	92.8
1024.274	2972.5885	980.6	96.3
1024.3871	2973.6662	983.3	94
1024.5002	2974.7432	978.45	94.15
1024.6132	2975.8196	976.95	92.75
1024.7261	2976.8954	976.15	91.9
1024.839	2977.9705	977.25	94.55
1024.9519	2979.045	977.95	93.55
1025.0647	2980.1188	978.45	94.4
1025.1775	2981.192	975.5	93.3
1025.2902	2982.2645	974	86.55
1025.4029	2983.3364	975.95	91
1025.5156	2984.4077	970.5	87.45
1025.6282	2985.4783	971.2	81.2
1025.7407	2986.5483	963.7	78.95
1025.8532	2987.6177	968.1	83.45
1025.9657	2988.6864	966.95	83.65
1026.0782	2989.7545	962.75	77
1026.1906	2990.8219	961.05	76.7
1026.3029	2991.8887	958.25	70.8
1026.4152	2992.9548	956.35	71.4
1026.5275	2994.0204	953.9	70.7
1026.6397	2995.0852	947.25	64.1
1026.7519	2996.1495	948.4	62.4
1026.864	2997.2131	946.9	62.8
1026.9761	2998.276	946.5	63.15
1027.0882	2999.3383	947	62.7
1027.2002	3000.4	942.55	57.05
1027.3122	3001.4611	939.35	53.8
1027.4241	3002.5215	938.25	53.8
1027.536	3003.5812	935.65	50.9
1027.6478	3004.6404	934.15	51.35
1027.7596	3005.6989	935.65	50.05
1027.8714	3006.7567	933.25	47.85
1027.9831	3007.8139	949.5	45.25
1028.0947	3008.8705	931.1	45.15
1028.2064	3009.9264	934.7	46.7
1028.3179	3010.9818	930.9	45.4
1028.4295	3012.0364	929	43.75
1028.541	3013.0905	928.85	44.85
1028.6524	3014.1439	925.95	41.45
1028.7638	3015.1966	925.45	41.65
1028.8752	3016.2487	928.5	43.55
1028.9865	3017.3002	931.85	44.2
1029.0978	3018.3511	924.8	42
1029.209	3019.4013	926.8	42.9
1029.3202	3020.4509	924.6	39.6
1029.4314	3021.4998	924.6	38.95
1029.5425	3022.5481	925.7	40.9
1029.6535	3023.5958	922.7	38.65
1029.7645	3024.6428	924.55	40.55
1029.8755	3025.6892	924.85	41.2
1029.9864	3026.735	921.9	40.7
1030.0973	3027.7802	926.65	41.1
1030.2082	3028.8247	924.2	40.3
1030.319	3029.8685	923.1	38
1030.4297	3030.9118	923.2	38.35
1030.5404	3031.9544	924.95	41.9
1030.6511	3032.9963	925.45	39.3
1030.7617	3034.0376	922.4	39.45
1030.8723	3035.0783	928.25	39.55
1030.9829	3036.1184	925.1	40.4
1031.0934	3037.1578	921.15	36.2
1031.2038	3038.1966	924.95	40.05
1031.3142	3039.2348	925.05	40.65
1031.4246	3040.2723	930.05	38.05
1031.5349	3041.3092	920.15	37.15
1031.6452	3042.3455	924.05	40.05
1031.7554	3043.3811	922.35	36.15
1031.8656	3044.4161	925.2	40.15
1031.9758	3045.4505	923.65	38.95
1032.0859	3046.4842	922.1	36.9
1032.1959	3047.5173	921.8	38.2
1032.3059	3048.5498	921.55	36.7
1032.4159	3049.5816	923	39
1032.5258	3050.6128	926.3	39.85
1032.6357	3051.6434	924.25	38.3
1032.7455	3052.6734	927.85	42.75
1032.8553	3053.7027	922.4	36.4
1032.9651	3054.7314	923.5	39.15
1033.0748	3055.7594	919.75	34.2
1033.1845	3056.7868	921.75	36.6
1033.2941	3057.8136	925.35	41.6
1033.4037	3058.8398	922.5	40.25
1033.5132	3059.8653	926	41.55
1033.6227	3060.8902	923.1	40.4
1033.7321	3061.9145	924.7	40.15
1033.8415	3062.9381	924.4	39.7
1033.9509	3063.9612	936.65	37.65
1034.0602	3064.9835	927.35	42.6
1034.1694	3066.0053	926.9	40.45
1034.2787	3067.0264	921.6	37.9
1034.3878	3068.0469	924.2	39.8
1034.497	3069.0668	925.15	40.05
1034.6061	3070.086	923.65	40.05
1034.7151	3071.1046	927.4	39.95
1034.8241	3072.1226	924.05	38.35
1034.9331	3073.1399	924	41.2
1035.042	3074.1567	924.3	38.3
1035.1508	3075.1727	923.65	37.9
1035.2597	3076.1882	919.95	35.5
1035.3684	3077.203	921.2	36.55
1035.4772	3078.2173	923.05	37.6
1035.5859	3079.2308	920.55	33.3
1035.6945	3080.2438	919.95	32.8
1035.8031	3081.2561	918.25	34.6
1035.9117	3082.2678	918.9	34.3
1036.0202	3083.2789	919.65	34.75
1036.1286	3084.2893	915.3	30.55
1036.2371	3085.2991	915.6	31.55
1036.3454	3086.3083	921.55	33.1
1036.4538	3087.3169	918.1	31.7
1036.562	3088.3248	917.2	32.25
1036.6703	3089.3321	915.3	28.5
1036.7785	3090.3388	913.85	31.9
1036.8866	3091.3449	913.15	28.2
1036.9948	3092.3503	912.8	26.45
1037.1028	3093.3551	912.7	28.25
1037.2108	3094.3593	914	30
1037.3188	3095.3629	911.4	28
1037.4267	3096.3658	913.7	29.25
1037.5346	3097.3681	913.15	28.6
1037.6425	3098.3698	914.05	27.45
1037.7503	3099.3708	919.15	28.5
1037.858	3100.3713	911.05	26.55
1037.9657	3101.3711	913.15	30.05
1038.0734	3102.3702	1045.9	28
1038.181	3103.3688	914.7	28.35
1038.2886	3104.3667	911.6	30.75
1038.3961	3105.364	909.95	27
1038.5036	3106.3607	911.65	24.95
1038.611	3107.3568	911.4	25.85
1038.7184	3108.3522	911.55	27.6
1038.8257	3109.347	911.45	26.65
1038.933	3110.3412	913.1	25.6
1039.0403	3111.3348	911.1	26.15
1039.1475	3112.3277	909.25	25.6
1039.2547	3113.32	906.6	22.85
1039.3618	3114.3117	908.7	24.75
1039.4689	3115.3028	907.95	24.4
1039.5759	3116.2932	910	24.2
1039.6829	3117.2831	914.55	24.45
1039.7898	3118.2723	906.9	24.45
1039.8967	3119.2608	909.55	26.35
1040.0035	3120.2488	909.1	24.85
1040.1103	3121.2361	908.6	23.85
1040.2171	3122.2229	908	23.4
1040.3238	3123.209	907.9	22.85
1040.4305	3124.1944	905.1	22
1040.5371	3125.1793	907.8	22.65
1040.6437	3126.1635	905.9	22.15
1040.7502	3127.1471	906.35	23.05
1040.8567	3128.1301	905.3	21.8
1040.9631	3129.1125	905.25	20.65
1041.0695	3130.0942	905.1	18.9
1041.1759	3131.0753	915	20.8
1041.2822	3132.0558	909.95	22.8
1041.3884	3133.0357	907.9	24.1
1041.4946	3134.015	907.75	22.85
1041.6008	3134.9936	906.6	22.5
1041.7069	3135.9716	925	22.7
1041.813	3136.949	907.4	23.7
1041.919	3137.9258	921.9	17.5
1042.025	3138.902	910.3	21.6
1042.1309	3139.8775	903.8	18
1042.2368	3140.8524	905.05	21.35
1042.3427	3141.8267	906.6	19
1042.4485	3142.8004	905.8	23.35
1042.5542	3143.7735	910.6	20.7
1042.6599	3144.7459	907.5	21.55
1042.7656	3145.7178	904.65	18.95
1042.8712	3146.689	902.15	18.15
1042.9768	3147.6596	903.8	17.65
1043.0823	3148.6295	904.85	19.8
1043.1878	3149.5989	904.05	20.5
1043.2932	3150.5676	901.95	19.55
1043.3986	3151.5357	900.65	18.3
1043.5039	3152.5032	902.55	17.1
1043.6092	3153.4701	900.85	18
1043.7145	3154.4364	905.45	16.5
1043.8197	3155.402	901.5	16.1
1043.9248	3156.367	902	15.1
1044.03	3157.3315	938.85	18.65
1044.135	3158.2952	902.55	17.15
1044.24	3159.2584	903.2	20.1
1044.345	3160.221	904.55	20
1044.4499	3161.1829	902.9	19.5
1044.5548	3162.1442	903.05	18.75
1044.6596	3163.105	900.85	15.9
1044.7644	3164.065	904.45	20.65
1044.8692	3165.0245	904.7	16.7
1044.9739	3165.9834	902.4	19.6
1045.0785	3166.9416	901.1	16.95
1045.1831	3167.8993	903.2	18.65
1045.2877	3168.8563	901.65	17.6
1045.3922	3169.8127	899.25	15.05
1045.4966	3170.7684	901.75	17.05
1045.6011	3171.7236	900.6	15.6
1045.7054	3172.6782	898.9	15.5
1045.8098	3173.6321	902.85	16.45
1045.914	3174.5854	904.75	15.45
1046.0183	3175.5381	902.7	18.15
1046.1224	3176.4902	899.75	15.3
1046.2266	3177.4417	900.3	17.55
1046.3307	3178.3926	900.55	17.15
1046.4347	3179.3428	898.95	16.65
1046.5387	3180.2924	901.1	17.15
1046.6427	3181.2415	900.15	15.4
1046.7466	3182.1899	902	14.7
1046.8504	3183.1377	899.45	16.35
1046.9542	3184.0848	903.4	14.7
1047.058	3185.0314	898.85	13.15
1047.1617	3185.9773	900.25	14.55
1047.2654	3186.9227	899.75	12.6
1047.369	3187.8674	898.8	16.95
1047.4726	3188.8115	903.35	14.7
1047.5761	3189.755	899	14.5
1047.6796	3190.6979	899.3	16.1
1047.783	3191.6402	897.75	14.75
1047.8864	3192.5818	900.55	16.45
1047.9898	3193.5229	907	17.55
1048.0931	3194.4633	899.9	17.65
1048.1963	3195.4031	896.95	11.35
1048.2995	3196.3423	899.65	17.85
1048.4027	3197.2809	899.4	15.3
1048.5058	3198.2189	899.45	13.95
1048.6089	3199.1563	903.9	11.95
1048.7119	3200.0931	899.05	15.95
1048.8148	3201.0292	898.8	17.05
1048.9178	3201.9648	900.45	17.45
1049.0206	3202.8997	900.3	13.5
1049.1235	3203.834	900.6	15.5
1049.2262	3204.7677	898.85	16.5
1049.329	3205.7008	902	15.9
1049.4317	3206.6333	896.8	16.8
1049.5343	3207.5652	899.35	14.3
1049.6369	3208.4964	897.8	14.35
1049.7394	3209.4271	898.35	13.25
1049.8419	3210.3571	896.45	11.55
1049.9444	3211.2865	898.05	12
1050.0468	3212.2154	898.4	15
1050.1491	3213.1436	902.3	15.35
1050.2514	3214.0712	905.75	13.45
1050.3537	3214.9982	898.75	13.2
1050.4559	3215.9246	899.15	15.05
1050.5581	3216.8503	894.2	10.05
1050.6602	3217.7755	898.65	13.55
1050.7623	3218.7001	897.05	14.45
1050.8643	3219.624	897.85	12.65
1050.9663	3220.5473	896.5	12.85
1051.0682	3221.4701	896.1	11.2
1051.1701	3222.3922	897.3	10.9
1051.2719	3223.3137	898	14.45
1051.3737	3224.2346	899.4	13.85
1051.4754	3225.1549	895.6	11.85
1051.5771	3226.0746	895.45	12.55
1051.6788	3226.9937	896.75	12.9
1051.7804	3227.9121	893.15	9.2
1051.8819	3228.83	895.3	11
1051.9834	3229.7473	896.15	11.7
1052.0849	3230.6639	897.25	11.8
1052.1863	3231.5799	896.25	12.1
1052.2876	3232.4954	898.2	12.95
1052.3889	3233.4102	896.5	14.1
1052.4902	3234.3244	896.7	11.95
1052.5914	3235.238	896	13.05
1052.6926	3236.151	910.5	11.15
1052.7937	3237.0634	894.1	10.3
1052.8948	3237.9752	896.05	10.9
1052.9958	3238.8864	895.4	12.9
1053.0968	3239.797	893	6.5
1053.1977	3240.7069	895.85	10.45
1053.2986	3241.6163	897.45	10.75
1053.3994	3242.5251	897.2	12.55
1053.5002	3243.4332	895.7	11.45
1053.6009	3244.3408	896.9	11.7
1053.7016	3245.2477	894	9.55
1053.8022	3246.154	896.2	10.95
1053.9028	3247.0598	897.35	10.65
1054.0034	3247.9649	893.45	9.55
1054.1039	3248.8694	894.45	8.05
1054.2043	3249.7733	894.75	11.95
1054.3047	3250.6766	896.35	12.95
1054.4051	3251.5793	897.45	15.3
1054.5054	3252.4814	894.95	12.2
1054.6056	3253.3829	893.1	9.05
1054.7058	3254.2838	894.55	10.05
1054.806	3255.1841	893.3	10.3
1054.9061	3256.0838	894.2	9.8
1055.0061	3256.9829	893.4	12.05
1055.1062	3257.8814	897	9.65
1055.2061	3258.7792	896.55	11.85
1055.306	3259.6765	894.3	9.05
1055.4059	3260.5731	894.3	11.15
1055.5057	3261.4692	892.65	8.45
1055.6055	3262.3647	894.6	10.15
1055.7052	3263.2595	892.1	8.95
1055.8049	3264.1538	892.85	7.55
1055.9045	3265.0474	893.8	8.45
1056.0041	3265.9404	893.3	10.35
1056.1036	3266.8329	893.6	9.5
1056.2031	3267.7247	905.05	11.6
1056.3025	3268.616	891.8	8.95
1056.4019	3269.5066	892.95	9.7
1056.5013	3270.3966	893.65	8.25
1056.6005	3271.286	890.35	6.6
