Software Version:	3.9.2.0
Unit SN:	10000200
Spectrometer SN:	6960
Date:	3/26/2024 1:33:10 PM
Data Line Index:	25
Spectral Points:	2048
Integration time (ms):	125
Averages:	20
Delay (ms):	30000
Sequence Number:	1
Processing:	dark subtract
Laser Power (mW):	300
Laser Current (mA):	820
Laser Diode Temp (C):	25
Laser Case Temp (C):	26.9
System Temp (C):	26.9
Spectrometer Temp (C):	24.7
CCD Temp (C):	0.001
Secondary Temp (C):	20.003
Heatsink Temp (C):	22.247
CCDPCB Temp (C):	36.64
SecondaryPCB Temp (C):	34.184

Wavelength	RamanShift	Raw Counts	Dark Subtracted
787.061	30.1047	563.05	151.45
787.2016	32.3739	565.6	155.2
787.3422	34.6426	574.8	164.05
787.4828	36.9109	589.35	179.25
787.6235	39.1787	608.6	193.2
787.7642	41.4461	622.55	201.75
787.9049	43.7131	639.4	214.95
788.0456	45.9796	655.8	228.55
788.1863	48.2456	674	243.25
788.3271	50.5112	694.3	258.5
788.4679	52.7764	715	277.25
788.6087	55.0411	728.8	288.15
788.7496	57.3054	751.7	307.1
788.8904	59.5692	778.35	331.45
789.0313	61.8326	801.35	350.75
789.1722	64.0955	825.7	368.6
789.3132	66.3579	858.85	395.55
789.4541	68.6199	895.95	432.4
789.5951	70.8815	974.2	509
789.7361	73.1426	1124.75	654.65
789.8771	75.4032	1496.5	1021.6
790.0181	77.6634	2432.1	1950.65
790.1592	79.9231	4744.6	4252.75
790.3003	82.1824	9960.1	9455.65
790.4414	84.4412	20137	19608.1
790.5825	86.6995	36850.45	36287.4
790.7237	88.9574	48224.55	47628.45
790.8648	91.2148	54001.3	53384.1
791.006	93.4717	55589.9	54958.7
791.1472	95.7282	56286.7	55649.15
791.2885	97.9842	56565.1	55922.7
791.4297	100.2398	56365.65	55720
791.571	102.4949	56283.8	55632.55
791.7123	104.7495	56084.9	55433.2
791.8536	107.0036	55742.45	55086.85
791.9949	109.2573	55887.3	55235.05
792.1363	111.5105	55537.65	54881.25
792.2777	113.7632	55453.45	54795.15
792.4191	116.0154	55504.1	54839.2
792.5605	118.2672	55646.35	54983.35
792.7019	120.5185	55599.55	54937.2
792.8434	122.7693	55522.1	54857.9
792.9849	125.0197	55077.4	54407.75
793.1264	127.2696	55818.95	55153
793.2679	129.519	55571.1	54897.5
793.4094	131.7679	55832.25	55158.5
793.551	134.0163	55033.1	54351.7
793.6926	136.2642	55240.9	54558.1
793.8342	138.5117	55676.1	54982.9
793.9758	140.7587	55387.3	54696.7
794.1175	143.0052	55287.2	54595.6
794.2591	145.2512	54806.2	54112.6
794.4008	147.4967	55294.7	54604.2
794.5425	149.7417	55072.15	54379.65
794.6842	151.9863	55020.3	54323.75
794.826	154.2304	54699.05	53993.9
794.9677	156.4739	54819.3	54116.3
795.1095	158.717	55162.9	54451.55
795.2513	160.9596	54863	54153.6
795.3931	163.2017	54382.7	53667.7
795.535	165.4433	54703.75	53989.05
795.6768	167.6844	54414.35	53698.9
795.8187	169.925	54554.8	53838.5
795.9606	172.1651	54241.55	53525.95
796.1025	174.4047	54314.85	53592.8
796.2445	176.6439	54181.4	53453.85
796.3864	178.8825	54065.85	53336.75
796.5284	181.1206	54368.5	53636.15
796.6704	183.3582	54273.55	53535.95
796.8124	185.5954	54045.8	53304.95
796.9544	187.832	54047.9	53304
797.0965	190.0681	53803.3	53056.5
797.2386	192.3037	54246.8	53499.65
797.3806	194.5388	54759.65	54006.6
797.5228	196.7734	53595.85	52843.8
797.6649	199.0075	54675.15	53912.85
797.807	201.2411	54279.35	53517.9
797.9492	203.4742	54871.15	54110.25
798.0914	205.7068	54741.85	53980.4
798.2336	207.9389	54679.15	53916.45
798.3758	210.1704	54661.15	53895.95
798.518	212.4015	55126.85	54358.65
798.6603	214.632	54587	53816.6
798.8025	216.862	55206.35	54442.15
798.9448	219.0915	54915.6	54156
799.0871	221.3205	54837.6	54081.45
799.2294	223.549	55338.8	54594.55
799.3718	225.777	55277.3	54530
799.5141	228.0044	55554	54805.05
799.6565	230.2314	55371.45	54625.6
799.7989	232.4578	55373.45	54626.4
799.9413	234.6837	55450.85	54700.1
800.0837	236.909	56257.6	55501.9
800.2262	239.1339	55089.35	54308.9
800.3687	241.3582	55602.35	54834.2
800.5111	243.582	55608.7	54811.4
800.6536	245.8053	55515.6	54730.2
800.7961	248.0281	55601.85	54823.3
800.9387	250.2503	55776.25	54991.05
801.0812	252.472	55376.2	54583.9
801.2238	254.6932	55683.15	54890.25
801.3664	256.9139	55526.4	54728.45
801.509	259.134	56308.15	55507.25
801.6516	261.3536	55556.2	54757.65
801.7942	263.5727	56029	55227.3
801.9369	265.7912	55796.55	54995.25
802.0795	268.0092	55982	55178.7
802.2222	270.2267	56092.05	55292.35
802.3649	272.4436	55732.6	54937.05
802.5076	274.6601	56068.65	55262.4
802.6504	276.8759	56181.45	55381.9
802.7931	279.0913	55937.75	55134.25
802.9359	281.3061	56034.65	55226.45
803.0787	283.5204	56033.1	55225.5
803.2215	285.7341	55983.5	55169.7
803.3643	287.9473	56319.7	55496.1
803.5071	290.16	56082.55	55261.3
803.6499	292.3721	56235	55418.45
803.7928	294.5837	56032.2	55214.75
803.9357	296.7947	55849	55033.45
804.0786	299.0052	56377	55561.2
804.2215	301.2152	56108.15	55288.1
804.3644	303.4246	56275	55461.65
804.5074	305.6334	56189.25	55375.05
804.6503	307.8418	55697.1	54878.35
804.7933	310.0495	55575.9	54758.6
804.9363	312.2568	55419.8	54596.3
805.0793	314.4635	55319.85	54497.15
805.2223	316.6696	55481.8	54656.8
805.3653	318.8752	55629.35	54798.2
805.5084	321.0802	54827.9	54003.1
805.6514	323.2847	55186.5	54362.15
805.7945	325.4887	55170.4	54348.6
805.9376	327.692	54936.2	54107.65
806.0807	329.8949	55142.3	54313.3
806.2238	332.0972	54877	54045
806.367	334.2989	54991.2	54157.65
806.5101	336.5001	55164.55	54330.75
806.6533	338.7007	54480.6	53645.5
806.7965	340.9008	54813.55	53977
806.9397	343.1003	54806.1	53970
807.0829	345.2992	54980.15	54142.3
807.2261	347.4976	54554.85	53710.35
807.3693	349.6955	54700.55	53856.85
807.5126	351.8927	54485.15	53639.7
807.6559	354.0895	54776.9	53919.25
807.7991	356.2856	54689.15	53841.75
807.9424	358.4812	54857.2	54009.8
808.0857	360.6763	54392.35	53544.4
808.2291	362.8707	54781	53935.85
808.3724	365.0646	54544.75	53695.7
808.5158	367.258	54536.55	53685.65
808.6591	369.4508	54277.05	53421.95
808.8025	371.643	54767.25	53912.85
808.9459	373.8346	54528.55	53670.2
809.0893	376.0257	54564.15	53706.3
809.2327	378.2162	54434.65	53576.55
809.3762	380.4062	54053.2	53190.75
809.5196	382.5956	54318	53461.25
809.6631	384.7844	54275	53415.3
809.8066	386.9726	54383.05	53523.75
809.9501	389.1603	54343.9	53482.3
810.0936	391.3474	53968.1	53073.4
810.2371	393.5339	54275.35	53412.2
810.3806	395.7199	53760	52897.1
810.5241	397.9052	53837.55	52980.4
810.6677	400.09	53917.65	53060.5
810.8113	402.2743	54212.55	53359.95
810.9548	404.4579	53886.55	53033.6
811.0984	406.641	53960.3	53106.55
811.2421	408.8235	54184.95	53333.35
811.3857	411.0054	54244.45	53392.6
811.5293	413.1868	54356.2	53496.1
811.673	415.3675	54237.3	53378.1
811.8166	417.5477	54217.85	53356.5
811.9603	419.7273	54238.1	53371.7
812.104	421.9064	54132.95	53260.85
812.2477	424.0848	54140.05	53272.65
812.3914	426.2627	54311.3	53443.9
812.5351	428.4399	53842.75	52971.65
812.6788	430.6166	53420.75	52548.15
812.8226	432.7928	53685.9	52808.8
812.9663	434.9683	53255.7	52387.25
813.1101	437.1432	53195.5	52328.45
813.2539	439.3176	53361.1	52491.95
813.3977	441.4914	52863.2	51997.8
813.5415	443.6645	52950	52079.25
813.6853	445.8371	52951.5	52077.65
813.8291	448.0091	52751.25	51878.2
813.973	450.1806	52605.15	51735.3
814.1168	452.3514	52628	51756.5
814.2607	454.5216	52428.5	51551.9
814.4046	456.6913	52564.25	51689
814.5485	458.8603	52616.8	51747.2
814.6924	461.0288	52381.15	51515.1
814.8363	463.1967	52584.15	51716.45
814.9802	465.3639	52573.25	51703.75
815.1241	467.5306	52125.4	51250.45
815.2681	469.6967	52342.35	51469.9
815.412	471.8622	52462.4	51590.6
815.556	474.0271	52268.4	51395.4
815.7	476.1914	52356.05	51478.5
815.844	478.3551	52374.6	51497.7
815.988	480.5182	52651.35	51777.7
816.132	482.6807	52257.8	51387
816.276	484.8426	52394.4	51529.75
816.4201	487.0039	52799.75	51930.25
816.5641	489.1647	52911.8	52033.45
816.7082	491.3248	52578.1	51703.3
816.8522	493.4843	53017.35	52141.65
816.9963	495.6432	53013.4	52139.2
817.1404	497.8015	52480.8	51598.8
817.2845	499.9592	52681.7	51800.65
817.4286	502.1163	52625.25	51738.4
817.5727	504.2728	52469	51588.55
817.7168	506.4287	52405.3	51533.9
817.861	508.5839	52056.15	51185.85
818.0051	510.7386	52160.85	51283.65
818.1493	512.8927	52205.95	51318.55
818.2935	515.0461	52077.9	51192.25
818.4377	517.199	52308.55	51423.5
818.5818	519.3512	52201.5	51313.95
818.726	521.5029	52160.75	51270.65
818.8703	523.6539	52299.95	51417.1
819.0145	525.8043	51999.3	51112.95
819.1587	527.9541	52265.45	51375.95
819.303	530.1033	52137.05	51251.65
819.4472	532.2519	51942.9	51058.75
819.5915	534.3999	52091.55	51199.85
819.7357	536.5472	52302.25	51415.1
819.88	538.694	51979.2	51090.95
820.0243	540.8401	52297.85	51408.35
820.1686	542.9856	52329.1	51434.15
820.3129	545.1305	52381.4	51480.55
820.4572	547.2748	52145.7	51240.35
820.6016	549.4185	52131.6	51223.95
820.7459	551.5615	52235	51332.7
820.8902	553.704	52119.35	51220.35
821.0346	555.8458	51987.15	51088.8
821.1789	557.987	52129.65	51229.5
821.3233	560.1276	52239.4	51339.45
821.4677	562.2675	52246.3	51345.7
821.6121	564.4069	52364.25	51462.55
821.7565	566.5456	52638.95	51741.1
821.9009	568.6837	52319.5	51418.9
822.0453	570.8212	52307.15	51413.4
822.1897	572.958	51750.8	50853.9
822.3342	575.0942	51842.25	50950.4
822.4786	577.2299	51484.45	50593.15
822.6231	579.3648	51383.15	50497.55
822.7675	581.4992	51257.6	50382.3
822.912	583.6329	51254.5	50379.8
823.0565	585.766	51251.7	50373
823.201	587.8985	51419.1	50534.9
823.3454	590.0304	51013.35	50107.3
823.4899	592.1616	51212.7	50315.15
823.6345	594.2922	51043.45	50143.45
823.779	596.4222	50814.65	49911.45
823.9235	598.5515	50785.75	49882.6
824.068	600.6802	50795.95	49895.2
824.2126	602.8083	50432.45	49532.35
824.3571	604.9358	50411.75	49510
824.5017	607.0626	50565.35	49662.3
824.6462	609.1888	50236.85	49322.35
824.7908	611.3144	50561.45	49649.95
824.9354	613.4393	50442.45	49532.95
825.08	615.5636	50281.45	49372.05
825.2246	617.6873	50424.25	49516.9
825.3692	619.8103	50227.8	49323.6
825.5138	621.9327	50360.95	49454.85
825.6584	624.0544	50329.35	49428.5
825.803	626.1756	50070.25	49168.3
825.9477	628.2961	50023.75	49120.25
826.0923	630.4159	49806	48895.85
826.237	632.5351	49749.05	48836.65
826.3816	634.6537	50113.6	49200.9
826.5263	636.7716	49650.3	48733.5
826.6709	638.8889	49769.75	48857.15
826.8156	641.0056	49700.8	48785.4
826.9603	643.1216	49854.1	48938.35
827.105	645.237	49925	49012.4
827.2497	647.3518	49545.6	48642.1
827.3944	649.4659	49557.1	48653
827.5391	651.5793	49602.75	48701.75
827.6838	653.6922	49586.15	48682
827.8285	655.8043	49215.75	48307
827.9733	657.9159	49700.1	48790.45
828.118	660.0268	48840.05	47931.8
828.2627	662.137	49233.9	48323.15
828.4075	664.2466	49308.7	48393.5
828.5522	666.3556	49110.65	48195.25
828.697	668.4639	49160.25	48250.2
828.8418	670.5716	48994.05	48085.15
828.9865	672.6786	49118.75	48204.95
829.1313	674.785	48756.9	47842.7
829.2761	676.8907	48749.05	47837.45
829.4209	678.9958	48862.65	47956.25
829.5657	681.1002	48868.55	47954.7
829.7105	683.204	48619.5	47699
829.8553	685.3072	48427.6	47508.6
830.0001	687.4097	48477.6	47563.8
830.1449	689.5115	48425.4	47509.2
830.2898	691.6127	48621.45	47707.5
830.4346	693.7132	48396.65	47484.15
830.5794	695.8131	48423.2	47495.75
830.7243	697.9123	48469.7	47549.2
830.8691	700.0109	48477.1	47555.8
831.014	702.1089	48206.8	47288.1
831.1588	704.2061	48273.6	47353.5
831.3037	706.3028	48309.3	47389.2
831.4486	708.3987	48313	47395.9
831.5935	710.4941	48181.45	47262.15
831.7383	712.5887	48343.15	47425.1
831.8832	714.6827	48237.1	47318.75
832.0281	716.7761	48464.6	47550.5
832.173	718.8688	48533.9	47614.85
832.3179	720.9608	48333.85	47412.55
832.4628	723.0522	48423	47493.6
832.6077	725.1429	48225.15	47304.65
832.7527	727.233	48740.9	47820.05
832.8976	729.3224	47952.3	47033.6
833.0425	731.4112	48161.35	47242.25
833.1874	733.4993	48068.55	47146.85
833.3324	735.5867	47896.65	46973.25
833.4773	737.6735	47651.1	46727.9
833.6222	739.7596	47398	46477.4
833.7672	741.845	47280.5	46360.25
833.9122	743.9298	47455.65	46532.25
834.0571	746.014	47151	46231.6
834.2021	748.0974	46999.9	46072.3
834.347	750.1802	47258.55	46328.5
834.492	752.2624	46790.95	45867.45
834.637	754.3439	46772.7	45844.15
834.782	756.4247	46857.05	45922.5
834.9269	758.5048	46740.45	45813
835.0719	760.5843	46863.3	45934.45
835.2169	762.6631	47032	46102.45
835.3619	764.7413	47171.1	46248.85
835.5069	766.8188	47526.65	46597.25
835.6519	768.8956	47783.45	46858.6
835.7969	770.9718	47889.25	46964.15
835.9419	773.0473	47744.15	46819.35
836.0869	775.1221	47406.55	46482.15
836.232	777.1962	47236.25	46310.45
836.377	779.2697	46932.3	46005.65
836.522	781.3426	47088.7	46150.15
836.667	783.4147	47114.65	46184.9
836.8121	785.4862	47055.45	46127.35
836.9571	787.557	46781.25	45852.15
837.1021	789.6271	46741.25	45809.1
837.2472	791.6966	46222.5	45293.75
837.3922	793.7654	45677.4	44748.8
837.5373	795.8335	45500	44568.45
837.6823	797.901	45349.8	44421.25
837.8274	799.9678	45102.85	44167.1
837.9724	802.0339	44989.05	44060.8
838.1175	804.0993	44965.5	44024.15
838.2626	806.1641	44787.6	43857.3
838.4076	808.2282	44691.4	43765.55
838.5527	810.2916	44600.55	43666.15
838.6978	812.3544	44635.65	43709.15
838.8428	814.4164	44336.15	43407.2
838.9879	816.4778	44388.05	43457.1
839.133	818.5385	44390.25	43456.6
839.2781	820.5986	44416.7	43484.1
839.4232	822.658	44530.5	43597.05
839.5682	824.7166	44647.2	43712.95
839.7133	826.7747	44765.75	43836.4
839.8584	828.832	45060.65	44129.95
840.0035	830.8886	45224.1	44288.8
840.1486	832.9446	45284.05	44350.6
840.2937	834.9999	44791.4	43860.5
840.4388	837.0545	44763.75	43827.5
840.5839	839.1085	44666.5	43731.65
840.729	841.1618	44363.35	43429.2
840.8741	843.2143	43960.7	43029.4
841.0192	845.2662	43775.55	42842.75
841.1643	847.3175	43823.2	42893.7
841.3095	849.368	43457.65	42526.7
841.4546	851.4179	43542.3	42610.4
841.5997	853.467	43234.7	42302.75
841.7448	855.5155	43242.5	42312.45
841.8899	857.5633	43024.2	42090.85
842.0351	859.6105	42874.75	41944.1
842.1802	861.6569	42834.8	41900.05
842.3253	863.7027	42616.6	41681.25
842.4704	865.7478	42663.55	41729.8
842.6156	867.7922	42520	41587.7
842.7607	869.8359	42576	41641.35
842.9058	871.8789	42322	41386.55
843.0509	873.9212	42422.95	41457.85
843.1961	875.9629	42388.1	41454.6
843.3412	878.0039	42399.35	41461.6
843.4863	880.0441	42306.4	41374
843.6315	882.0837	42354.65	41421.25
843.7766	884.1226	42357.9	41422.6
843.9218	886.1609	42323.2	41390.05
844.0669	888.1984	42213.95	41279.45
844.212	890.2352	42524.05	41589.5
844.3572	892.2714	42217.25	41276.05
844.5023	894.3069	42209.85	41269.65
844.6475	896.3416	41987.2	41053.1
844.7926	898.3757	41849.85	40912.35
844.9377	900.4091	41549.75	40613.75
845.0829	902.4418	41712.45	40770.15
845.228	904.4739	41494.9	40556.2
845.3732	906.5052	41522.45	40584.95
845.5183	908.5358	41342.6	40403.75
845.6635	910.5658	41169.7	40227.85
845.8086	912.595	41061.35	40124.15
845.9538	914.6236	40692.1	39756
846.0989	916.6515	40910.45	39972.1
846.2441	918.6786	40437.35	39499.05
846.3892	920.7051	40442.35	39501.05
846.5344	922.7309	40404.15	39464.5
846.6795	924.756	40356.65	39419.6
846.8246	926.7804	40281.75	39344.45
846.9698	928.8041	39939.55	39001.1
847.1149	930.8272	40081.1	39140.95
847.2601	932.8495	40002.8	39064
847.4052	934.8711	39793.25	38856.5
847.5504	936.892	39602.6	38662.4
847.6955	938.9123	39577.6	38639.35
847.8407	940.9318	39455.1	38513.6
847.9858	942.9506	39329.05	38392.85
848.131	944.9688	39235.15	38295.95
848.2761	946.9862	38961	38025.55
848.4213	949.003	38787.6	37848.5
848.5664	951.019	38533.75	37599.95
848.7115	953.0344	38499.5	37561.6
848.8567	955.0491	38442.15	37500.75
849.0018	957.063	38481.2	37540.25
849.147	959.0763	38447.85	37502.95
849.2921	961.0888	38335.8	37396.3
849.4373	963.1007	38434.2	37498.85
849.5824	965.1119	38388.65	37459.3
849.7275	967.1223	38266.9	37338.3
849.8727	969.1321	38227.35	37300.55
850.0178	971.1412	38075.75	37145.3
850.1629	973.1495	37930.35	36997.8
850.3081	975.1572	37906.2	36953.35
850.4532	977.1641	37868.65	36932.45
850.5983	979.1704	37748.25	36809.4
850.7435	981.1759	37604.45	36664.3
850.8886	983.1808	37559.35	36617.95
851.0337	985.1849	37447.4	36496.7
851.1788	987.1884	37454.95	36513.95
851.324	989.1911	37513.5	36574.4
851.4691	991.1932	37352.65	36413.25
851.6142	993.1945	37309.9	36377.5
851.7593	995.1951	37142.6	36202.95
851.9045	997.1951	37008.25	36062.45
852.0496	999.1943	36872.05	35936.25
852.1947	1001.1928	36740.55	35800.45
852.3398	1003.1906	36641.2	35704.85
852.4849	1005.1877	36643.75	35704.45
852.63	1007.1841	36494.1	35554.2
852.7751	1009.1798	36430.4	35496.25
852.9202	1011.1748	36275.4	35339.75
853.0653	1013.1691	36114.65	35176.2
853.2104	1015.1627	35755.5	34819.1
853.3555	1017.1556	35426.7	34491.2
853.5006	1019.1477	35318.85	34387.9
853.6457	1021.1392	35014.4	34087.45
853.7908	1023.1299	34891.8	33962.8
853.9359	1025.12	34766.95	33840.15
854.081	1027.1093	34675.85	33757.65
854.2261	1029.0979	34661.65	33745.8
854.3712	1031.0859	34602.5	33681.65
854.5163	1033.0731	34524.7	33598.95
854.6613	1035.0596	34403.4	33473
854.8064	1037.0454	34152.6	33221.15
854.9515	1039.0304	33994.2	33056.55
855.0965	1041.0148	33828.15	32894.05
855.2416	1042.9985	33676.2	32740.45
855.3867	1044.9814	33616.8	32683.55
855.5317	1046.9636	33404	32468.3
855.6768	1048.9452	33286.55	32350.85
855.8219	1050.926	33283.25	32353.45
855.9669	1052.9061	33202.4	32267.85
856.112	1054.8855	33135.45	32199.65
856.257	1056.8642	33092.5	32156.4
856.4021	1058.8421	33058.45	32115.15
856.5471	1060.8194	33035.8	32098.55
856.6921	1062.7959	32959.35	32024.55
856.8372	1064.7717	32882.35	31945.1
856.9822	1066.7469	32881.65	31947.25
857.1272	1068.7213	32879.2	31938.95
857.2723	1070.695	32888.2	31951
857.4173	1072.6679	32720.2	31785.05
857.5623	1074.6402	32743.15	31806.25
857.7073	1076.6117	32642.35	31704
857.8523	1078.5826	32527	31589.05
857.9973	1080.5527	32357.6	31417.7
858.1423	1082.5221	32179	31245.6
858.2873	1084.4908	32058.7	31125.05
858.4323	1086.4587	32065.05	31133.5
858.5773	1088.426	31995.9	31060.85
858.7223	1090.3925	31908.75	30970.3
858.8673	1092.3584	31889.55	30953.6
859.0123	1094.3235	31725.85	30794.2
859.1573	1096.2879	31687.55	30753.35
859.3022	1098.2515	31669.6	30736.7
859.4472	1100.2145	31825.45	30891.55
859.5922	1102.1767	31837.1	30902.05
859.7371	1104.1382	31905.2	30970.35
859.8821	1106.099	31995.7	31057.7
860.027	1108.0591	32019.65	31085.7
860.172	1110.0185	32022.15	31087.7
860.3169	1111.9771	32037.45	31102.2
860.4619	1113.9351	31887	30952.7
860.6068	1115.8923	31650.4	30713.85
860.7517	1117.8488	31508	30573.85
860.8967	1119.8045	31257.25	30324.35
861.0416	1121.7596	31126.25	30191.7
861.1865	1123.7139	30901.9	29969.95
861.3314	1125.6675	30819.7	29884.75
861.4763	1127.6204	30872.6	29938.75
861.6212	1129.5726	30751.6	29813.5
861.7661	1131.524	30687.4	29753.75
861.911	1133.4748	30525.4	29587.1
862.0559	1135.4248	30297.7	29361.3
862.2008	1137.3741	30161.2	29228.6
862.3457	1139.3226	29959.2	29024.85
862.4905	1141.2705	29924.75	28991.8
862.6354	1143.2176	29730.5	28788.5
862.7803	1145.164	29704.75	28769.5
862.9251	1147.1097	29565.05	28627.3
863.07	1149.0546	29453.35	28519.15
863.2148	1150.9989	29374.85	28441.6
863.3597	1152.9424	29289.3	28351.7
863.5045	1154.8852	29167.1	28235.35
863.6493	1156.8272	29081.35	28148.15
863.7942	1158.7686	29063.95	28121.95
863.939	1160.7092	28960.6	28024.6
864.0838	1162.6491	28872.7	27938.35
864.2286	1164.5883	28927.1	27994.4
864.3734	1166.5267	28927.15	27991.45
864.5182	1168.4644	28987.1	28052.95
864.663	1170.4014	29052.35	28117.4
864.8078	1172.3377	29224.1	28294.45
864.9526	1174.2732	29366.8	28434.85
865.0974	1176.2081	29606.8	28676.35
865.2421	1178.1421	29899.5	28962.15
865.3869	1180.0755	30179.6	29249.2
865.5317	1182.0082	30286	29351.95
865.6764	1183.9401	30337.45	29406.7
865.8212	1185.8713	30185.3	29259.15
865.9659	1187.8017	29886.2	28962.4
866.1106	1189.7315	29622.4	28702.45
866.2554	1191.6605	29185.45	28267.7
866.4001	1193.5888	28904.8	27982.05
866.5448	1195.5163	28775.95	27849.2
866.6895	1197.4432	28618.2	27689.7
866.8342	1199.3693	28492.25	27563.9
866.9789	1201.2947	28388.1	27453.25
867.1236	1203.2193	28287.1	27355.35
867.2683	1205.1432	28150.25	27218.25
867.413	1207.0664	28087.2	27157.2
867.5576	1208.9889	28045.9	27115
867.7023	1210.9106	27898.8	26966.45
867.847	1212.8316	27836.15	26904.6
867.9916	1214.7519	27764.4	26822.7
868.1363	1216.6715	27701.5	26770.8
868.2809	1218.5903	27762.4	26830.3
868.4255	1220.5084	27679.3	26748.2
868.5701	1222.4257	27757.35	26829.6
868.7148	1224.3424	27663.65	26737.65
868.8594	1226.2583	27705.9	26775.05
869.004	1228.1735	27754.9	26823.1
869.1486	1230.0879	27725.4	26795.25
869.2932	1232.0016	27774.1	26844.35
869.4377	1233.9146	27778.4	26846.75
869.5823	1235.8269	27760.1	26827.15
869.7269	1237.7384	27705.75	26775.65
869.8715	1239.6492	27478.25	26548.45
870.016	1241.5592	27485	26556.4
870.1606	1243.4686	27446.5	26519.6
870.3051	1245.3772	27457.8	26528.9
870.4496	1247.285	27513.4	26583.05
870.5941	1249.1922	27575.25	26647.25
870.7387	1251.0986	27677.5	26748.35
870.8832	1253.0042	27599.15	26671.15
871.0277	1254.9092	27627.5	26699.9
871.1722	1256.8134	27638.45	26709.55
871.3167	1258.7169	27719.75	26791.6
871.4611	1260.6196	27731.05	26802.7
871.6056	1262.5216	27886.65	26958.75
871.7501	1264.4229	27894	26967.55
871.8945	1266.3234	28017.4	27089.3
872.039	1268.2232	28091	27158.55
872.1834	1270.1223	28001.4	27072.3
872.3278	1272.0207	27990.1	27059.55
872.4723	1273.9183	27970.7	27035.05
872.6167	1275.8151	27835.45	26908.6
872.7611	1277.7113	27760.65	26831.55
872.9055	1279.6067	27753.45	26826.5
873.0499	1281.5014	27834.7	26904.1
873.1943	1283.3953	28115.45	27183.7
873.3386	1285.2885	28418.05	27490.95
873.483	1287.181	28729.65	27801
873.6274	1289.0727	29025.3	28098.8
873.7717	1290.9637	29232.95	28308.15
873.9161	1292.854	29320.6	28395.25
874.0604	1294.7435	29261.85	28333.1
874.2047	1296.6323	29167.15	28238.75
874.349	1298.5204	29035.75	28107.7
874.4933	1300.4077	28853.9	27923.55
874.6376	1302.2943	28561.85	27633.75
874.7819	1304.1802	28415.55	27490.15
874.9262	1306.0653	28050.05	27121.3
875.0705	1307.9497	27671.65	26741.25
875.2147	1309.8333	27368.8	26444.2
875.359	1311.7162	27156.05	26228.25
875.5032	1313.5984	26973.45	26041.6
875.6475	1315.4798	26789.75	25849.65
875.7917	1317.3605	26703.7	25755.55
875.9359	1319.2405	26602.1	25672.65
876.0801	1321.1197	26397.25	25464.7
876.2243	1322.9982	26129.45	25195
876.3685	1324.876	25903.7	24974.8
876.5127	1326.753	25669.45	24742.9
876.6569	1328.6293	25525.6	24592.35
876.801	1330.5048	25392.35	24457.65
876.9452	1332.3796	25239	24312.55
877.0893	1334.2537	25146.9	24194.2
877.2335	1336.127	24999.85	24071.85
877.3776	1337.9996	24954.35	24023.4
877.5217	1339.8714	24886.7	23958.15
877.6658	1341.7426	24843.9	23872.85
877.8099	1343.6129	24804.2	23874.3
877.954	1345.4826	24749.85	23816.35
878.0981	1347.3515	24819.6	23890.2
878.2422	1349.2196	24625.15	23692.45
878.3862	1351.087	24660.05	23733.35
878.5303	1352.9537	24698.3	23768.2
878.6743	1354.8197	24745.45	23818.25
878.8184	1356.6849	24829.15	23899
878.9624	1358.5493	24880.1	23949.65
879.1064	1360.4131	24973.25	24045.65
879.2504	1362.276	24987.5	24062.45
879.3944	1364.1383	25011	24084
879.5384	1365.9998	24830.85	23898
879.6823	1367.8606	24543.05	23614.85
879.8263	1369.7206	24290.8	23364
879.9702	1371.5799	23975.5	23043.25
880.1142	1373.4384	23756.95	22827.55
880.2581	1375.2962	23530.5	22602.4
880.402	1377.1533	23200.4	22271.8
880.5459	1379.0096	22867.35	21942.65
880.6898	1380.8652	22654.6	21733
880.8337	1382.7201	22363.5	21439
880.9776	1384.5742	22130.3	21204.55
881.1215	1386.4275	21914.35	20987.95
881.2653	1388.2802	21764.6	20839.6
881.4092	1390.132	21633.25	20704.2
881.553	1391.9832	21554.65	20625.45
881.6968	1393.8336	21386.35	20456.6
881.8406	1395.6832	21320.05	20391.05
881.9844	1397.5322	21228.8	20303.4
882.1282	1399.3803	21156.3	20224.25
882.272	1401.2278	20995.2	20068.85
882.4158	1403.0745	20993.65	20069.5
882.5595	1404.9204	20874.05	19949.1
882.7033	1406.7656	20871.85	19945.85
882.847	1408.6101	20783.85	19858.3
882.9908	1410.4538	20747.3	19821.25
883.1345	1412.2968	20737.35	19811.65
883.2782	1414.139	20668.2	19742.05
883.4219	1415.9805	20689.15	19765.45
883.5656	1417.8213	20670.25	19722.65
883.7092	1419.6613	20720.9	19794.95
883.8529	1421.5006	20766.05	19840.9
883.9965	1423.3391	20829.9	19903.65
884.1402	1425.1769	20960.5	20034.7
884.2838	1427.0139	21232.25	20307.8
884.4274	1428.8502	21577.1	20652.35
884.571	1430.6858	21836.85	20911.7
884.7146	1432.5206	22042.35	21118.05
884.8582	1434.3547	22161	21234.6
885.0018	1436.188	22210.1	21285.65
885.1453	1438.0206	22120.7	21195
885.2889	1439.8524	21939.9	21013.5
885.4324	1441.6835	21823.65	20898.3
885.5759	1443.5139	21741.9	20818
885.7194	1445.3435	21648.9	20729.4
885.8629	1447.1724	21572.8	20647.95
886.0064	1449.0005	21509.85	20584.9
886.1499	1450.8279	21436.2	20512.15
886.2933	1452.6545	21407.05	20482.75
886.4368	1454.4804	21434.5	20515.2
886.5802	1456.3056	21350.55	20418.1
886.7237	1458.13	21287.4	20365.7
886.8671	1459.9536	21163.9	20241.8
887.0105	1461.7766	20956.75	20036.2
887.1539	1463.5987	20728.8	19804.2
887.2972	1465.4202	20448.7	19526.4
887.4406	1467.2409	20186.15	19263
887.584	1469.0608	19980.35	19056
887.7273	1470.88	19745.1	18821.05
887.8706	1472.6984	19595.05	18673.3
888.0139	1474.5161	19390.2	18460.4
888.1572	1476.3331	19263.45	18343.3
888.3005	1478.1493	19162.8	18239.15
888.4438	1479.9648	19066.55	18144.05
888.5871	1481.7795	18965.1	18044.6
888.7303	1483.5935	18951.65	18028.6
888.8736	1485.4067	18855.55	17933.05
889.0168	1487.2192	18842.3	17919.35
889.16	1489.031	18735.45	17810
889.3032	1490.842	18675.45	17755
889.4464	1492.6522	18641.9	17720.65
889.5896	1494.4618	18580.9	17658.2
889.7327	1496.2705	18548.85	17627.6
889.8759	1498.0785	18470.65	17547.35
890.019	1499.8858	18421.95	17501
890.1622	1501.6924	18336.95	17418.6
890.3053	1503.4981	18279.55	17358
890.4484	1505.3032	18241.6	17320.05
890.5914	1507.1075	18187.15	17265.45
890.7345	1508.911	18146.55	17224
890.8776	1510.7138	18066.8	17145.15
891.0206	1512.5159	17998.25	17076.45
891.1637	1514.3172	17898.65	16977.55
891.3067	1516.1178	17810.6	16891.8
891.4497	1517.9176	17809.85	16886.25
891.5927	1519.7166	17733.25	16814.1
891.7357	1521.515	17680.35	16754.35
891.8786	1523.3126	17646.95	16726.2
892.0216	1525.1094	17564.35	16644.8
892.1645	1526.9055	17502	16581.95
892.3074	1528.7008	17452.85	16535.15
892.4503	1530.4954	17359.5	16434.45
892.5932	1532.2893	17319.55	16403.35
892.7361	1534.0824	17223.8	16304.05
892.879	1535.8747	17228.85	16314.15
893.0218	1537.6663	17150.15	16232.9
893.1647	1539.4572	17113.6	16197.3
893.3075	1541.2473	17067.25	16149.25
893.4503	1543.0367	17040.65	16124.55
893.5931	1544.8253	16992.35	16072.1
893.7359	1546.6132	16990.55	16072.75
893.8787	1548.4003	16952.95	16030.6
894.0214	1550.1867	16961.05	16035.95
894.1642	1551.9723	16948.9	16029.85
894.3069	1553.7572	16987.75	16071.7
894.4496	1555.5414	17002.5	16089.1
894.5923	1557.3247	17051.45	16135.05
894.735	1559.1074	17149.9	16236.2
894.8777	1560.8893	17224.6	16314.55
895.0204	1562.6705	17278.55	16367
895.163	1564.4509	17341.1	16432.9
895.3056	1566.2305	17353.5	16446.05
895.4482	1568.0094	17400.3	16491.4
895.5908	1569.7876	17357.8	16449.35
895.7334	1571.565	17312.3	16399.2
895.876	1573.3417	17299.7	16391.15
896.0186	1575.1176	17250.65	16339.65
896.1611	1576.8928	17206.95	16298.6
896.3036	1578.6672	17132.55	16229.55
896.4461	1580.4409	17117.15	16213.6
896.5886	1582.2138	17068.65	16160.3
896.7311	1583.986	17091.15	16183.1
896.8736	1585.7575	17093.55	16184.95
897.0161	1587.5282	17116.9	16213.85
897.1585	1589.2981	17157.1	16255.55
897.3009	1591.0673	17166.15	16262.3
897.4433	1592.8358	17249.35	16346.1
897.5857	1594.6035	17273.1	16366.15
897.7281	1596.3704	17251.9	16343.4
897.8705	1598.1366	17274.75	16368.5
898.0128	1599.9021	17293.05	16387.8
898.1551	1601.6668	17315.85	16406.3
898.2975	1603.4308	17369.65	16462.6
898.4398	1605.194	17465.05	16556.05
898.5821	1606.9564	17557.8	16654.55
898.7243	1608.7182	17694.05	16793.5
898.8666	1610.4791	17880.3	16982
899.0088	1612.2394	18042.65	17146.7
899.1511	1613.9988	18236.85	17340.7
899.2933	1615.7576	18374.6	17474.15
899.4355	1617.5156	18533.05	17623.25
899.5776	1619.2728	18590.85	17684.65
899.7198	1621.0293	18498.3	17591.8
899.862	1622.785	18340.75	17436.15
900.0041	1624.54	18058.85	17158.45
900.1462	1626.2942	17779.8	16878.9
900.2883	1628.0477	17420.55	16517
900.4304	1629.8005	17147.7	16244.95
900.5725	1631.5525	16890.65	15990.25
900.7145	1633.3037	16673.5	15773.35
900.8566	1635.0542	16495.35	15597.15
900.9986	1636.804	16341.25	15438.9
901.1406	1638.553	16268.35	15312
901.2826	1640.3013	16121.05	15219.25
901.4245	1642.0488	16079.25	15175.65
901.5665	1643.7955	16038.2	15139.3
901.7085	1645.5416	16013.45	15113.4
901.8504	1647.2868	16062.35	15163.8
901.9923	1649.0313	16091.95	15190.5
902.1342	1650.7751	16169.55	15265.4
902.2761	1652.5181	16248.05	15346.85
902.4179	1654.2604	16314.55	15415.8
902.5598	1656.0019	16442.7	15542.6
902.7016	1657.7427	16556.35	15658.1
902.8434	1659.4828	16766.55	15865.25
902.9852	1661.222	16796.55	15894
903.127	1662.9606	16749.6	15846.6
903.2687	1664.6984	16594	15693.4
903.4105	1666.4354	16309	15405.25
903.5522	1668.1717	15894.4	14992.65
903.6939	1669.9072	15480.4	14576.05
903.8356	1671.642	15152.05	14245.95
903.9773	1673.3761	14850.4	13949.9
904.119	1675.1094	14603.6	13702.95
904.2606	1676.8419	14399.1	13497.65
904.4022	1678.5737	14227.65	13325.4
904.5439	1680.3048	14091.7	13188.8
904.6855	1682.0351	13961.2	13061.3
904.827	1683.7646	13866.65	12959.95
904.9686	1685.4934	13779.8	12877.5
905.1101	1687.2215	13677.4	12776.75
905.2517	1688.9488	13590.5	12690.85
905.3932	1690.6754	13509.35	12610.85
905.5347	1692.4012	13462.2	12560.2
905.6761	1694.1263	13383.15	12481.1
905.8176	1695.8506	13320.95	12419.8
905.9591	1697.5742	13284.7	12386.9
906.1005	1699.297	13201.4	12304.2
906.2419	1701.0191	13134.4	12239.7
906.3833	1702.7404	13088.05	12190.35
906.5246	1704.461	13004.4	12105
906.666	1706.1808	12935.95	12036.8
906.8073	1707.8999	12929.85	12029.45
906.9487	1709.6182	12868.4	11973.65
907.09	1711.3358	12849.25	11955.25
907.2313	1713.0527	12776	11884.25
907.3725	1714.7688	12736.5	11834.7
907.5138	1716.4841	12680.3	11781.05
907.655	1718.1987	12664.85	11759.05
907.7962	1719.9126	12608.95	11712.45
907.9374	1721.6257	12551.6	11653.9
908.0786	1723.338	12504.8	11610.6
908.2198	1725.0496	12453.75	11557.85
908.3609	1726.7605	12440.25	11543.35
908.502	1728.4706	12408.15	11512.8
908.6431	1730.18	12360.3	11464.05
908.7842	1731.8886	12308.35	11415.3
908.9253	1733.5964	12278.25	11377
909.0664	1735.3036	12235.95	11337.9
909.2074	1737.0099	12217.6	11323.15
909.3484	1738.7156	12180.8	11288.05
909.4894	1740.4204	12111.1	11214.45
909.6304	1742.1246	12099.85	11200.75
909.7714	1743.8279	12052.75	11158.6
909.9123	1745.5306	12052.8	11160.6
910.0532	1747.2325	11959.45	11065.6
910.1941	1748.9336	11942.3	11048.65
910.335	1750.634	11886.4	10986.9
910.4759	1752.3336	11875.8	10981.6
910.6168	1754.0325	11851.2	10958.3
910.7576	1755.7307	11830.5	10936.7
910.8984	1757.4281	11819.15	10923.4
911.0392	1759.1247	11810.05	10903.4
911.18	1760.8206	11782.95	10881.25
911.3208	1762.5158	11761.6	10862.4
911.4615	1764.2102	11729.8	10834.45
911.6022	1765.9039	11673.6	10779.05
911.7429	1767.5968	11657.55	10763.3
911.8836	1769.289	11625.65	10734.15
912.0243	1770.9804	11604.6	10707.35
912.1649	1772.6711	11578.8	10683.1
912.3056	1774.361	11549.45	10651.25
912.4462	1776.0502	11513.6	10617.45
912.5868	1777.7386	11494.45	10594.7
912.7274	1779.4263	11449.15	10553.75
912.8679	1781.1132	11452.35	10561.95
913.0084	1782.7994	11401.95	10508.65
913.149	1784.4849	11366.1	10475.75
913.2895	1786.1696	11328.4	10429.6
913.4299	1787.8535	11316.2	10423.55
913.5704	1789.5367	11279.15	10385.35
913.7108	1791.2192	11279.35	10385.25
913.8513	1792.9009	11249.15	10329.8
913.9917	1794.5818	11201.2	10304.4
914.132	1796.2621	11170.05	10275.9
914.2724	1797.9415	11158.1	10263.45
914.4128	1799.6202	11154.45	10260.25
914.5531	1801.2982	11126.45	10231.2
914.6934	1802.9755	11100.55	10205.65
914.8337	1804.6519	11057.1	10161.2
914.9739	1806.3277	11012.05	10119.2
915.1142	1808.0027	10998	10107.9
915.2544	1809.6769	10996.05	10104.45
915.3946	1811.3504	10924.25	10031.25
915.5348	1813.0231	10914.15	10022.6
915.675	1814.6951	10898.5	10005.9
915.8151	1816.3664	10903.6	10008.5
915.9553	1818.0369	10872.5	9977.95
916.0954	1819.7067	10848.7	9955.2
916.2355	1821.3757	10834.35	9937.75
916.3755	1823.044	10812.35	9917.95
916.5156	1824.7115	10786.9	9891
916.6556	1826.3783	10751.65	9859.65
916.7956	1828.0443	10715.25	9823.9
916.9356	1829.7096	10696	9802.75
917.0756	1831.3741	10668.9	9773.55
917.2155	1833.0379	10647.1	9754.3
917.3555	1834.701	10624.2	9731.75
917.4954	1836.3633	10614	9722.6
917.6353	1838.0248	10581.1	9687.15
917.7751	1839.6856	10560.3	9666.85
917.915	1841.3457	10537.3	9643.65
918.0548	1843.005	10522	9629.15
918.1946	1844.6636	10512.45	9618.85
918.3344	1846.3214	10474.95	9581.7
918.4742	1847.9785	10487	9595.7
918.6139	1849.6349	10445.95	9550.4
918.7537	1851.2904	10427.65	9522.7
918.8934	1852.9453	10390.2	9495.8
919.0331	1854.5994	10344.25	9447.15
919.1727	1856.2528	10352.35	9451.5
919.3124	1857.9054	10317.3	9424
919.452	1859.5572	10346.75	9454.3
919.5916	1861.2083	10311.85	9418.1
919.7312	1862.8587	10290.05	9395.3
919.8708	1864.5084	10253.85	9357.7
920.0103	1866.1572	10230.3	9337.2
920.1498	1867.8054	10194.85	9297.25
920.2893	1869.4528	10185.15	9288.7
920.4288	1871.0994	10158.1	9261.45
920.5683	1872.7453	10159.05	9265.15
920.7077	1874.3905	10131.5	9231.1
920.8471	1876.0349	10094.15	9202.55
920.9865	1877.6786	10103.25	9206.25
921.1259	1879.3215	10092.75	9199.9
921.2653	1880.9637	10037	9143.35
921.4046	1882.6051	10031.75	9139.6
921.5439	1884.2458	9992.95	9097.15
921.6832	1885.8858	9982.75	9088.5
921.8225	1887.525	9964.05	9071.15
921.9617	1889.1634	9904.3	9009.95
922.101	1890.8011	9878.35	8982.8
922.2402	1892.4381	9860.3	8966.15
922.3794	1894.0743	9857.4	8964.15
922.5185	1895.7098	9812.35	8917.2
922.6577	1897.3446	9812.85	8918.2
922.7968	1898.9786	9772.2	8872.85
922.9359	1900.6118	9764.2	8872.3
923.075	1902.2443	9695.75	8801.4
923.214	1903.8761	9699.65	8806.9
923.3531	1905.5071	9650.8	8756.8
923.4921	1907.1374	9634.7	8741.9
923.6311	1908.7669	9599.45	8706.1
923.77	1910.3957	9593.3	8700.8
923.909	1912.0237	9565.85	8674.95
924.0479	1913.651	9537.5	8643.8
924.1868	1915.2776	9518.45	8628.35
924.3257	1916.9034	9484.65	8592.3
924.4646	1918.5285	9446.15	8555.55
924.6034	1920.1528	9373.1	8479.15
924.7422	1921.7764	9382.35	8490.9
924.881	1923.3992	9364.95	8472.25
925.0198	1925.0213	9314.55	8424.05
925.1586	1926.6427	9273.25	8380.2
925.2973	1928.2633	9310.95	8351.85
925.436	1929.8832	9231.6	8337.4
925.5747	1931.5023	9177.9	8284.85
925.7134	1933.1207	9167.7	8273.95
925.852	1934.7383	9166.35	8273.1
925.9906	1936.3552	9134.35	8241.5
926.1292	1937.9714	9092.8	8198.5
926.2678	1939.5868	9053.8	8161.2
926.4064	1941.2015	9022.35	8128.1
926.5449	1942.8154	9015	8121.45
926.6834	1944.4286	8964.7	8070.55
926.8219	1946.041	8968.9	8053.3
926.9604	1947.6528	8899.45	8001.45
927.0988	1949.2637	8889.95	7997.65
927.2372	1950.8739	8862.05	7969.65
927.3756	1952.4834	8848.9	7955.45
927.514	1954.0921	8844.5	7949.35
927.6523	1955.7001	8796.2	7900.45
927.7907	1957.3074	8788.45	7899.25
927.929	1958.9139	8731.95	7844.05
928.0673	1960.5197	8707	7813.85
928.2055	1962.1247	8667.95	7778.3
928.3438	1963.729	8639.25	7751.65
928.482	1965.3325	8643.7	7729.5
928.6202	1966.9353	8606.5	7715.9
928.7584	1968.5374	8579.5	7690.15
928.8965	1970.1387	8544.9	7653.15
929.0346	1971.7393	8521.15	7630.35
929.1727	1973.3392	8490.45	7599.3
929.3108	1974.9383	8458.05	7567.45
929.4489	1976.5366	8420.45	7531.45
929.5869	1978.1342	8416.9	7529.35
929.7249	1979.7311	8400.7	7511.05
929.8629	1981.3273	8384.55	7495
930.0009	1982.9227	8355.35	7462.95
930.1388	1984.5173	8322.1	7435.35
930.2767	1986.1112	8308.2	7419.5
930.4146	1987.7044	8303.35	7415.15
930.5525	1989.2968	8248.95	7358.45
930.6904	1990.8885	8243.25	7352.8
930.8282	1992.4795	8230.55	7342.95
930.966	1994.0697	8181.05	7295.95
931.1038	1995.6592	8161.55	7273.35
931.2415	1997.2479	8133.25	7243.45
931.3793	1998.8359	8121.4	7231.85
931.517	2000.4232	8073.1	7187
931.6547	2002.0097	8043.25	7160.3
931.7923	2003.5955	8023	7137.3
931.93	2005.1805	8029	7142.15
932.0676	2006.7648	8023.45	7137.6
932.2052	2008.3484	8001.75	7113.45
932.3427	2009.9312	7993.6	7107.3
932.4803	2011.5133	7940.8	7057.85
932.6178	2013.0946	7944.45	7060
932.7553	2014.6752	7938.95	7055.25
932.8928	2016.2551	7874.3	6988.1
933.0302	2017.8342	7869.3	6982.1
933.1676	2019.4126	7843.75	6958.9
933.305	2020.9902	7802.6	6917.2
933.4424	2022.5672	7811.65	6924.55
933.5798	2024.1433	7770.25	6877.85
933.7171	2025.7188	7762.95	6880.75
933.8544	2027.2935	7734.25	6850.25
933.9917	2028.8674	7706.2	6823.05
934.129	2030.4406	7673.6	6791.15
934.2662	2032.0131	7635.45	6752.95
934.4034	2033.5849	7651.9	6761.9
934.5406	2035.1559	7616.05	6732.05
934.6778	2036.7261	7632.7	6745.5
934.8149	2038.2957	7590.55	6704.75
934.952	2039.8645	7582.25	6694.4
935.0891	2041.4325	7559.35	6670.35
935.2262	2042.9998	7543.3	6656.35
935.3632	2044.5664	7528.35	6641.3
935.5002	2046.1323	7519.55	6635.75
935.6372	2047.6974	7495.3	6609.7
935.7742	2049.2617	7454.65	6570.2
935.9111	2050.8254	7432.45	6541.45
936.048	2052.3883	7452.45	6564.7
936.1849	2053.9504	7424.75	6536
936.3218	2055.5118	7393.3	6506.15
936.4586	2057.0725	7373.85	6483.05
936.5955	2058.6325	7381.2	6495.9
936.7323	2060.1917	7339.55	6454.9
936.869	2061.7502	7343.95	6454.9
937.0058	2063.3079	7285.35	6401.7
937.1425	2064.8649	7265.85	6378.7
937.2792	2066.4212	7263.55	6376
937.4159	2067.9767	7236.9	6351.9
937.5525	2069.5315	7215.3	6330.9
937.6891	2071.0856	7189.4	6302.6
937.8257	2072.6389	7177.65	6292.45
937.9623	2074.1915	7139.8	6255.55
938.0989	2075.7433	7097.55	6208.95
938.2354	2077.2945	7085.45	6200.15
938.3719	2078.8448	7071.5	6184
938.5084	2080.3945	7039.1	6149.95
938.6448	2081.9434	7055.7	6168.55
938.7812	2083.4916	7032.65	6145.55
938.9176	2085.039	7009.5	6118.7
939.054	2086.5857	6989.65	6095.15
939.1903	2088.1317	6979.55	6087.1
939.3267	2089.677	6972.85	6081.4
939.463	2091.2215	6944.95	6053.85
939.5992	2092.7652	6915.3	6021.85
939.7355	2094.3083	6912	6020.85
939.8717	2095.8506	6894.45	6006.2
940.0079	2097.3921	6890.85	6003.2
940.1441	2098.933	6873.45	5987.35
940.2802	2100.4731	6870.9	5983.35
940.4163	2102.0124	6857.45	5960.15
940.5524	2103.5511	6828.7	5939.15
940.6885	2105.089	6822.05	5932.8
940.8245	2106.6261	6816.55	5926.75
940.9606	2108.1626	6787.9	5898.95
941.0965	2109.6983	6790.35	5872.4
941.2325	2111.2332	6750.05	5860.1
941.3684	2112.7675	6723.75	5832.85
941.5044	2114.301	6723.05	5833.05
941.6403	2115.8337	6713.7	5822.45
941.7761	2117.3657	6683.3	5793.6
941.912	2118.897	6698.15	5808.65
942.0478	2120.4276	6666.5	5772.35
942.1835	2121.9575	6651.7	5760.55
942.3193	2123.4866	6647.8	5755.8
942.455	2125.0149	6617.3	5725.75
942.5907	2126.5426	6593.9	5707.55
942.7264	2128.0695	6570.05	5679.55
942.8621	2129.5956	6549.1	5662.55
942.9977	2131.1211	6555	5665.25
943.1333	2132.6458	6516.3	5631.2
943.2689	2134.1698	6503.35	5613.55
943.4044	2135.693	6497.6	5604.2
943.54	2137.2155	6477.4	5583.55
943.6755	2138.7373	6461.4	5573.15
943.8109	2140.2584	6465.85	5579.45
943.9464	2141.7787	6412.15	5519.4
944.0818	2143.2983	6386.4	5502.75
944.2172	2144.8171	6373.05	5489.05
944.3526	2146.3353	6367.1	5478.2
944.4879	2147.8527	6357.6	5471.8
944.6232	2149.3693	6345.25	5452.35
944.7585	2150.8853	6325.5	5434.6
944.8938	2152.4005	6296.7	5404.95
945.029	2153.9149	6272.9	5380.9
945.1642	2155.4287	6347.6	5348.4
945.2994	2156.9417	6281.35	5389.7
945.4346	2158.454	6261.75	5372.05
945.5697	2159.9655	6221.15	5333.9
945.7048	2161.4764	6218.05	5331.2
945.8399	2162.9865	6200.75	5313.85
945.9749	2164.4958	6180.35	5290.95
946.1099	2166.0045	6153.9	5263.15
946.2449	2167.5124	6177.9	5289.5
946.3799	2169.0195	6140.05	5252.3
946.5148	2170.526	6133.35	5243.55
946.6498	2172.0317	6108.6	5219.35
946.7846	2173.5367	6092.3	5204
946.9195	2175.0409	6091.4	5203.1
947.0543	2176.5445	6092.25	5204.75
947.1891	2178.0473	6066.05	5176.35
947.3239	2179.5494	6029.1	5136.35
947.4587	2181.0507	6009.3	5118.5
947.5934	2182.5513	6005.85	5116.15
947.7281	2184.0512	5995.2	5105.25
947.8628	2185.5504	5999.1	5111.7
947.9974	2187.0488	5947.45	5058.7
948.132	2188.5465	5930.3	5044.15
948.2666	2190.0435	5903.9	5014.85
948.4012	2191.5397	5892.5	5004.75
948.5357	2193.0353	5880.1	4990.9
948.6702	2194.5301	5857.6	4965.95
948.8047	2196.0241	5842.8	4949.05
948.9392	2197.5175	5833.25	4941.2
949.0736	2199.0101	5804	4907.9
949.208	2200.502	5779.75	4890.45
949.3424	2201.9931	5777.5	4891.75
949.4767	2203.4835	5731.2	4840.85
949.611	2204.9733	5746.7	4844.65
949.7453	2206.4622	5722.4	4836.5
949.8796	2207.9505	5713.7	4826
950.0138	2209.438	5672.15	4788.55
950.148	2210.9248	5676.55	4786.35
950.2822	2212.4109	5642.65	4757.5
950.4164	2213.8962	5636.55	4743.45
950.5505	2215.3809	5620.5	4726.8
950.6846	2216.8648	5611.7	4720.05
950.8186	2218.3479	5599.6	4701.2
950.9527	2219.8304	5571.75	4675.75
951.0867	2221.3121	5556.2	4662.05
951.2207	2222.7931	5535.4	4644.4
951.3546	2224.2733	5535.35	4643.8
951.4886	2225.7529	5489.1	4597.15
951.6225	2227.2317	5495.65	4602.95
951.7563	2228.7098	5488.75	4600.1
951.8902	2230.1872	5467.15	4581.25
952.024	2231.6638	5431.75	4542.85
952.1578	2233.1397	5416.95	4526.1
952.2916	2234.6149	5408.4	4520.75
952.4253	2236.0894	5397.05	4507.8
952.559	2237.5632	5366.1	4475.2
952.6927	2239.0362	5362.1	4474.35
952.8263	2240.5085	5353.6	4464.4
952.9599	2241.9801	5326.25	4434.5
953.0935	2243.4509	5330.85	4439.7
953.2271	2244.921	5313.75	4421.25
953.3606	2246.3904	5293.6	4400.7
953.4941	2247.8591	5257.65	4367.25
953.6276	2249.3271	5256.85	4364.9
953.7611	2250.7943	5250.6	4357.55
953.8945	2252.2608	5232.25	4342.1
954.0279	2253.7266	5222.8	4333.1
954.1612	2255.1917	5197.65	4307.4
954.2946	2256.656	5171.45	4281.45
954.4279	2258.1197	5183.4	4294.5
954.5612	2259.5826	5169.85	4279.15
954.6944	2261.0447	5180.7	4290.55
954.8276	2262.5062	5142.45	4250.25
954.9608	2263.9669	5129.95	4236.65
955.094	2265.4269	5127.4	4237.95
955.2271	2266.8862	5112.65	4223.85
955.3602	2268.3448	5093.3	4204.7
955.4933	2269.8026	5090.65	4201.4
955.6264	2271.2598	5061.7	4173.8
955.7594	2272.7162	5038.9	4150.8
955.8924	2274.1719	5042.75	4149.2
956.0253	2275.6268	5039.5	4147.8
956.1583	2277.0811	5024.5	4132.4
956.2912	2278.5346	5002.1	4113.7
956.4241	2279.9874	4991.6	4105.05
956.5569	2281.4395	4995.4	4108.15
956.6897	2282.8908	4977.85	4084.25
956.8225	2284.3414	4979.85	4088
956.9553	2285.7914	4962	4073.7
957.088	2287.2406	4924.65	4033.55
957.2207	2288.689	4933.15	4040.85
957.3534	2290.1368	4930.95	4035.55
957.486	2291.5838	4891.55	3995.15
957.6186	2293.0302	4898.95	4003.85
957.7512	2294.4758	4875.65	3982.3
957.8838	2295.9206	4871.6	3980.55
958.0163	2297.3648	4859.55	3971.4
958.1488	2298.8082	4838	3946.65
958.2813	2300.251	4829.4	3938.2
958.4137	2301.693	4816.7	3922.95
958.5461	2303.1343	4791.7	3898
958.6785	2304.5748	4784.8	3895.9
958.8108	2306.0147	4772.5	3883.05
958.9432	2307.4538	4782.65	3893.4
959.0754	2308.8922	4773.45	3888.7
959.2077	2310.3299	4737.3	3850.2
959.3399	2311.7669	4730.5	3844.2
959.4721	2313.2031	4717.6	3829.35
959.6043	2314.6387	4700.45	3807.3
959.7365	2316.0735	4685.1	3794.5
959.8686	2317.5076	4688.3	3797.95
960.0006	2318.941	4675.1	3783.65
960.1327	2320.3737	4662.7	3768.55
960.2647	2321.8056	4637.1	3743.75
960.3967	2323.2369	4646.05	3756
960.5287	2324.6674	4631.05	3739.35
960.6606	2326.0972	4612.7	3721.55
960.7925	2327.5263	4602.95	3713
960.9244	2328.9547	4594.45	3702.25
961.0562	2330.3823	4564.4	3670.35
961.1881	2331.8092	4572.65	3675.45
961.3198	2333.2355	4553.45	3660.2
961.4516	2334.661	4545.6	3653.15
961.5833	2336.0858	4534.3	3641.9
961.715	2337.5098	4532.6	3642.8
961.8467	2338.9332	4510.85	3619.55
961.9783	2340.3558	4489.75	3596
962.1099	2341.7778	4465.7	3576
962.2415	2343.199	4476.8	3585
962.373	2344.6195	4452.75	3564.6
962.5045	2346.0393	4451.8	3560.35
962.636	2347.4583	4442.85	3551.75
962.7675	2348.8767	4434.5	3542.85
962.8989	2350.2943	4420.5	3526.8
963.0303	2351.7113	4430.65	3537.5
963.1617	2353.1275	4406.35	3511.1
963.293	2354.543	4421.7	3504.85
963.4243	2355.9578	4380.25	3487.05
963.5556	2357.3718	4349.1	3457.4
963.6868	2358.7852	4331	3438.7
963.818	2360.1978	4340.45	3450.95
963.9492	2361.6098	4333.45	3442.4
964.0803	2363.021	4314.8	3419.35
964.2114	2364.4315	4311.95	3420.95
964.3425	2365.8413	4287.2	3395.6
964.4736	2367.2504	4278.65	3391.45
964.6046	2368.6587	4249.75	3360.5
964.7356	2370.0664	4240	3351.1
964.8666	2371.4733	4234.8	3343.65
964.9975	2372.8795	4236.7	3345.85
965.1284	2374.285	4206.5	3316.85
965.2593	2375.6899	4204	3313
965.3901	2377.0939	4189.55	3299.6
965.5209	2378.4973	4176.9	3287.05
965.6517	2379.9	4160.2	3269.05
965.7825	2381.3019	4156.9	3265.55
965.9132	2382.7032	4150.7	3262.65
966.0439	2384.1037	4131.3	3245.3
966.1745	2385.5035	4126.65	3239.35
966.3051	2386.9027	4110.1	3222.2
966.4357	2388.3011	4110.6	3217.25
966.5663	2389.6987	4081.45	3192.45
966.6968	2391.0957	4080.9	3192.2
966.8273	2392.492	4062.2	3172.55
966.9578	2393.8876	4026.95	3137.55
967.0882	2395.2824	4014.2	3125.7
967.2186	2396.6765	4011.6	3122.55
967.349	2398.07	3995.8	3105.75
967.4793	2399.4627	4001.1	3106.65
967.6097	2400.8547	3994.5	3104.1
967.7399	2402.246	3983.1	3086.7
967.8702	2403.6366	3965.05	3074.25
968.0004	2405.0265	3957.9	3067.15
968.1306	2406.4156	3957.05	3063.65
968.2607	2407.8041	3922	3027.45
968.3909	2409.1918	3919.5	3025.05
968.521	2410.5789	3898.3	3006.35
968.651	2411.9652	3907.05	3013.75
968.781	2413.3508	3893.55	3003.8
968.911	2414.7358	3886.75	2995.35
969.041	2416.12	3853.25	2964
969.1709	2417.5035	3846.25	2955.8
969.3008	2418.8863	3838	2944.4
969.4307	2420.2684	3830.45	2939.1
969.5606	2421.6497	3809.7	2917.1
969.6904	2423.0304	3802.9	2913.95
969.8201	2424.4104	3807.35	2915.9
969.9499	2425.7896	3781.4	2888.45
970.0796	2427.1682	3781.95	2893.25
970.2093	2428.546	3756.45	2866.05
970.3389	2429.9232	3755.5	2862.9
970.4685	2431.2996	3748.95	2858.3
970.5981	2432.6753	3749.25	2858.1
970.7277	2434.0503	3745.75	2853.45
970.8572	2435.4246	3713.85	2822.7
970.9867	2436.7982	3695.2	2802.6
971.1161	2438.1711	3709.95	2820.45
971.2456	2439.5433	3692.1	2800.8
971.375	2440.9148	3694.7	2800.7
971.5043	2442.2856	3665.6	2774.05
971.6336	2443.6557	3660.65	2768.35
971.7629	2445.025	3636.2	2744
971.8922	2446.3937	3649.75	2758.4
972.0214	2447.7617	3629.65	2738.2
972.1506	2449.1289	3620.7	2729.9
972.2798	2450.4955	3608.5	2714.15
972.4089	2451.8613	3614.05	2725
972.538	2453.2265	3602.95	2716.65
972.6671	2454.5909	3583.95	2692.05
972.7961	2455.9546	3582.15	2690.9
972.9251	2457.3177	3569.95	2678.7
973.0541	2458.68	3557.4	2665.45
973.1831	2460.0416	3556.45	2665.5
973.312	2461.4025	3538.7	2646.85
973.4408	2462.7627	3544.85	2643.4
973.5697	2464.1222	3525.55	2638.2
973.6985	2465.4811	3522.9	2633.3
973.8273	2466.8392	3508	2619.65
973.956	2468.1966	3505.95	2613.1
974.0847	2469.5533	3514.4	2619.85
974.2134	2470.9093	3493.2	2603.3
974.3421	2472.2645	3483.5	2590.7
974.4707	2473.6191	3484.35	2595.4
974.5993	2474.973	3472.65	2581.15
974.7278	2476.3262	3458.45	2567
974.8563	2477.6787	3454.1	2565.15
974.9848	2479.0305	3434.85	2545.8
975.1132	2480.3816	3433.95	2542.4
975.2417	2481.7319	3421.55	2531.3
975.37	2483.0816	3403.9	2512.2
975.4984	2484.4306	3397.65	2508.2
975.6267	2485.7789	3399	2510.6
975.755	2487.1264	3390.75	2497.05
975.8833	2488.4733	3382.6	2496.4
976.0115	2489.8195	3376	2468.6
976.1397	2491.165	3355.9	2462.05
976.2678	2492.5097	3346.25	2452.6
976.3959	2493.8538	3319.85	2430.5
976.524	2495.1972	3313.05	2422.7
976.6521	2496.5398	3313.3	2420.9
976.7801	2497.8818	3301.65	2408.35
976.9081	2499.2231	3296.25	2406.75
977.036	2500.5637	3280.45	2386.7
977.164	2501.9035	3279.25	2387.3
977.2918	2503.2427	3277.75	2381.6
977.4197	2504.5812	3254.4	2365
977.5475	2505.919	3260.05	2367.85
977.6753	2507.256	3253.9	2362.4
977.8031	2508.5924	3230.3	2340.65
977.9308	2509.9281	3231.5	2335.55
978.0585	2511.2631	3230.05	2339.8
978.1861	2512.5974	3208.45	2317.75
978.3137	2513.9309	3195.1	2302.75
978.4413	2515.2638	3212.75	2295
978.5689	2516.596	3195.1	2304.75
978.6964	2517.9275	3169.75	2278.5
978.8239	2519.2583	3167.35	2275.9
978.9513	2520.5884	3160.6	2267.8
979.0788	2521.9178	3147.15	2257.25
979.2062	2523.2465	3146.4	2258.15
979.3335	2524.5745	3136.8	2248.9
979.4608	2525.9018	3131.45	2240.8
979.5881	2527.2284	3121.55	2232.2
979.7154	2528.5543	3120.95	2231.3
979.8426	2529.8796	3106.9	2214.35
979.9698	2531.2041	3107.55	2217.6
980.0969	2532.5279	3100.95	2210.5
980.224	2533.851	3110.05	2219.55
980.3511	2535.1735	3092.55	2203.35
980.4781	2536.4952	3088.25	2198.05
980.6052	2537.8163	3083.1	2191.45
980.7321	2539.1366	3057.55	2165.15
980.8591	2540.4562	3074.1	2181.75
980.986	2541.7752	3062.15	2170.7
981.1129	2543.0935	3058	2167.75
981.2397	2544.411	3056.3	2163.25
981.3665	2545.7279	3043.85	2153.45
981.4933	2547.0441	3028.3	2137.45
981.62	2548.3596	3036.5	2143.65
981.7467	2549.6744	3054.25	2164.15
981.8734	2550.9885	3018.55	2127.25
982.0001	2552.3019	3017.1	2124.95
982.1267	2553.6146	3008.95	2117.55
982.2532	2554.9266	3002.55	2113.15
982.3798	2556.2379	2990.05	2100.4
982.5063	2557.5485	2980.9	2092.3
982.6327	2558.8585	2982.35	2085.15
982.7592	2560.1677	2991.6	2095.05
982.8856	2561.4762	2983.55	2093.65
983.0119	2562.7841	2983.25	2090.35
983.1383	2564.0913	2972.5	2082.6
983.2646	2565.3977	2957.1	2067.05
983.3908	2566.7035	2953.65	2061.6
983.517	2568.0086	2959.7	2065.8
983.6432	2569.313	2950.9	2058.4
983.7694	2570.6167	2948.65	2054.3
983.8955	2571.9197	2927.35	2036.6
984.0216	2573.222	2928.45	2034
984.1476	2574.5236	2924.2	2033.65
984.2737	2575.8246	2926.4	2035.15
984.3996	2577.1248	2924.9	2032.05
984.5256	2578.4244	2900.15	2008.45
984.6515	2579.7232	2904	2015.75
984.7774	2581.0214	2916.6	1995.85
984.9032	2582.3189	2898.55	2008.6
985.029	2583.6157	2893	1999.25
985.1548	2584.9118	2886.75	1993.9
985.2806	2586.2072	2882.7	1992.5
985.4063	2587.5019	2875.5	1983.8
985.5319	2588.7959	2880.95	1989.25
985.6576	2590.0893	2861.65	1970.7
985.7832	2591.3819	2868.5	1976.35
985.9087	2592.6739	2854.55	1964.55
986.0343	2593.9652	2853.5	1960.45
986.1597	2595.2557	2845.15	1954.6
986.2852	2596.5456	2839.7	1948.4
986.4106	2597.8348	2829.2	1939.9
986.536	2599.1234	2818.5	1930.5
986.6614	2600.4112	2819.05	1927.7
986.7867	2601.6983	2820.15	1924.2
986.912	2602.9848	2813.6	1923.7
987.0372	2604.2705	2804.2	1909.15
987.1624	2605.5556	2786.8	1895.3
987.2876	2606.84	2779.7	1891.75
987.4128	2608.1237	2778.6	1888.1
987.5379	2609.4067	2768.5	1880.8
987.6629	2610.689	2773	1875
987.788	2611.9707	2761.4	1867.55
987.913	2613.2516	2746.25	1851.2
988.0379	2614.5319	2735.05	1845.6
988.1629	2615.8115	2732.4	1841.15
988.2878	2617.0903	2718.9	1827.6
988.4126	2618.3685	2713.15	1824.2
988.5375	2619.6461	2708.2	1818.85
988.6622	2620.9229	2699.35	1810.55
988.787	2622.199	2698.15	1807.85
988.9117	2623.4745	2688.5	1797.8
989.0364	2624.7493	2679.25	1789.4
989.161	2626.0234	2685.5	1798.25
989.2857	2627.2968	2665.95	1775.45
989.4102	2628.5695	2666.6	1777.7
989.5348	2629.8415	2652.05	1763.3
989.6593	2631.1128	2651.4	1761.7
989.7837	2632.3835	2638.45	1747.7
989.9082	2633.6535	2630.25	1741.2
990.0326	2634.9228	2625	1736.8
990.1569	2636.1914	2622.55	1732.4
990.2812	2637.4593	2620.55	1731.45
990.4055	2638.7265	2613.4	1722.1
990.5298	2639.9931	2607.1	1718
990.654	2641.259	2590.65	1700.5
990.7782	2642.5242	2588.65	1699
990.9023	2643.7887	2589.3	1699
991.0264	2645.0525	2592.25	1703.3
991.1505	2646.3156	2588.9	1684.3
991.2745	2647.5781	2562.05	1673.3
991.3985	2648.8398	2549.25	1660.45
991.5225	2650.1009	2579.6	1667.2
991.6464	2651.3613	2546.95	1656
991.7703	2652.6211	2552.7	1664.45
991.8942	2653.8801	2546.9	1656.65
992.018	2655.1385	2537.3	1646.15
992.1418	2656.3961	2537.85	1648
992.2655	2657.6531	2528.6	1638.8
992.3892	2658.9094	2526.65	1637.8
992.5129	2660.1651	2518.5	1629.25
992.6366	2661.42	2520.8	1630.15
992.7602	2662.6743	2526.15	1634.9
992.8837	2663.9279	2513.35	1624.85
993.0073	2665.1808	2504.15	1615.5
993.1307	2666.433	2497.55	1608.95
993.2542	2667.6846	2510.8	1620
993.3776	2668.9354	2506.9	1614.1
993.501	2670.1856	2493.65	1603.4
993.6244	2671.4351	2493.1	1605.85
993.7477	2672.6839	2487.25	1596.7
993.8709	2673.9321	2488.25	1599.35
993.9942	2675.1795	2477.65	1587.35
994.1174	2676.4263	2480.35	1590.95
994.2405	2677.6724	2477	1590
994.3637	2678.9179	2465.5	1574.7
994.4868	2680.1626	2470.8	1581.3
994.6098	2681.4067	2462.75	1574.35
994.7328	2682.6501	2448.9	1559.75
994.8558	2683.8928	2449.4	1562.45
994.9788	2685.1348	2442.2	1554.7
995.1017	2686.3761	2439.3	1551.2
995.2245	2687.6168	2421.2	1532.55
995.3474	2688.8568	2424.25	1536.15
995.4702	2690.0961	2412.7	1525
995.5929	2691.3348	2411.25	1522.5
995.7156	2692.5727	2402.95	1514.2
995.8383	2693.81	2398.65	1511.1
995.961	2695.0466	2390.8	1503.65
996.0836	2696.2826	2388	1497.4
996.2062	2697.5178	2386	1494.9
996.3287	2698.7524	2382	1493.65
996.4512	2699.9863	2390.5	1499.45
996.5737	2701.2195	2379.7	1492.35
996.6961	2702.452	2378.55	1490.1
996.8185	2703.6839	2375.85	1487.2
996.9408	2704.9151	2377.35	1489.85
997.0631	2706.1456	2367.7	1478.25
997.1854	2707.3755	2376.5	1486.1
997.3077	2708.6046	2374.95	1482.3
997.4299	2709.8331	2361.25	1472.4
997.552	2711.0609	2363.8	1474.25
997.6742	2712.2881	2366.4	1478.4
997.7963	2713.5145	2378.6	1489.85
997.9183	2714.7403	2372.55	1485.85
998.0403	2715.9654	2360.2	1470.55
998.1623	2717.1899	2390	1489.7
998.2842	2718.4136	2371.3	1483.95
998.4062	2719.6367	2376.45	1488.2
998.528	2720.8591	2387.75	1491.9
998.6498	2722.0809	2371.35	1482
998.7716	2723.3019	2377.85	1485.75
998.8934	2724.5223	2380.35	1491.15
999.0151	2725.7421	2379.5	1490.4
999.1368	2726.9611	2376	1486.55
999.2584	2728.1795	2376.55	1483.55
999.38	2729.3972	2367.2	1477.7
999.5016	2730.6142	2353.8	1462.1
999.6231	2731.8306	2335.15	1444.7
999.7446	2733.0462	2326.6	1437.65
999.8661	2734.2612	2316.5	1423.7
999.9875	2735.4756	2295.05	1406
1000.1089	2736.6892	2286.05	1397.05
1000.2302	2737.9022	2267.2	1380.9
1000.3515	2739.1145	2258.55	1368.75
1000.4728	2740.3262	2246.35	1350.9
1000.594	2741.5372	2235.5	1347.55
1000.7152	2742.7475	2221.15	1334.1
1000.8363	2743.9571	2203.65	1313
1000.9575	2745.1661	2208.8	1316.35
1001.0785	2746.3744	2190.6	1302.05
1001.1996	2747.582	2187.9	1301.15
1001.3206	2748.7889	2174.7	1285.65
1001.4415	2749.9952	2168.15	1281.1
1001.5625	2751.2008	2163.05	1274.05
1001.6833	2752.4057	2154.45	1265.55
1001.8042	2753.61	2154.85	1268.8
1001.925	2754.8136	2154.1	1264.05
1002.0458	2756.0165	2136.85	1249.7
1002.1665	2757.2188	2138.75	1252.35
1002.2872	2758.4204	2132.65	1245.65
1002.4078	2759.6213	2121.1	1232
1002.5285	2760.8215	2132.25	1241.3
1002.649	2762.0211	2130	1242.65
1002.7696	2763.22	2112.4	1220.85
1002.8901	2764.4182	2105.9	1217.9
1003.0106	2765.6158	2110.35	1222.2
1003.131	2766.8127	2094.5	1208
1003.2514	2768.009	2099.5	1212.15
1003.3717	2769.2045	2089.45	1200.3
1003.492	2770.3994	2075.7	1184.7
1003.6123	2771.5936	2083.6	1195.2
1003.7325	2772.7872	2068.35	1181.4
1003.8527	2773.9801	2070.2	1182.85
1003.9729	2775.1723	2085.15	1181.5
1004.093	2776.3639	2064.85	1179.1
1004.2131	2777.5548	2058.7	1168.05
1004.3331	2778.745	2049.95	1161.6
1004.4531	2779.9346	2039.7	1154
1004.5731	2781.1235	2045.45	1158.25
1004.693	2782.3117	2052.5	1165.8
1004.8129	2783.4992	2038.45	1151.95
1004.9328	2784.6861	2035.6	1148
1005.0526	2785.8723	2036.6	1146.05
1005.1723	2787.0579	2031.8	1144.75
1005.2921	2788.2428	2029.4	1142.1
1005.4118	2789.427	2037.4	1152.05
1005.5314	2790.6106	2027.25	1137.2
1005.651	2791.7935	2030.6	1141.05
1005.7706	2792.9757	2041.55	1156.3
1005.8902	2794.1573	2042	1153.3
1006.0097	2795.3382	2039.55	1153.1
1006.1291	2796.5184	2046.2	1160.55
1006.2485	2797.698	2047.7	1159.65
1006.3679	2798.8769	2049.85	1162.4
1006.4873	2800.0551	2051.35	1164.55
1006.6066	2801.2327	2058.15	1169.85
1006.7258	2802.4096	2059.9	1173.85
1006.8451	2803.5859	2068	1180.25
1006.9642	2804.7615	2077.35	1189.65
1007.0834	2805.9364	2080.35	1192.75
1007.2025	2807.1106	2089.5	1204.15
1007.3216	2808.2842	2112.75	1226.2
1007.4406	2809.4572	2123.1	1237.35
1007.5596	2810.6294	2135.7	1249.4
1007.6785	2811.801	2154.6	1267.25
1007.7975	2812.972	2175.75	1289.7
1007.9163	2814.1423	2196.65	1308.8
1008.0352	2815.3119	2227.65	1338.4
1008.154	2816.4808	2260.75	1375.4
1008.2727	2817.6491	2288.95	1400.9
1008.3914	2818.8167	2308.7	1422.45
1008.5101	2819.9837	2350.85	1461.4
1008.6288	2821.15	2383.7	1497.8
1008.7474	2822.3157	2421.4	1537.5
1008.8659	2823.4807	2445.15	1557.5
1008.9844	2824.645	2500.1	1613.2
1009.1029	2825.8086	2527.85	1641.7
1009.2214	2826.9716	2550.05	1666.35
1009.3398	2828.134	2593.35	1707.7
1009.4581	2829.2957	2625.05	1738.55
1009.5764	2830.4567	2647.65	1762.75
1009.6947	2831.617	2649.9	1763.85
1009.813	2832.7767	2660.2	1774.6
1009.9312	2833.9358	2662.7	1777.55
1010.0493	2835.0941	2651.75	1762.7
1010.1675	2836.2519	2638.9	1754.15
1010.2855	2837.4089	2626.7	1741.25
1010.4036	2838.5653	2601.1	1714.85
1010.5216	2839.7211	2600.2	1715.75
1010.6396	2840.8761	2599.15	1711.3
1010.7575	2842.0306	2585.35	1700.15
1010.8754	2843.1843	2601.55	1715.75
1010.9932	2844.3374	2625.7	1737.7
1011.111	2845.4899	2650.7	1762.3
1011.2288	2846.6417	2684.75	1798.1
1011.3465	2847.7928	2723.15	1837.9
1011.4642	2848.9433	2761.05	1875.4
1011.5818	2850.0931	2776.65	1891.45
1011.6995	2851.2422	2842.9	1956.7
1011.817	2852.3907	2875	1988.6
1011.9345	2853.5385	2913.1	2026.2
1012.052	2854.6857	2934.6	2039.3
1012.1695	2855.8323	2964.2	2076.85
1012.2869	2856.9781	2994.7	2110.85
1012.4042	2858.1233	3028.05	2142.1
1012.5216	2859.2679	3057.85	2173.35
1012.6389	2860.4118	3087.6	2202
1012.7561	2861.555	3122.35	2231.7
1012.8733	2862.6976	3140.65	2253.7
1012.9905	2863.8395	3149.5	2264.8
1013.1076	2864.9808	3189.15	2302.25
1013.2247	2866.1214	3187.05	2302.5
1013.3417	2867.2614	3206.2	2321.6
1013.4587	2868.4007	3217.4	2330.5
1013.5757	2869.5393	3220	2332.35
1013.6926	2870.6773	3229.4	2341.25
1013.8095	2871.8146	3230.8	2343.55
1013.9263	2872.9513	3244.2	2357.55
1014.0431	2874.0874	3216.4	2332
1014.1599	2875.2227	3205.3	2320
1014.2766	2876.3574	3188.3	2302.7
1014.3933	2877.4915	3167.15	2281.75
1014.51	2878.6249	3155.7	2271.05
1014.6266	2879.7577	3129.7	2241.75
1014.7431	2880.8898	3135.9	2237.1
1014.8596	2882.0212	3110	2223.85
1014.9761	2883.152	3096.7	2211.7
1015.0925	2884.2821	3089	2202.35
1015.2089	2885.4116	3075	2192.4
1015.3253	2886.5405	3083.5	2197.3
1015.4416	2887.6686	3076.75	2188.85
1015.5579	2888.7962	3073.15	2188.5
1015.6741	2889.923	3085.5	2200
1015.7903	2891.0493	3092.95	2206.65
1015.9065	2892.1748	3105.1	2221.15
1016.0226	2893.2997	3087.75	2200.75
1016.1387	2894.424	3099.7	2217.4
1016.2547	2895.5476	3112.55	2225.6
1016.3707	2896.6706	3116.05	2232.55
1016.4866	2897.7929	3123.75	2239.5
1016.6025	2898.9145	3145.75	2259.25
1016.7184	2900.0355	3157.9	2270.55
1016.8342	2901.1559	3171.15	2285.55
1016.95	2902.2756	3187.6	2303.05
1017.0658	2903.3946	3211.65	2327.45
1017.1815	2904.513	3225.35	2336.95
1017.2971	2905.6308	3227.05	2341.8
1017.4127	2906.7479	3238	2353.5
1017.5283	2907.8643	3249.95	2364.55
1017.6439	2908.9801	3261.5	2377.6
1017.7594	2910.0953	3272.15	2387
1017.8748	2911.2098	3258	2369.6
1017.9902	2912.3236	3262.2	2370.85
1018.1056	2913.4368	3260.55	2371.15
1018.2209	2914.5494	3225.9	2341.5
1018.3362	2915.6613	3211	2321.45
1018.4515	2916.7725	3193.9	2306
1018.5667	2917.8831	3159.4	2273.55
1018.6819	2918.9931	3140.45	2253.1
1018.797	2920.1024	3134	2247.25
1018.9121	2921.211	3100.55	2216.1
1019.0271	2922.319	3093.45	2208.45
1019.1421	2923.4264	3084.8	2200.95
1019.2571	2924.5331	3075.75	2193.2
1019.372	2925.6391	3064.25	2180.8
1019.4869	2926.7445	3058.9	2176.3
1019.6017	2927.8493	3067.95	2183.5
1019.7165	2928.9534	3071.65	2186.75
1019.8313	2930.0569	3072.05	2184.75
1019.946	2931.1597	3069.8	2183.5
1020.0606	2932.2619	3065.65	2181.95
1020.1753	2933.3634	3071.7	2190.25
1020.2899	2934.4643	3084.45	2194.7
1020.4044	2935.5645	3074	2183.1
1020.5189	2936.6641	3058.5	2167.75
1020.6334	2937.763	3018.25	2135
1020.7478	2938.8613	2997.05	2111.35
1020.8622	2939.959	2980.35	2090.2
1020.9765	2941.056	2923.15	2039.8
1021.0908	2942.1523	2885.3	1999.2
1021.2051	2943.248	2823.55	1939.2
1021.3193	2944.3431	2759.65	1873.1
1021.4334	2945.4375	2701.65	1816.1
1021.5476	2946.5313	2640.05	1757.05
1021.6617	2947.6244	2579.4	1694.9
1021.7757	2948.7169	2494.15	1607.7
1021.8897	2949.8087	2440.3	1554.8
1022.0037	2950.8999	2374.3	1488.65
1022.1176	2951.9904	2332.55	1448.05
1022.2315	2953.0803	2283.95	1398.5
1022.3453	2954.1696	2236.6	1352.35
1022.4591	2955.2582	2194.9	1311.6
1022.5728	2956.3462	2168.45	1283.35
1022.6865	2957.4335	2137.05	1252.9
1022.8002	2958.5202	2115	1227.9
1022.9138	2959.6062	2098.6	1212.9
1023.0274	2960.6916	2079.65	1196.55
1023.141	2961.7764	2052.35	1167.3
1023.2545	2962.8605	2051.1	1166.4
1023.3679	2963.9439	2046.2	1162.6
1023.4813	2965.0267	2033.7	1147.3
1023.5947	2966.1089	2046.75	1138.65
1023.708	2967.1905	2008.1	1124.5
1023.8213	2968.2714	2013.75	1128.75
1023.9346	2969.3516	2011.25	1127.4
1024.0478	2970.4312	2018.3	1128.3
1024.1609	2971.5102	2015.6	1129.55
1024.274	2972.5885	2008.55	1124.4
1024.3871	2973.6662	2011.8	1122
1024.5002	2974.7432	2020.55	1137.35
1024.6132	2975.8196	2016.5	1131.15
1024.7261	2976.8954	2006.45	1123.9
1024.839	2977.9705	1988.55	1104
1024.9519	2979.045	1990.6	1108.85
1025.0647	2980.1188	1983.65	1099.4
1025.1775	2981.192	1957.65	1077.15
1025.2902	2982.2645	1943.1	1058.55
1025.4029	2983.3364	1938.1	1052.7
1025.5156	2984.4077	1908.8	1025.45
1025.6282	2985.4783	1898.25	1007.4
1025.7407	2986.5483	1870.65	987.45
1025.8532	2987.6177	1849.85	966.45
1025.9657	2988.6864	1830.25	945.45
1026.0782	2989.7545	1805.85	919.85
1026.1906	2990.8219	1788.1	905.05
1026.3029	2991.8887	1764.75	880.55
1026.4152	2992.9548	1740.6	855.4
1026.5275	2994.0204	1721.15	837.9
1026.6397	2995.0852	1692.05	809.05
1026.7519	2996.1495	1672.05	785.6
1026.864	2997.2131	1653.95	770.65
1026.9761	2998.276	1640.7	757.75
1027.0882	2999.3383	1622.1	737.15
1027.2002	3000.4	1601.65	717
1027.3122	3001.4611	1591.4	707.45
1027.4241	3002.5215	1585.95	701.85
1027.536	3003.5812	1565.1	680.85
1027.6478	3004.6404	1551.6	665.5
1027.7596	3005.6989	1550.3	665.4
1027.8714	3006.7567	1535.95	652
1027.9831	3007.8139	1551.95	648.05
1028.0947	3008.8705	1524.9	638.35
1028.2064	3009.9264	1532.35	630
1028.3179	3010.9818	1511.7	627.85
1028.4295	3012.0364	1503.4	620.4
1028.541	3013.0905	1498.9	614.9
1028.6524	3014.1439	1491.05	608.45
1028.7638	3015.1966	1488.9	604.8
1028.8752	3016.2487	1482.35	597.85
1028.9865	3017.3002	1492.9	605
1029.0978	3018.3511	1476.05	593.55
1029.209	3019.4013	1468.25	584.7
1029.3202	3020.4509	1474.4	591.7
1029.4314	3021.4998	1467.3	584.4
1029.5425	3022.5481	1462.15	581.5
1029.6535	3023.5958	1465.75	581.4
1029.7645	3024.6428	1464.65	578.95
1029.8755	3025.6892	1459.8	576.45
1029.9864	3026.735	1461.85	579.45
1030.0973	3027.7802	1458.5	574.4
1030.2082	3028.8247	1455.2	571.55
1030.319	3029.8685	1451.05	567.65
1030.4297	3030.9118	1450.8	564.85
1030.5404	3031.9544	1458	574.55
1030.6511	3032.9963	1449.25	565.9
1030.7617	3034.0376	1442.75	557.85
1030.8723	3035.0783	1454.7	568.45
1030.9829	3036.1184	1456.95	571.05
1031.0934	3037.1578	1451.05	569.7
1031.2038	3038.1966	1459.25	575.15
1031.3142	3039.2348	1454.4	571.15
1031.4246	3040.2723	1459.85	567.35
1031.5349	3041.3092	1446.6	564.35
1031.6452	3042.3455	1441.3	557.9
1031.7554	3043.3811	1443.7	557.7
1031.8656	3044.4161	1445.1	561.7
1031.9758	3045.4505	1437.45	555.15
1032.0859	3046.4842	1438.65	552.95
1032.1959	3047.5173	1435.35	554.25
1032.3059	3048.5498	1430.55	545.35
1032.4159	3049.5816	1432.4	549.2
1032.5258	3050.6128	1426.25	541.25
1032.6357	3051.6434	1430.6	544.25
1032.7455	3052.6734	1417.4	532.05
1032.8553	3053.7027	1421.1	538.7
1032.9651	3054.7314	1417.3	536.05
1033.0748	3055.7594	1415.35	532.25
1033.1845	3056.7868	1405.3	521.45
1033.2941	3057.8136	1405.9	522.7
1033.4037	3058.8398	1404.45	523
1033.5132	3059.8653	1396.35	513.5
1033.6227	3060.8902	1392.8	510.6
1033.7321	3061.9145	1392.25	509.15
1033.8415	3062.9381	1387.65	503.25
1033.9509	3063.9612	1401.65	501.75
1034.0602	3064.9835	1378.35	495.75
1034.1694	3066.0053	1382.05	497.45
1034.2787	3067.0264	1380.7	498.05
1034.3878	3068.0469	1377.3	493.5
1034.497	3069.0668	1363.1	476.7
1034.6061	3070.086	1361.35	477.85
1034.7151	3071.1046	1364.5	480.05
1034.8241	3072.1226	1355.5	469.55
1034.9331	3073.1399	1348.95	466.45
1035.042	3074.1567	1352.6	467
1035.1508	3075.1727	1334.75	450.75
1035.2597	3076.1882	1332.45	448.4
1035.3684	3077.203	1331.75	451.55
1035.4772	3078.2173	1317.85	430.6
1035.5859	3079.2308	1321.85	436.4
1035.6945	3080.2438	1317.1	431.15
1035.8031	3081.2561	1304.15	422.3
1035.9117	3082.2678	1301.35	417.55
1036.0202	3083.2789	1295.25	414.1
1036.1286	3084.2893	1289.6	406.3
1036.2371	3085.2991	1291.2	408.15
1036.3454	3086.3083	1289.55	401.35
1036.4538	3087.3169	1280.85	395.65
1036.562	3088.3248	1275.65	392.65
1036.6703	3089.3321	1275.8	391.5
1036.7785	3090.3388	1265.3	383.3
1036.8866	3091.3449	1260.9	378.4
1036.9948	3092.3503	1260.4	375.05
1037.1028	3093.3551	1257.95	376.8
1037.2108	3094.3593	1254.8	373.6
1037.3188	3095.3629	1258.35	375.55
1037.4267	3096.3658	1250.15	366.05
1037.5346	3097.3681	1249.75	368.1
1037.6425	3098.3698	1247.35	361.35
1037.7503	3099.3708	1241.6	351.3
1037.858	3100.3713	1232.9	350
1037.9657	3101.3711	1239.75	355.1
1038.0734	3102.3702	1371.55	346.85
1038.181	3103.3688	1228.9	343.45
1038.2886	3104.3667	1222.25	339.85
1038.3961	3105.364	1224.3	342.15
1038.5036	3106.3607	1223.4	338.15
1038.611	3107.3568	1226.55	342.15
1038.7184	3108.3522	1217.7	335.2
1038.8257	3109.347	1209.2	324.4
1038.933	3110.3412	1219.55	330.15
1039.0403	3111.3348	1208.75	325.7
1039.1475	3112.3277	1200.9	318.45
1039.2547	3113.32	1197.95	314.75
1039.3618	3114.3117	1200.1	316.25
1039.4689	3115.3028	1196.65	315.45
1039.5759	3116.2932	1197.4	312.95
1039.6829	3117.2831	1198.4	311.25
1039.7898	3118.2723	1194.2	310.8
1039.8967	3119.2608	1193.25	310.7
1040.0035	3120.2488	1186.35	301.5
1040.1103	3121.2361	1183.6	302.25
1040.2171	3122.2229	1182.55	299.85
1040.3238	3123.209	1182.6	301.85
1040.4305	3124.1944	1175.5	293.35
1040.5371	3125.1793	1180.6	294.7
1040.6437	3126.1635	1177.05	296.95
1040.7502	3127.1471	1172.95	292.75
1040.8567	3128.1301	1172.05	289.9
1040.9631	3129.1125	1168.3	287.5
1041.0695	3130.0942	1162.55	278.85
1041.1759	3131.0753	1178.7	288.6
1041.2822	3132.0558	1170.7	284.6
1041.3884	3133.0357	1163.95	281.85
1041.4946	3134.015	1162.5	278.45
1041.6008	3134.9936	1169.45	284
1041.7069	3135.9716	1177.95	273.35
1041.813	3136.949	1153.55	269.55
1041.919	3137.9258	1171.2	269.7
1042.025	3138.902	1159.45	272.6
1042.1309	3139.8775	1151.95	269.1
1042.2368	3140.8524	1149.65	267.45
1042.3427	3141.8267	1150.65	266
1042.4485	3142.8004	1150.35	267.25
1042.5542	3143.7735	1161.55	273.65
1042.6599	3144.7459	1151.95	267.1
1042.7656	3145.7178	1139.1	254.4
1042.8712	3146.689	1137.25	255.8
1042.9768	3147.6596	1142.3	256.5
1043.0823	3148.6295	1139.9	256.7
1043.1878	3149.5989	1136.9	254.4
1043.2932	3150.5676	1136.45	254.6
1043.3986	3151.5357	1131.25	250.75
1043.5039	3152.5032	1137.8	254.15
1043.6092	3153.4701	1132.65	249.25
1043.7145	3154.4364	1133.6	248.8
1043.8197	3155.402	1132.4	250.05
1043.9248	3156.367	1124.95	241
1044.03	3157.3315	1159.05	240.3
1044.135	3158.2952	1125.85	241.05
1044.24	3159.2584	1124.3	243.4
1044.345	3160.221	1116.8	234.8
1044.4499	3161.1829	1118.6	235.35
1044.5548	3162.1442	1115.1	233.85
1044.6596	3163.105	1119.35	236.1
1044.7644	3164.065	1115.45	233.5
1044.8692	3165.0245	1119.35	233.3
1044.9739	3165.9834	1113.2	232.5
1045.0785	3166.9416	1111.4	228.65
1045.1831	3167.8993	1111.6	228.5
1045.2877	3168.8563	1112.25	230.3
1045.3922	3169.8127	1108.5	227
1045.4966	3170.7684	1106.05	224.35
1045.6011	3171.7236	1109.25	225.05
1045.7054	3172.6782	1102.8	220.15
1045.8098	3173.6321	1101.4	218.1
1045.914	3174.5854	1110.25	223.65
1046.0183	3175.5381	1098.2	214.85
1046.1224	3176.4902	1099	218.2
1046.2266	3177.4417	1102.85	221.65
1046.3307	3178.3926	1093.1	210.35
1046.4347	3179.3428	1094.1	212
1046.5387	3180.2924	1094.95	214.05
1046.6427	3181.2415	1091.05	205.9
1046.7466	3182.1899	1094.7	211.75
1046.8504	3183.1377	1095.05	214.15
1046.9542	3184.0848	1091.4	206.45
1047.058	3185.0314	1086.95	205.5
1047.1617	3185.9773	1087.85	204.4
1047.2654	3186.9227	1090.35	207.8
1047.369	3187.8674	1089.3	206.35
1047.4726	3188.8115	1087.15	199.9
1047.5761	3189.755	1083.6	202.1
1047.6796	3190.6979	1080.4	199.55
1047.783	3191.6402	1082.6	202.1
1047.8864	3192.5818	1081.95	200.4
1047.9898	3193.5229	1082.2	191.2
1048.0931	3194.4633	1080.6	198.3
1048.1963	3195.4031	1071.9	188.9
1048.2995	3196.3423	1073.1	191.7
1048.4027	3197.2809	1071.15	187.5
1048.5058	3198.2189	1072.65	190.45
1048.6089	3199.1563	1078.45	189.3
1048.7119	3200.0931	1071.95	189.15
1048.8148	3201.0292	1065.75	183.25
1048.9178	3201.9648	1067.85	185.45
1049.0206	3202.8997	1071.25	186.35
1049.1235	3203.834	1065.8	182.45
1049.2262	3204.7677	1065.1	184.35
1049.329	3205.7008	1065.95	184.05
1049.4317	3206.6333	1065.55	185.4
1049.5343	3207.5652	1066.8	182.1
1049.6369	3208.4964	1065.1	181.85
1049.7394	3209.4271	1059.9	179.1
1049.8419	3210.3571	1059	175.6
1049.9444	3211.2865	1059.9	175.65
1050.0468	3212.2154	1061.05	177.65
1050.1491	3213.1436	1061.55	176.25
1050.2514	3214.0712	1061.3	172
1050.3537	3214.9982	1052.9	169.25
1050.4559	3215.9246	1057.25	174.9
1050.5581	3216.8503	1051.4	172.95
1050.6602	3217.7755	1055.6	173.45
1050.7623	3218.7001	1052.85	169.35
1050.8643	3219.624	1051.5	168.65
1050.9663	3220.5473	1050.95	167.65
1051.0682	3221.4701	1051.05	166.15
1051.1701	3222.3922	1052.85	168.75
1051.2719	3223.3137	1051.7	170.05
1051.3737	3224.2346	1047.25	164.35
1051.4754	3225.1549	1047.6	166.65
1051.5771	3226.0746	1043.6	162.95
1051.6788	3226.9937	1047.35	165.9
1051.7804	3227.9121	1040.5	160.1
1051.8819	3228.83	1042.35	160.1
1051.9834	3229.7473	1043.7	158.6
1052.0849	3230.6639	1042.95	160.3
1052.1863	3231.5799	1041.15	159.4
1052.2876	3232.4954	1038.85	156.3
1052.3889	3233.4102	1039	156.8
1052.4902	3234.3244	1038.1	155.5
1052.5914	3235.238	1039.55	157.6
1052.6926	3236.151	1062.15	155.2
1052.7937	3237.0634	1029.7	147.95
1052.8948	3237.9752	1034.2	151.65
1052.9958	3238.8864	1036.15	154.45
1053.0968	3239.797	1032.6	151
1053.1977	3240.7069	1032.95	149.25
1053.2986	3241.6163	1030.8	148.7
1053.3994	3242.5251	1030.85	149.8
1053.5002	3243.4332	1027.2	146.35
1053.6009	3244.3408	1029	147.1
1053.7016	3245.2477	1024	142.3
1053.8022	3246.154	1022.75	138.35
1053.9028	3247.0598	1027.7	145.3
1054.0034	3247.9649	1019.25	134.65
1054.1039	3248.8694	1023.15	142.15
1054.2043	3249.7733	1023.7	139.8
1054.3047	3250.6766	1020.7	139.95
1054.4051	3251.5793	1020.4	136.5
1054.5054	3252.4814	1015.45	136.2
1054.6056	3253.3829	1017.3	136.65
1054.7058	3254.2838	1015.6	133.5
1054.806	3255.1841	1016.55	135.4
1054.9061	3256.0838	1014.9	134.15
1055.0061	3256.9829	1009.55	127
1055.1062	3257.8814	1013.55	129.5
1055.2061	3258.7792	1011.15	126.5
1055.306	3259.6765	1011.8	128.65
1055.4059	3260.5731	1010.65	127.6
1055.5057	3261.4692	1006.7	124.25
1055.6055	3262.3647	1006.15	124.15
1055.7052	3263.2595	999.15	116.1
1055.8049	3264.1538	1000.1	117.55
1055.9045	3265.0474	1000.85	117.6
1056.0041	3265.9404	998.55	115.75
1056.1036	3266.8329	995.6	115.65
1056.2031	3267.7247	1001.15	106.25
1056.3025	3268.616	989.3	108.05
1056.4019	3269.5066	989	106.1
1056.5013	3270.3966	988.1	104.6
1056.6005	3271.286	981	98.85
