Software Version:	3.9.2.0
Unit SN:	10000200
Spectrometer SN:	6960
Date:	3/26/2024 2:24:40 PM
Data Line Index:	25
Spectral Points:	2048
Integration time (ms):	125
Averages:	20
Delay (ms):	30000
Sequence Number:	1
Processing:	dark subtract
Laser Power (mW):	300
Laser Current (mA):	820
Laser Diode Temp (C):	25
Laser Case Temp (C):	27.7
System Temp (C):	27.7
Spectrometer Temp (C):	25.6
CCD Temp (C):	0.004
Secondary Temp (C):	20.008
Heatsink Temp (C):	23.407
CCDPCB Temp (C):	37.185
SecondaryPCB Temp (C):	34.695

Wavelength	RamanShift	Raw Counts	Dark Subtracted
787.061	30.1047	662.75	253.15
787.2016	32.3739	679.9	268.9
787.3422	34.6426	697.5	287.05
787.4828	36.9109	718.2	305.4
787.6235	39.1787	743.85	329.4
787.7642	41.4461	765.35	343.3
787.9049	43.7131	787.65	362.3
788.0456	45.9796	817.1	389.3
788.1863	48.2456	847.15	414.45
788.3271	50.5112	874.6	437.95
788.4679	52.7764	904.05	467.4
788.6087	55.0411	941.5	500.95
788.7496	57.3054	976.95	532.6
788.8904	59.5692	1010.55	560.8
789.0313	61.8326	1049.3	596.25
789.1722	64.0955	1096.6	638.6
789.3132	66.3579	1148	684.4
789.4541	68.6199	1213.5	749.5
789.5951	70.8815	1323.7	853.55
789.7361	73.1426	1547.8	1076.65
789.8771	75.4032	2104.3	1626.35
790.0181	77.6634	3466.5	2979.85
790.1592	79.9231	6991.85	6498.1
790.3003	82.1824	15052.45	14542.5
790.4414	84.4412	35761.65	35216.4
790.5825	86.6995	63402.35	62808.7
790.7237	88.9574	65535	64899.75
790.8648	91.2148	65535	64866.6
791.006	93.4717	65535	64845.6
791.1472	95.7282	65535	64831.8
791.2885	97.9842	65535	64831
791.4297	100.2398	65535	64829.6
791.571	102.4949	65535	64829.25
791.7123	104.7495	65535	64822
791.8536	107.0036	65535	64820.6
791.9949	109.2573	65535	64824.65
792.1363	111.5105	65535	64824.7
792.2777	113.7632	65535	64816.3
792.4191	116.0154	65535	64806.35
792.5605	118.2672	65535	64814.6
792.7019	120.5185	65535	64814.85
792.8434	122.7693	65535	64808.15
792.9849	125.0197	65535	64808.5
793.1264	127.2696	65535	64804.15
793.2679	129.519	65535	64800.9
793.4094	131.7679	65535	64794.15
793.551	134.0163	65535	64794.75
793.6926	136.2642	65535	64790.9
793.8342	138.5117	65535	64789.55
793.9758	140.7587	65535	64785.4
794.1175	143.0052	65535	64783.55
794.2591	145.2512	65535	64789.85
794.4008	147.4967	65535	64786.05
794.5425	149.7417	65535	64782.2
794.6842	151.9863	65535	64777.2
794.826	154.2304	65535	64775
794.9677	156.4739	65535	64766.6
795.1095	158.717	65535	64768.55
795.2513	160.9596	65535	64764.6
795.3931	163.2017	65535	64764.2
795.535	165.4433	65535	64762.45
795.6768	167.6844	65535	64760.15
795.8187	169.925	65535	64755.75
795.9606	172.1651	65535	64758.25
796.1025	174.4047	65535	64756.1
796.2445	176.6439	65535	64751.25
796.3864	178.8825	65535	64753.75
796.5284	181.1206	65535	64741.05
796.6704	183.3582	65535	64736.5
796.8124	185.5954	65535	64740.9
796.9544	187.832	65535	64734.4
797.0965	190.0681	65535	64732.65
797.2386	192.3037	65535	64727.75
797.3806	194.5388	65535	64725.7
797.5228	196.7734	65535	64723
797.6649	199.0075	65535	64715.65
797.807	201.2411	65535	64715.7
797.9492	203.4742	65535	64717.75
798.0914	205.7068	65535	64715.1
798.2336	207.9389	65535	64713.2
798.3758	210.1704	65535	64710.6
798.518	212.4015	65535	64711.95
798.6603	214.632	65535	64714.9
798.8025	216.862	65535	64722.7
798.9448	219.0915	65535	64727.45
799.0871	221.3205	65535	64729.15
799.2294	223.549	65535	64731.45
799.3718	225.777	65535	64733.9
799.5141	228.0044	65535	64733.5
799.6565	230.2314	65535	64731.8
799.7989	232.4578	65535	64735.8
799.9413	234.6837	65535	64724.6
800.0837	236.909	65535	64719.4
800.2262	239.1339	65535	64698
800.3687	241.3582	65535	64710.1
800.5111	243.582	65535	64679.8
800.6536	245.8053	65535	64696.7
800.7961	248.0281	65535	64701.65
800.9387	250.2503	65535	64695.45
801.0812	252.472	65535	64692.5
801.2238	254.6932	65535	64686.95
801.3664	256.9139	65535	64685.6
801.509	259.134	65535	64680.6
801.6516	261.3536	65535	64687.15
801.7942	263.5727	65535	64682.5
801.9369	265.7912	65535	64685.6
802.0795	268.0092	65535	64678.2
802.2222	270.2267	65535	64681.1
802.3649	272.4436	65535	64684.35
802.5076	274.6601	65535	64678.15
802.6504	276.8759	65535	64678.55
802.7931	279.0913	65535	64675.25
802.9359	281.3061	65535	64680.5
803.0787	283.5204	65535	64669.5
803.2215	285.7341	65535	64669.5
803.3643	287.9473	65535	64659.35
803.5071	290.16	65535	64662.45
803.6499	292.3721	65535	64669.95
803.7928	294.5837	65535	64667.1
803.9357	296.7947	65535	64667.65
804.0786	299.0052	65535	64665.35
804.2215	301.2152	65535	64670.1
804.3644	303.4246	65535	64670.3
804.5074	305.6334	65535	64669.85
804.6503	307.8418	65535	64666
804.7933	310.0495	65535	64666.4
804.9363	312.2568	65535	64665.3
805.0793	314.4635	65535	64664.9
805.2223	316.6696	65535	64663.45
805.3653	318.8752	65535	64654.55
805.5084	321.0802	65535	64663.45
805.6514	323.2847	65535	64656.4
805.7945	325.4887	65535	64656.45
805.9376	327.692	65535	64658
806.0807	329.8949	65535	64656.5
806.2238	332.0972	65535	64652.15
806.367	334.2989	65535	64650.45
806.5101	336.5001	65535	64651.25
806.6533	338.7007	65535	64651.9
806.7965	340.9008	65535	64649.25
806.9397	343.1003	65535	64649.75
807.0829	345.2992	65535	64650.2
807.2261	347.4976	65535	64646.7
807.3693	349.6955	65535	64640.35
807.5126	351.8927	65535	64641
807.6559	354.0895	65535	64630.15
807.7991	356.2856	65535	64644.2
807.9424	358.4812	65535	64642.35
808.0857	360.6763	65535	64640.85
808.2291	362.8707	65535	64637.7
808.3724	365.0646	65535	64642
808.5158	367.258	65535	64638.8
808.6591	369.4508	65535	64633.8
808.8025	371.643	65535	64629.45
808.9459	373.8346	65535	64627.35
809.0893	376.0257	65535	64628.2
809.2327	378.2162	65535	64628.2
809.3762	380.4062	65535	64630.2
809.5196	382.5956	65535	64623.05
809.6631	384.7844	65535	64629.7
809.8066	386.9726	65535	64629.35
809.9501	389.1603	65535	64628.1
810.0936	391.3474	65535	64599.8
810.2371	393.5339	65535	64628.65
810.3806	395.7199	65535	64636.35
810.5241	397.9052	65535	64636.35
810.6677	400.09	65535	64636.9
810.8113	402.2743	65535	64639.05
810.9548	404.4579	65535	64639.2
811.0984	406.641	65535	64635.25
811.2421	408.8235	65535	64637.45
811.3857	411.0054	65535	64637.1
811.5293	413.1868	65535	64629.9
811.673	415.3675	65535	64632.8
811.8166	417.5477	65535	64628.15
811.9603	419.7273	65535	64628.65
812.104	421.9064	65535	64621.4
812.2477	424.0848	65535	64629.55
812.3914	426.2627	65535	64626.35
812.5351	428.4399	65535	64622.05
812.6788	430.6166	65535	64619.2
812.8226	432.7928	65535	64617.7
812.9663	434.9683	65535	64621.55
813.1101	437.1432	65535	64616.95
813.2539	439.3176	65535	64630
813.3977	441.4914	65535	64631
813.5415	443.6645	65535	64622.6
813.6853	445.8371	65535	64619.2
813.8291	448.0091	65535	64622.85
813.973	450.1806	65535	64624.3
814.1168	452.3514	65535	64626.2
814.2607	454.5216	65535	64620.25
814.4046	456.6913	65535	64623.8
814.5485	458.8603	65535	64625.25
814.6924	461.0288	65535	64624.55
814.8363	463.1967	65535	64628.55
814.9802	465.3639	65535	64627.25
815.1241	467.5306	65535	64625.3
815.2681	469.6967	65535	64628
815.412	471.8622	65535	64628.45
815.556	474.0271	65535	64626.35
815.7	476.1914	65535	64618.8
815.844	478.3551	65535	64621.65
815.988	480.5182	65535	64626.3
816.132	482.6807	65535	64625.4
816.276	484.8426	65535	64639.5
816.4201	487.0039	65535	64630
816.5641	489.1647	65535	64623.4
816.7082	491.3248	65535	64621
816.8522	493.4843	65535	64626
816.9963	495.6432	65535	64628.3
817.1404	497.8015	65535	64617.8
817.2845	499.9592	65535	64609.95
817.4286	502.1163	65535	64609.85
817.5727	504.2728	65535	64619.55
817.7168	506.4287	65535	64627.7
817.861	508.5839	65535	64626.4
818.0051	510.7386	65535	64621.6
818.1493	512.8927	65535	64611.3
818.2935	515.0461	65535	64617.85
818.4377	517.199	65535	64612.35
818.5818	519.3512	65535	64612.55
818.726	521.5029	65535	64615.5
818.8703	523.6539	65535	64612.65
819.0145	525.8043	65535	64608.3
819.1587	527.9541	65535	64607
819.303	530.1033	65535	64611.05
819.4472	532.2519	65535	64608.35
819.5915	534.3999	65535	64610.2
819.7357	536.5472	65535	64614.15
819.88	538.694	65535	64616.2
820.0243	540.8401	65535	64613.2
820.1686	542.9856	65535	64603.3
820.3129	545.1305	65535	64596.7
820.4572	547.2748	65535	64592.6
820.6016	549.4185	65535	64593.6
820.7459	551.5615	65535	64594.75
820.8902	553.704	65535	64596.35
821.0346	555.8458	65535	64596.65
821.1789	557.987	65535	64602.5
821.3233	560.1276	65535	64599.7
821.4677	562.2675	65535	64602.2
821.6121	564.4069	65535	64595.75
821.7565	566.5456	65535	64605.8
821.9009	568.6837	65535	64604.05
822.0453	570.8212	65535	64613.15
822.1897	572.958	65535	64603.2
822.3342	575.0942	65535	64610.85
822.4786	577.2299	65535	64610.85
822.6231	579.3648	65535	64622.55
822.7675	581.4992	65535	64634.75
822.912	583.6329	65535	64632.9
823.0565	585.766	65535	64627.45
823.201	587.8985	65535	64622.95
823.3454	590.0304	65535	64588.1
823.4899	592.1616	65535	64603.45
823.6345	594.2922	65535	64599.3
823.779	596.4222	65535	64596.05
823.9235	598.5515	65535	64598.35
824.068	600.6802	65535	64596.65
824.2126	602.8083	65535	64603
824.3571	604.9358	65535	64600.5
824.5017	607.0626	65535	64599.2
824.6462	609.1888	65535	64592.95
824.7908	611.3144	65535	64594.75
824.9354	613.4393	65535	64591
825.08	615.5636	65535	64595.05
825.2246	617.6873	65535	64594.35
825.3692	619.8103	65535	64593.15
825.5138	621.9327	65535	64596.7
825.6584	624.0544	65535	64607.05
825.803	626.1756	65535	64602.05
825.9477	628.2961	65535	64599.45
826.0923	630.4159	65535	64594.2
826.237	632.5351	65535	64592.15
826.3816	634.6537	65535	64595.85
826.5263	636.7716	65535	64591.3
826.6709	638.8889	65535	64586.3
826.8156	641.0056	65535	64586.85
826.9603	643.1216	65535	64590.1
827.105	645.237	65535	64590.7
827.2497	647.3518	65535	64598.45
827.3944	649.4659	65535	64601.25
827.5391	651.5793	65535	64603.5
827.6838	653.6922	65535	64601.85
827.8285	655.8043	65535	64601.75
827.9733	657.9159	65535	64601.3
828.118	660.0268	65535	64596.4
828.2627	662.137	65535	64598.25
828.4075	664.2466	65535	64588.25
828.5522	666.3556	65535	64591.65
828.697	668.4639	65535	64596.8
828.8418	670.5716	65535	64601.1
828.9865	672.6786	65535	64593.45
829.1313	674.785	65535	64590.6
829.2761	676.8907	65535	64590.95
829.4209	678.9958	65535	64597.75
829.5657	681.1002	65535	64592.5
829.7105	683.204	65535	64586.25
829.8553	685.3072	65535	64589.75
830.0001	687.4097	65535	64586.75
830.1449	689.5115	65535	64586.55
830.2898	691.6127	65535	64590.7
830.4346	693.7132	65535	64594.5
830.5794	695.8131	65535	64573.2
830.7243	697.9123	65535	64582.45
830.8691	700.0109	65535	64585.3
831.014	702.1089	65535	64589.35
831.1588	704.2061	65535	64592.8
831.3037	706.3028	65535	64583.4
831.4486	708.3987	65535	64589.15
831.5935	710.4941	65535	64592.95
831.7383	712.5887	65535	64587.9
831.8832	714.6827	65535	64587.45
832.0281	716.7761	65535	64595.85
832.173	718.8688	65535	64592.5
832.3179	720.9608	65535	64581.85
832.4628	723.0522	65535	64575.9
832.6077	725.1429	65535	64589.3
832.7527	727.233	65535	64585.55
832.8976	729.3224	65535	64586.15
833.0425	731.4112	65535	64587.95
833.1874	733.4993	65535	64586.85
833.3324	735.5867	65535	64587.4
833.4773	737.6735	65535	64587.95
833.6222	739.7596	65535	64584.65
833.7672	741.845	65535	64582.8
833.9122	743.9298	65535	64584.45
834.0571	746.014	65535	64585.5
834.2021	748.0974	65535	64577.55
834.347	750.1802	65535	64578.1
834.492	752.2624	65535	64580.85
834.637	754.3439	65535	64577.05
834.782	756.4247	65535	64572.65
834.9269	758.5048	65535	64586
835.0719	760.5843	65535	64580.5
835.2169	762.6631	65535	64582.65
835.3619	764.7413	65535	64582.65
835.5069	766.8188	65535	64575.35
835.6519	768.8956	65535	64579.8
835.7969	770.9718	65535	64579.75
835.9419	773.0473	65535	64583.25
836.0869	775.1221	65535	64582.35
836.232	777.1962	65535	64583.45
836.377	779.2697	65535	64581.25
836.522	781.3426	65535	64560.1
836.667	783.4147	65535	64580.5
836.8121	785.4862	65535	64580.05
836.9571	787.557	65535	64578.85
837.1021	789.6271	65535	64579.7
837.2472	791.6966	65535	64580.45
837.3922	793.7654	65535	64581.2
837.5373	795.8335	65535	64578.95
837.6823	797.901	65535	64583
837.8274	799.9678	65535	64576.35
837.9724	802.0339	65535	64570.7
838.1175	804.0993	65535	64569.55
838.2626	806.1641	65535	64578.75
838.4076	808.2282	65535	64580
838.5527	810.2916	65535	64580.7
838.6978	812.3544	65535	64586.4
838.8428	814.4164	65535	64579.2
838.9879	816.4778	65535	64576.65
839.133	818.5385	65535	64577
839.2781	820.5986	65535	64573.7
839.4232	822.658	65535	64577.9
839.5682	824.7166	65535	64577.6
839.7133	826.7747	65531.4	64572.4
839.8584	828.832	65533.7	64576.95
840.0035	830.8886	65535	64573.6
840.1486	832.9446	65535	64578.85
840.2937	834.9999	65520.6	64562.8
840.4388	837.0545	65533.4	64570.9
840.5839	839.1085	65535	64576.75
840.729	841.1618	65535	64575.7
840.8741	843.2143	65525.85	64569.6
841.0192	845.2662	65523.7	64567.75
841.1643	847.3175	65530.5	64575.8
841.3095	849.368	65489.5	64531.2
841.4546	851.4179	65525.55	64570.5
841.5997	853.467	65494.4	64541.5
841.7448	855.5155	65516.8	64561.2
841.8899	857.5633	65475.95	64518.2
842.0351	859.6105	65458.15	64495.75
842.1802	861.6569	65486.05	64526
842.3253	863.7027	65439	64477.8
842.4704	865.7478	65451.7	64489.25
842.6156	867.7922	65442.1	64485
842.7607	869.8359	65480	64516.2
842.9058	871.8789	65409.25	64451.05
843.0509	873.9212	65446.75	64455.8
843.1961	875.9629	65455.05	64495.9
843.3412	878.0039	65440.65	64478.55
843.4863	880.0441	65423.5	64468.8
843.6315	882.0837	65419.3	64460.25
843.7766	884.1226	65413.5	64457.1
843.9218	886.1609	65407.05	64448.25
844.0669	888.1984	65375.2	64419.8
844.212	890.2352	65414	64452.8
844.3572	892.2714	65330.7	64367.4
844.5023	894.3069	65371.35	64410.4
844.6475	896.3416	65306.65	64349.1
844.7926	898.3757	65299.35	64340.3
844.9377	900.4091	65144.5	64184.65
845.0829	902.4418	65351.2	64386
845.228	904.4739	65246.7	64285.5
845.3732	906.5052	65259.5	64294.35
845.5183	908.5358	65179.8	64216.15
845.6635	910.5658	65128.65	64166.15
845.8086	912.595	65119.15	64160.9
845.9538	914.6236	64888.45	63930.2
846.0989	916.6515	65203.8	64240.75
846.2441	918.6786	64904.85	63942.4
846.3892	920.7051	64986.6	64025.4
846.5344	922.7309	64932.45	63971.8
846.6795	924.756	64994.9	64036.35
846.8246	926.7804	64908.8	63946.55
846.9698	928.8041	64612.7	63652.1
847.1149	930.8272	64859.1	63897.65
847.2601	932.8495	64857.35	63899
847.4052	934.8711	64628	63666.2
847.5504	936.892	64398.15	63433.9
847.6955	938.9123	64501.7	63540.3
847.8407	940.9318	64276.25	63316.4
847.9858	942.9506	64194.5	63234.65
848.131	944.9688	64224.05	63264.4
848.2761	946.9862	63642	62679.9
848.4213	949.003	63897.1	62935.3
848.5664	951.019	63334.25	62374.85
848.7115	953.0344	63450.15	62489.85
848.8567	955.0491	63384.65	62427.7
849.0018	957.063	63591.6	62629.45
849.147	959.0763	63610.6	62643.65
849.2921	961.0888	63123.85	62162.8
849.4373	963.1007	63558.65	62600.45
849.5824	965.1119	63541.55	62587.15
849.7275	967.1223	63096.65	62151.35
849.8727	969.1321	63575.25	62630.6
850.0178	971.1412	62857.95	61907.6
850.1629	973.1495	62624.6	61668.8
850.3081	975.1572	63027.35	62012.75
850.4532	977.1641	62682.55	61725.35
850.5983	979.1704	62606.9	61645.45
850.7435	981.1759	62664.55	61698.7
850.8886	983.1808	62197.35	61231.35
851.0337	985.1849	62275.25	61304.9
851.1788	987.1884	62462.5	61500.45
851.324	989.1911	62836.15	61879.4
851.4691	991.1932	61690.6	60733.45
851.6142	993.1945	62032	61072
851.7593	995.1951	62357.85	61398.2
851.9045	997.1951	61609.5	60644.7
852.0496	999.1943	61450.3	60492.3
852.1947	1001.1928	61183.7	60225.75
852.3398	1003.1906	61376.4	60419.85
852.4849	1005.1877	60469.85	59512
852.63	1007.1841	60187.15	59229.4
852.7751	1009.1798	60166.6	59210.1
852.9202	1011.1748	59993.9	59036.5
853.0653	1013.1691	59719.8	58762.55
853.2104	1015.1627	58193.95	57237.5
853.3555	1017.1556	58617.65	57664.05
853.5006	1019.1477	58839.2	57884.25
853.6457	1021.1392	58036.8	57088.35
853.7908	1023.1299	57221.15	56274.25
853.9359	1025.12	57667	56725.4
854.081	1027.1093	57216.15	56283
854.2261	1029.0979	57185.3	56254.7
854.3712	1031.0859	57113.35	56178.5
854.5163	1033.0731	56371.45	55425.05
854.6613	1035.0596	56502.45	55554.2
854.8064	1037.0454	56248.95	55297.75
854.9515	1039.0304	55701.6	54747.55
855.0965	1041.0148	54978.95	54026.5
855.2416	1042.9985	55047.9	54093.35
855.3867	1044.9814	55279.15	54324.6
855.5317	1046.9636	54561.6	53607.15
855.6768	1048.9452	54529	53576.6
855.8219	1050.926	54344.4	53394.35
855.9669	1052.9061	54260.7	53308
856.112	1054.8855	54225.5	53273.75
856.257	1056.8642	53800.8	52844.4
856.4021	1058.8421	53624.4	52666.95
856.5471	1060.8194	53590.75	52632.85
856.6921	1062.7959	53394.6	52438.9
856.8372	1064.7717	53464.85	52507.05
856.9822	1066.7469	53238.5	52282.3
857.1272	1068.7213	53075.45	52120.55
857.2723	1070.695	52846.8	51893.8
857.4173	1072.6679	52388.15	51431.15
857.5623	1074.6402	52429.7	51475.05
857.7073	1076.6117	52187.55	51233.15
857.8523	1078.5826	52158.75	51202.1
857.9973	1080.5527	52034.9	51078.6
858.1423	1082.5221	51950.1	50992.15
858.2873	1084.4908	52060.75	51106
858.4323	1086.4587	52103.05	51143.55
858.5773	1088.426	52199.45	51243.1
858.7223	1090.3925	52007.9	51049.55
858.8673	1092.3584	51881.7	50929.1
859.0123	1094.3235	51310.75	50357.2
859.1573	1096.2879	51059.15	50105.05
859.3022	1098.2515	50930.35	49974.6
859.4472	1100.2145	50862.75	49910.55
859.5922	1102.1767	50670.05	49716.4
859.7371	1104.1382	50767.6	49814.75
859.8821	1106.099	50767.6	49814.1
860.027	1108.0591	50813.4	49863.35
860.172	1110.0185	50545.65	49592.15
860.3169	1111.9771	50623.65	49668.35
860.4619	1113.9351	50198.2	49241.1
860.6068	1115.8923	49679.25	48723.85
860.7517	1117.8488	49114.9	48158.05
860.8967	1119.8045	48570.25	47620.05
861.0416	1121.7596	48395.55	47442.7
861.1865	1123.7139	48100.1	47148.5
861.3314	1125.6675	47997.6	47045.3
861.4763	1127.6204	48078.05	47125.95
861.6212	1129.5726	47890.35	46935.5
861.7661	1131.524	47872.9	46920.3
861.911	1133.4748	47833.15	46878.2
862.0559	1135.4248	47671.8	46718.4
862.2008	1137.3741	47609.05	46656.8
862.3457	1139.3226	47468.7	46514.45
862.4905	1141.2705	47435.55	46481.95
862.6354	1143.2176	47046.55	46089
862.7803	1145.164	46962.05	46007.5
862.9251	1147.1097	46880.65	45926.8
863.07	1149.0546	46780.35	45827.8
863.2148	1150.9989	46644.9	45692.45
863.3597	1152.9424	46364.45	45409.55
863.5045	1154.8852	46075.6	45124.15
863.6493	1156.8272	45837.2	44884.65
863.7942	1158.7686	45680.5	44720.2
863.939	1160.7092	45354.2	44401.5
864.0838	1162.6491	45193.6	44240.85
864.2286	1164.5883	45240.35	44285.65
864.3734	1166.5267	45061.15	44108.3
864.5182	1168.4644	45172.6	44220.45
864.663	1170.4014	45215.95	44259
864.8078	1172.3377	45423.65	44477.3
864.9526	1174.2732	45537.75	44587.3
865.0974	1176.2081	45580.2	44627.55
865.2421	1178.1421	45661.5	44705
865.3869	1180.0755	45752.7	44803.55
865.5317	1182.0082	45452.25	44504.05
865.6764	1183.9401	45301.9	44350.75
865.8212	1185.8713	44920.2	43975.5
865.9659	1187.8017	44611.7	43673.2
866.1106	1189.7315	44302.7	43372.9
866.2554	1191.6605	43766.7	42835.8
866.4001	1193.5888	43453.55	42512.8
866.5448	1195.5163	43257.5	42311.75
866.6895	1197.4432	42977.4	42028.6
866.8342	1199.3693	42763.55	41817.45
866.9789	1201.2947	42484.85	41531.65
867.1236	1203.2193	42368.3	41418.1
867.2683	1205.1432	42290.15	41341.3
867.413	1207.0664	42198.2	41249.35
867.5576	1208.9889	42179.7	41231.6
867.7023	1210.9106	42056.1	41110.2
867.847	1212.8316	41922.1	40975.35
867.9916	1214.7519	41965.65	41009
868.1363	1216.6715	41740.9	40794.65
868.2809	1218.5903	41635.8	40688.6
868.4255	1220.5084	41475.4	40529.35
868.5701	1222.4257	41427.35	40480.7
868.7148	1224.3424	41120.1	40178.85
868.8594	1226.2583	41007.35	40058.4
869.004	1228.1735	41038.8	40096.05
869.1486	1230.0879	40973.05	40022.5
869.2932	1232.0016	41032.95	40085
869.4377	1233.9146	40893.05	39943.15
869.5823	1235.8269	40640.3	39693.4
869.7269	1237.7384	40478	39531.4
869.8715	1239.6492	40108.25	39165
870.016	1241.5592	39941.3	38992.65
870.1606	1243.4686	39696.35	38750.85
870.3051	1245.3772	39495.8	38548.45
870.4496	1247.285	39297	38349.7
870.5941	1249.1922	39059.15	38112.65
870.7387	1251.0986	38993.95	38047.85
870.8832	1253.0042	38866.05	37921.1
871.0277	1254.9092	38901.65	37956.15
871.1722	1256.8134	38750.2	37807.85
871.3167	1258.7169	38882.7	37938.35
871.4611	1260.6196	38916.85	37972.7
871.6056	1262.5216	39048.45	38102.25
871.7501	1264.4229	39020.9	38075.8
871.8945	1266.3234	39113.45	38169.85
872.039	1268.2232	39100.6	38150.85
872.1834	1270.1223	38898.6	37952.35
872.3278	1272.0207	38754.7	37812.15
872.4723	1273.9183	38665.6	37715.6
872.6167	1275.8151	38455.7	37514
872.7611	1277.7113	38288.15	37344.25
872.9055	1279.6067	38066	37122.65
873.0499	1281.5014	37754.5	36807.45
873.1943	1283.3953	37504.4	36556.3
873.3386	1285.2885	37317.25	36374.8
873.483	1287.181	37158.45	36215.4
873.6274	1289.0727	37117.5	36174.65
873.7717	1290.9637	37002.1	36062.5
873.9161	1292.854	37144.45	36204
874.0604	1294.7435	37143.7	36201.45
874.2047	1296.6323	37293.05	36348.55
874.349	1298.5204	37478.95	36529.45
874.4933	1300.4077	37634.55	36691.3
874.6376	1302.2943	37759.65	36816.85
874.7819	1304.1802	37877.15	36935.3
874.9262	1306.0653	37661.25	36716.9
875.0705	1307.9497	37460.1	36521.8
875.2147	1309.8333	37291.2	36349.85
875.359	1311.7162	37205.9	36263.3
875.5032	1313.5984	37263.25	36316.6
875.6475	1315.4798	37283.65	36321.05
875.7917	1317.3605	37350	36389.75
875.9359	1319.2405	37488.85	36541.85
876.0801	1321.1197	37469.85	36521.5
876.2243	1322.9982	37300.1	36352.55
876.3685	1324.876	37258.4	36317.45
876.5127	1326.753	37053.45	36111.4
876.6569	1328.6293	37078.4	36133.95
876.801	1330.5048	37106	36159.45
876.9452	1332.3796	36971.75	36027.8
877.0893	1334.2537	36967.9	36004.2
877.2335	1336.127	36742.25	35798.95
877.3776	1337.9996	36607.8	35668.2
877.5217	1339.8714	36433	35488.2
877.6658	1341.7426	36353.9	35367.7
877.8099	1343.6129	36218.2	35274.8
877.954	1345.4826	36072.75	35128.65
878.0981	1347.3515	35980.25	35032.05
878.2422	1349.2196	35822.2	34879.2
878.3862	1351.087	35768.55	34826.5
878.5303	1352.9537	35752.3	34809.1
878.6743	1354.8197	35823.5	34881.1
878.8184	1356.6849	35911.15	34966
878.9624	1358.5493	35905.2	34962.1
879.1064	1360.4131	35803.05	34860.75
879.2504	1362.276	35611.15	34671.85
879.3944	1364.1383	35374.65	34432.35
879.5384	1365.9998	35080.55	34133.8
879.6823	1367.8606	34653.15	33709.15
879.8263	1369.7206	34332	33388.5
879.9702	1371.5799	34063.05	33119.25
880.1142	1373.4384	33895.3	32954.55
880.2581	1375.2962	33728.8	32785.05
880.402	1377.1533	33358.85	32422.35
880.5459	1379.0096	32925.35	31987.05
880.6898	1380.8652	32575.95	31637.35
880.8337	1382.7201	32274.15	31335.05
880.9776	1384.5742	31900.3	30961.2
881.1215	1386.4275	31691.2	30749.95
881.2653	1388.2802	31449.5	30508.95
881.4092	1390.132	31255.05	30314.55
881.553	1391.9832	31185.7	30240.6
881.6968	1393.8336	30948.7	30006.7
881.8406	1395.6832	30805.65	29860.8
881.9844	1397.5322	30650.9	29710.25
882.1282	1399.3803	30555.6	29608.35
882.272	1401.2278	30395.05	29455.3
882.4158	1403.0745	30283.4	29344.45
882.5595	1404.9204	30135.8	29198.6
882.7033	1406.7656	30103.45	29164.15
882.847	1408.6101	30005.95	29065.25
882.9908	1410.4538	29872.2	28929.9
883.1345	1412.2968	29838.85	28898.9
883.2782	1414.139	29752.6	28814.6
883.4219	1415.9805	29775.7	28837.2
883.5656	1417.8213	29753.05	28796.35
883.7092	1419.6613	29728.95	28790
883.8529	1421.5006	29868	28929.6
883.9965	1423.3391	30075.65	29135.8
884.1402	1425.1769	30288.1	29349.9
884.2838	1427.0139	30735.7	29796.05
884.4274	1428.8502	31287.45	30349
884.571	1430.6858	31845.05	30906.9
884.7146	1432.5206	32114.7	31177.6
884.8582	1434.3547	32367.55	31429.5
885.0018	1436.188	32413.05	31473.45
885.1453	1438.0206	32266.8	31326.9
885.2889	1439.8524	32017.2	31079.15
885.4324	1441.6835	31859.55	30924.95
885.5759	1443.5139	31724.7	30783.05
885.7194	1445.3435	31547.4	30609.95
885.8629	1447.1724	31466.6	30530.35
886.0064	1449.0005	31262.35	30328.55
886.1499	1450.8279	31101.15	30163.95
886.2933	1452.6545	31041.25	30104.9
886.4368	1454.4804	31036.35	30100.9
886.5802	1456.3056	30966	30024.5
886.7237	1458.13	30827.05	29894.05
886.8671	1459.9536	30632.5	29696.35
887.0105	1461.7766	30167.55	29230.35
887.1539	1463.5987	29676	28736.55
887.2972	1465.4202	29212.5	28274.65
887.4406	1467.2409	28772.75	27835.6
887.584	1469.0608	28472.8	27536.95
887.7273	1470.88	28179.65	27242.9
887.8706	1472.6984	27907.8	26971.8
888.0139	1474.5161	27584.4	26645.55
888.1572	1476.3331	27354.25	26418.1
888.3005	1478.1493	27233.05	26297.45
888.4438	1479.9648	27077.9	26141.95
888.5871	1481.7795	26915.15	25978.15
888.7303	1483.5935	26813.3	25875.65
888.8736	1485.4067	26734.05	25800.75
889.0168	1487.2192	26630.15	25692.9
889.16	1489.031	26538.85	25599.1
889.3032	1490.842	26442.35	25509.6
889.4464	1492.6522	26360.15	25426.55
889.5896	1494.4618	26292.05	25357.25
889.7327	1496.2705	26194	25257.2
889.8759	1498.0785	26114.45	25178.9
890.019	1499.8858	25991.15	25054
890.1622	1501.6924	25956.95	25022.55
890.3053	1503.4981	25910.5	24976.05
890.4484	1505.3032	25833.85	24895.6
890.5914	1507.1075	25765.3	24828.95
890.7345	1508.911	25677.45	24740.3
890.8776	1510.7138	25569.45	24634.4
891.0206	1512.5159	25484.6	24550
891.1637	1514.3172	25368.55	24435.3
891.3067	1516.1178	25228.05	24297.9
891.4497	1517.9176	25194.45	24260.1
891.5927	1519.7166	25122.45	24189.8
891.7357	1521.515	25002.95	24064.7
891.8786	1523.3126	24933.65	24000.8
892.0216	1525.1094	24840.65	23908.15
892.1645	1526.9055	24754.5	23822.55
892.3074	1528.7008	24658.9	23729.8
892.4503	1530.4954	24514.2	23579.55
892.5932	1532.2893	24432.6	23502.6
892.7361	1534.0824	24321.05	23389.8
892.879	1535.8747	24287.5	23361.7
893.0218	1537.6663	24199.3	23270.5
893.1647	1539.4572	24119.5	23188.1
893.3075	1541.2473	24067.95	23141.95
893.4503	1543.0367	23980.65	23054.95
893.5931	1544.8253	23868.7	22936.25
893.7359	1546.6132	23840.45	22907.95
893.8787	1548.4003	23742.4	22802.3
894.0214	1550.1867	23681.25	22743.75
894.1642	1551.9723	23616.4	22684.7
894.3069	1553.7572	23584.5	22657.85
894.4496	1555.5414	23549.85	22623.3
894.5923	1557.3247	23514.8	22590.35
894.735	1559.1074	23470.75	22549
894.8777	1560.8893	23462.6	22543.45
895.0204	1562.6705	23438.85	22516.7
895.163	1564.4509	23447.7	22525.75
895.3056	1566.2305	23410.5	22494.85
895.4482	1568.0094	23560.15	22639.75
895.5908	1569.7876	23590.85	22672.7
895.7334	1571.565	23578.5	22656.75
895.876	1573.3417	23641.85	22719.6
896.0186	1575.1176	23591.75	22672.65
896.1611	1576.8928	23472.05	22554.8
896.3036	1578.6672	23378.6	22465.75
896.4461	1580.4409	23154.9	22245.4
896.5886	1582.2138	22965.55	22050.2
896.7311	1583.986	22772.95	21857.25
896.8736	1585.7575	22629.75	21712.85
897.0161	1587.5282	22500.75	21585.35
897.1585	1589.2981	22391.65	21480.6
897.3009	1591.0673	22231.5	21319.55
897.4433	1592.8358	22228.9	21313.35
897.5857	1594.6035	22148.05	21229.6
897.7281	1596.3704	22024.55	21104.9
897.8705	1598.1366	21973.15	21057.1
898.0128	1599.9021	21934.05	21020.8
898.1551	1601.6668	21905.05	20988.75
898.2975	1603.4308	21882.7	20963.6
898.4398	1605.194	21899.05	20975.9
898.5821	1606.9564	21939.55	21029.55
898.7243	1608.7182	21991.05	21081.95
898.8666	1610.4791	22015.45	21113.1
899.0088	1612.2394	22087.3	21186.25
899.1511	1613.9988	22223.6	21319.25
899.2933	1615.7576	22398.35	21488.3
899.4355	1617.5156	22612.35	21693.35
899.5776	1619.2728	22840.15	21921
899.7198	1621.0293	22953.15	22039.9
899.862	1622.785	22988.65	22073.4
900.0041	1624.54	22855.2	21945.95
900.1462	1626.2942	22687.25	21777.3
900.2883	1628.0477	22337.6	21425.55
900.4304	1629.8005	22089.2	21178.7
900.5725	1631.5525	21780.65	20874.3
900.7145	1633.3037	21494.05	20583.8
900.8566	1635.0542	21300.05	20391.45
900.9986	1636.804	21083.35	20174.9
901.1406	1638.553	21032.2	20078.5
901.2826	1640.3013	20864.95	19956.95
901.4245	1642.0488	20715.95	19806.45
901.5665	1643.7955	20656.65	19749.9
901.7085	1645.5416	20614.2	19705.1
901.8504	1647.2868	20637.25	19729.05
901.9923	1649.0313	20639.8	19731.35
902.1342	1650.7751	20723.65	19811.85
902.2761	1652.5181	20836.15	19931.75
902.4179	1654.2604	20973.55	20067.8
902.5598	1656.0019	21272.55	20367.9
902.7016	1657.7427	21618.5	20709.75
902.8434	1659.4828	21977.65	21066.7
902.9852	1661.222	22135.9	21223.3
903.127	1662.9606	22132.85	21222.4
903.2687	1664.6984	22001.55	21090.7
903.4105	1666.4354	21660.8	20749.35
903.5522	1668.1717	21157.05	20243.4
903.6939	1669.9072	20632.55	19718.65
903.8356	1671.642	20226.6	19310.65
903.9773	1673.3761	19912.55	19001.9
904.119	1675.1094	19582.05	18674.95
904.2606	1676.8419	19387.1	18477.4
904.4022	1678.5737	19210.1	18298.6
904.5439	1680.3048	19041.1	18128.6
904.6855	1682.0351	18867	17957.8
904.827	1683.7646	18723.1	17810.55
904.9686	1685.4934	18648.2	17738.55
905.1101	1687.2215	18572.4	17662.55
905.2517	1688.9488	18433.5	17525.85
905.3932	1690.6754	18322.85	17416.35
905.5347	1692.4012	18309.25	17399.9
905.6761	1694.1263	18228.4	17317.2
905.8176	1695.8506	18170	17260.45
905.9591	1697.5742	18121.85	17215.5
906.1005	1699.297	18004.15	17099.7
906.2419	1701.0191	17908.25	17005.1
906.3833	1702.7404	17827.25	16925.45
906.5246	1704.461	17737.2	16828.8
906.666	1706.1808	17669.3	16764.5
906.8073	1707.8999	17606.2	16702.65
906.9487	1709.6182	17547.55	16646.25
907.09	1711.3358	17491.8	16590.35
907.2313	1713.0527	17388.5	16489.8
907.3725	1714.7688	17342.15	16434.85
907.5138	1716.4841	17270.8	16365
907.655	1718.1987	17232.95	16324
907.7962	1719.9126	17161.1	16260.85
907.9374	1721.6257	17118.6	16217.6
908.0786	1723.338	17083.6	16182.9
908.2198	1725.0496	16941.05	16039.15
908.3609	1726.7605	16941.95	16038.55
908.502	1728.4706	16860.05	15957.9
908.6431	1730.18	16783.4	15883.55
908.7842	1731.8886	16706	15808.65
908.9253	1733.5964	16715.6	15793.5
909.0664	1735.3036	16681.6	15778.25
909.2074	1737.0099	16625.95	15726.15
909.3484	1738.7156	16553.15	15655.4
909.4894	1740.4204	16488.1	15585.6
909.6304	1742.1246	16414.15	15510.55
909.7714	1743.8279	16402.05	15504.6
909.9123	1745.5306	16394.75	15495.95
910.0532	1747.2325	16296.35	15397.45
910.1941	1748.9336	16208.7	15308.5
910.335	1750.634	16192.4	15288.65
910.4759	1752.3336	16161.8	15264.05
910.6168	1754.0325	16142.9	15246.5
910.7576	1755.7307	16095.35	15196.85
910.8984	1757.4281	16104.4	15203.1
911.0392	1759.1247	16055.3	15143.45
911.18	1760.8206	15998.45	15090.65
911.3208	1762.5158	15984.8	15079.6
911.4615	1764.2102	15922.75	15021.4
911.6022	1765.9039	15834.05	14935.2
911.7429	1767.5968	15772.75	14875
911.8836	1769.289	15738.1	14839.15
912.0243	1770.9804	15706.65	14805.7
912.1649	1772.6711	15679.1	14776.65
912.3056	1774.361	15630.3	14728.2
912.4462	1776.0502	15613.1	14710.65
912.5868	1777.7386	15591.5	14689
912.7274	1779.4263	15519.7	14620.2
912.8679	1781.1132	15486.8	14591.8
913.0084	1782.7994	15436.45	14538.55
913.149	1784.4849	15392.25	14499.3
913.2895	1786.1696	15377.85	14460.6
913.4299	1787.8535	15352.75	14458.6
913.5704	1789.5367	15261	14365.7
913.7108	1791.2192	15269.65	14373.65
913.8513	1792.9009	15195.45	14272.15
913.9917	1794.5818	15150.75	14250.55
914.132	1796.2621	15095.15	14199.3
914.2724	1797.9415	15048.1	14150.55
914.4128	1799.6202	14967.45	14068.95
914.5531	1801.2982	14986.5	14088.05
914.6934	1802.9755	14968.2	14066
914.8337	1804.6519	14941.6	14042.3
914.9739	1806.3277	14872.2	13976.7
915.1142	1808.0027	14797.25	13903.2
915.2544	1809.6769	14778.5	13884.8
915.3946	1811.3504	14742.55	13848.2
915.5348	1813.0231	14694.6	13797.75
915.675	1814.6951	14675.8	13779
915.8151	1816.3664	14684.5	13783.95
915.9553	1818.0369	14643.8	13745.3
916.0954	1819.7067	14601.5	13701.65
916.2355	1821.3757	14550.35	13650.25
916.3755	1823.044	14508	13607.05
916.5156	1824.7115	14494.1	13593.9
916.6556	1826.3783	14440.7	13542.6
916.7956	1828.0443	14402.7	13505.25
916.9356	1829.7096	14354.15	13455.65
917.0756	1831.3741	14322.05	13422.9
917.2155	1833.0379	14267	13372.65
917.3555	1834.701	14248.5	13353.35
917.4954	1836.3633	14213.7	13319.3
917.6353	1838.0248	14150.35	13252.9
917.7751	1839.6856	14128.55	13232.8
917.915	1841.3457	14126.7	13230.4
918.0548	1843.005	14065.3	13167
918.1946	1844.6636	14079.9	13181.25
918.3344	1846.3214	14033.75	13136.2
918.4742	1847.9785	13997.1	13102.4
918.6139	1849.6349	13963.35	13064.05
918.7537	1851.2904	13937.3	13029.15
918.8934	1852.9453	13897.15	12998.7
919.0331	1854.5994	13840.6	12941.6
919.1727	1856.2528	13881.85	12980.15
919.3124	1857.9054	13832.15	12934.5
919.452	1859.5572	13813.95	12919.25
919.5916	1861.2083	13751.65	12852.5
919.7312	1862.8587	13747.85	12851.35
919.8708	1864.5084	13720.75	12818.05
920.0103	1866.1572	13677.5	12777.75
920.1498	1867.8054	13625.3	12724.1
920.2893	1869.4528	13594.9	12693.65
920.4288	1871.0994	13550.1	12650.6
920.5683	1872.7453	13520.05	12620.9
920.7077	1874.3905	13504.05	12586.35
920.8471	1876.0349	13439.8	12541.05
920.9865	1877.6786	13445.8	12545.8
921.1259	1879.3215	13415	12516.85
921.2653	1880.9637	13382.55	12481.75
921.4046	1882.6051	13334.05	12436.95
921.5439	1884.2458	13324.15	12424.7
921.6832	1885.8858	13234.75	12338.65
921.8225	1887.525	13245.75	12347.15
921.9617	1889.1634	13150.5	12254.3
922.101	1890.8011	13114.1	12215.15
922.2402	1892.4381	13091.2	12193.8
922.3794	1894.0743	13053.4	12154.15
922.5185	1895.7098	13068.7	12170.8
922.6577	1897.3446	13020.65	12123.4
922.7968	1898.9786	12983.5	12081.9
922.9359	1900.6118	12951.35	12055.4
923.075	1902.2443	12880.95	11980.95
923.214	1903.8761	12869.9	11971.45
923.3531	1905.5071	12794.4	11897.3
923.4921	1907.1374	12742.6	11844.45
923.6311	1908.7669	12721.75	11826
923.77	1910.3957	12704.3	11806.3
923.909	1912.0237	12618.35	11723.2
924.0479	1913.651	12597.2	11699.65
924.1868	1915.2776	12589.2	11692.9
924.3257	1916.9034	12515.4	11618.95
924.4646	1918.5285	12477.35	11584.9
924.6034	1920.1528	12422.75	11526.6
924.7422	1921.7764	12407.8	11512.25
924.881	1923.3992	12379.85	11483.6
925.0198	1925.0213	12311.6	11415.35
925.1586	1926.6427	12264.8	11367.8
925.2973	1928.2633	12262.15	11294.75
925.436	1929.8832	12203.3	11304.75
925.5747	1931.5023	12119.65	11224.85
925.7134	1933.1207	12103.55	11208.25
925.852	1934.7383	12107.6	11210.25
925.9906	1936.3552	12039.7	11143.75
926.1292	1937.9714	11990.5	11096.05
926.2678	1939.5868	11937.95	11040.65
926.4064	1941.2015	11885.85	10990.2
926.5449	1942.8154	11857.4	10958.55
926.6834	1944.4286	11798.35	10902.7
926.8219	1946.041	11778.4	10859.35
926.9604	1947.6528	11692.85	10790.85
927.0988	1949.2637	11695.9	10800.9
927.2372	1950.8739	11628.1	10732.3
927.3756	1952.4834	11626.45	10731.95
927.514	1954.0921	11607.95	10715.4
927.6523	1955.7001	11540.6	10643.4
927.7907	1957.3074	11517.4	10627.75
927.929	1958.9139	11457	10565
928.0673	1960.5197	11398.45	10504.05
928.2055	1962.1247	11358.9	10463.65
928.3438	1963.729	11320.9	10427.6
928.482	1965.3325	11300.45	10383.45
928.6202	1966.9353	11246.15	10354.35
928.7584	1968.5374	11199.75	10309.5
928.8965	1970.1387	11168.65	10276.85
929.0346	1971.7393	11139.3	10246
929.1727	1973.3392	11131.4	10239.45
929.3108	1974.9383	11081.55	10191.4
929.4489	1976.5366	11000.5	10111.7
929.5869	1978.1342	10971.8	10078.75
929.7249	1979.7311	10971.3	10080.3
929.8629	1981.3273	10956.85	10066.65
930.0009	1982.9227	10873.45	9983.5
930.1388	1984.5173	10831.3	9940.65
930.2767	1986.1112	10787.6	9899.15
930.4146	1987.7044	10789.85	9900.4
930.5525	1989.2968	10759	9866.85
930.6904	1990.8885	10739.05	9846.65
930.8282	1992.4795	10715.9	9826.1
930.966	1994.0697	10647.05	9758.95
931.1038	1995.6592	10632.45	9744.75
931.2415	1997.2479	10578.1	9690.05
931.3793	1998.8359	10559.6	9670.8
931.517	2000.4232	10527	9641.05
931.6547	2002.0097	10475.2	9591.6
931.7923	2003.5955	10439.55	9552.25
931.93	2005.1805	10430.3	9540.8
932.0676	2006.7648	10409.55	9521.5
932.2052	2008.3484	10370	9480.1
932.3427	2009.9312	10375.95	9489.7
932.4803	2011.5133	10320.15	9435.6
932.6178	2013.0946	10290.65	9405.45
932.7553	2014.6752	10282.1	9397.15
932.8928	2016.2551	10254	9366.65
933.0302	2017.8342	10180.7	9293.35
933.1676	2019.4126	10181	9295
933.305	2020.9902	10129.3	9244.05
933.4424	2022.5672	10106.45	9219.2
933.5798	2024.1433	10082.3	9190.6
933.7171	2025.7188	10053.25	9169.1
933.8544	2027.2935	10032.35	9147.5
933.9917	2028.8674	9980.3	9095.5
934.129	2030.4406	9942.55	9059.95
934.2662	2032.0131	9903.45	9019.7
934.4034	2033.5849	9868.95	8978.45
934.5406	2035.1559	9863.25	8980.25
934.6778	2036.7261	9836.7	8950.5
934.8149	2038.2957	9828.1	8939.75
934.952	2039.8645	9776.9	8888
935.0891	2041.4325	9784.05	8891.8
935.2262	2042.9998	9753.75	8868.1
935.3632	2044.5664	9727.45	8840.2
935.5002	2046.1323	9694.4	8810.5
935.6372	2047.6974	9645.5	8761.15
935.7742	2049.2617	9645.4	8760.85
935.9111	2050.8254	9625.5	8735
936.048	2052.3883	9620.9	8731.5
936.1849	2053.9504	9580.05	8692.3
936.3218	2055.5118	9551.6	8662.35
936.4586	2057.0725	9488.6	8598.15
936.5955	2058.6325	9471.65	8584.9
936.7323	2060.1917	9449.1	8564.6
936.869	2061.7502	9417.45	8531.05
937.0058	2063.3079	9375.3	8491.3
937.1425	2064.8649	9344.25	8452.75
937.2792	2066.4212	9330.15	8444.15
937.4159	2067.9767	9297.05	8409.4
937.5525	2069.5315	9255.45	8370.55
937.6891	2071.0856	9224.35	8338.35
937.8257	2072.6389	9195.9	8311.3
937.9623	2074.1915	9161.15	8277.1
938.0989	2075.7433	9113.2	8226.7
938.2354	2077.2945	9097.95	8213.05
938.3719	2078.8448	9073.75	8184.7
938.5084	2080.3945	9030.65	8142.6
938.6448	2081.9434	9044.55	8154.4
938.7812	2083.4916	8992.2	8100.75
938.9176	2085.039	8979.35	8087.85
939.054	2086.5857	8951.35	8057.7
939.1903	2088.1317	8923.4	8029.8
939.3267	2089.677	8902.75	8010.2
939.463	2091.2215	8875.45	7982.15
939.5992	2092.7652	8847.85	7952.4
939.7355	2094.3083	8830.35	7936.65
939.8717	2095.8506	8794.3	7903.1
940.0079	2097.3921	8796.4	7907.9
940.1441	2098.933	8782.55	7894
940.2802	2100.4731	8752.4	7862.55
940.4163	2102.0124	8746.9	7850.1
940.5524	2103.5511	8729.5	7836.5
940.6885	2105.089	8708.7	7816.55
940.8245	2106.6261	8711.85	7820.4
940.9606	2108.1626	8641.55	7753.7
941.0965	2109.6983	8654.45	7737.6
941.2325	2111.2332	8595.7	7706
941.3684	2112.7675	8584.2	7693.05
941.5044	2114.301	8551.4	7659.8
941.6403	2115.8337	8566.55	7675
941.7761	2117.3657	8504.55	7613.15
941.912	2118.897	8481.55	7591.4
942.0478	2120.4276	8461.7	7563.95
942.1835	2121.9575	8418.85	7526.25
942.3193	2123.4866	8418.85	7524
942.455	2125.0149	8398.5	7505.7
942.5907	2126.5426	8362.25	7472.65
942.7264	2128.0695	8336.8	7446.65
942.8621	2129.5956	8350.45	7464.05
942.9977	2131.1211	8329.4	7436.35
943.1333	2132.6458	8278.55	7391.25
943.2689	2134.1698	8277.95	7382.95
943.4044	2135.693	8260.3	7365.75
943.54	2137.2155	8234.75	7339.25
943.6755	2138.7373	8204.95	7314.25
943.8109	2140.2584	8182.75	7296.15
943.9464	2141.7787	8157	7265.05
944.0818	2143.2983	8112.95	7227.75
944.2172	2144.8171	8063.25	7179.95
944.3526	2146.3353	8044.25	7157.05
944.4879	2147.8527	8026.15	7138.8
944.6232	2149.3693	8038.3	7148
944.7585	2150.8853	7993	7099.1
944.8938	2152.4005	7947.2	7053.9
945.029	2153.9149	7978.05	7084.45
945.1642	2155.4287	8058.7	7060.15
945.2994	2156.9417	7944	7050.8
945.4346	2158.454	7887.8	6996.85
945.5697	2159.9655	7865.7	6978.75
945.7048	2161.4764	7856.05	6968.15
945.8399	2162.9865	7828.25	6942.2
945.9749	2164.4958	7808.4	6919.45
946.1099	2166.0045	7759.5	6868.9
946.2449	2167.5124	7760.3	6869.35
946.3799	2169.0195	7737.65	6845.7
946.5148	2170.526	7747.45	6855.95
946.6498	2172.0317	7698.7	6807.9
946.7846	2173.5367	7677.65	6786.05
946.9195	2175.0409	7655.65	6766.55
947.0543	2176.5445	7675.4	6785.6
947.1891	2178.0473	7648.2	6757.05
947.3239	2179.5494	7584.55	6690.6
947.4587	2181.0507	7559.6	6669.5
947.5934	2182.5513	7557.1	6667.85
947.7281	2184.0512	7537.1	6644.2
947.8628	2185.5504	7529.5	6640.55
947.9974	2187.0488	7474.15	6585.45
948.132	2188.5465	7458.55	6572.4
948.2666	2190.0435	7418.4	6527.65
948.4012	2191.5397	7412.55	6521.2
948.5357	2193.0353	7401.75	6510.05
948.6702	2194.5301	7355.15	6459.1
948.8047	2196.0241	7321.95	6428.35
948.9392	2197.5175	7310.65	6418.3
949.0736	2199.0101	7279.95	6382.75
949.208	2200.502	7235.9	6344.25
949.3424	2201.9931	7206.65	6318.85
949.4767	2203.4835	7208.15	6318
949.611	2204.9733	7184.75	6279.3
949.7453	2206.4622	7176.3	6287.3
949.8796	2207.9505	7152.2	6262.1
950.0138	2209.438	7107	6220.9
950.148	2210.9248	7083.85	6195.6
950.2822	2212.4109	7078.2	6188.3
950.4164	2213.8962	7049.5	6156.15
950.5505	2215.3809	7044.15	6147.6
950.6846	2216.8648	6994.8	6099.55
950.8186	2218.3479	6992.55	6092.95
950.9527	2219.8304	6972.55	6074.4
951.0867	2221.3121	6944.85	6049.25
951.2207	2222.7931	6929.4	6035.8
951.3546	2224.2733	6909.95	6016.6
951.4886	2225.7529	6866.4	5975.65
951.6225	2227.2317	6832.25	5941.1
951.7563	2228.7098	6847.95	5961.35
951.8902	2230.1872	6813	5925.95
952.024	2231.6638	6810.85	5923.1
952.1578	2233.1397	6763.55	5871.65
952.2916	2234.6149	6748.5	5860.35
952.4253	2236.0894	6735	5846.7
952.559	2237.5632	6728.2	5835.6
952.6927	2239.0362	6680.05	5790.1
952.8263	2240.5085	6681.25	5790.7
952.9599	2241.9801	6647.95	5756.4
953.0935	2243.4509	6647.35	5755.85
953.2271	2244.921	6598.65	5703.5
953.3606	2246.3904	6592	5697.7
953.4941	2247.8591	6560.55	5668.25
953.6276	2249.3271	6535.85	5645.65
953.7611	2250.7943	6519	5626.95
953.8945	2252.2608	6493.9	5602.65
954.0279	2253.7266	6466.8	5574.9
954.1612	2255.1917	6462.95	5573.8
954.2946	2256.656	6451.95	5561.6
954.4279	2258.1197	6438.3	5550.35
954.5612	2259.5826	6420.35	5529.6
954.6944	2261.0447	6416.25	5525.85
954.8276	2262.5062	6366.2	5471.75
954.9608	2263.9669	6355.85	5462
955.094	2265.4269	6355.7	5465.5
955.2271	2266.8862	6339.2	5449.75
955.3602	2268.3448	6328.7	5437.8
955.4933	2269.8026	6295.65	5402
955.6264	2271.2598	6293.3	5404.45
955.7594	2272.7162	6275.6	5387.85
955.8924	2274.1719	6246.2	5353.4
956.0253	2275.6268	6240.45	5346.4
956.1583	2277.0811	6222.15	5329.4
956.2912	2278.5346	6197.5	5307.7
956.4241	2279.9874	6170.5	5282.15
956.5569	2281.4395	6172.6	5285.6
956.6897	2282.8908	6155.75	5258.6
956.8225	2284.3414	6147.45	5253.55
956.9553	2285.7914	6145.05	5255.3
957.088	2287.2406	6098.7	5206.6
957.2207	2288.689	6098.7	5205.3
957.3534	2290.1368	6075.85	5178.75
957.486	2291.5838	6066.35	5168.15
957.6186	2293.0302	6060.55	5161.65
957.7512	2294.4758	6026.3	5131.75
957.8838	2295.9206	6000.05	5106.55
958.0163	2297.3648	5978.7	5086.75
958.1488	2298.8082	5966.1	5075.7
958.2813	2300.251	5951.9	5061.1
958.4137	2301.693	5952.55	5056.75
958.5461	2303.1343	5939.35	5046.55
958.6785	2304.5748	5902.8	5010.7
958.8108	2306.0147	5874.25	4984.85
958.9432	2307.4538	5849.25	4958.65
959.0754	2308.8922	5839.5	4954.5
959.2077	2310.3299	5816.25	4925.95
959.3399	2311.7669	5808.3	4921.05
959.4721	2313.2031	5788.35	4899.65
959.6043	2314.6387	5765.65	4873.35
959.7365	2316.0735	5731.35	4841.5
959.8686	2317.5076	5736.65	4844.45
960.0006	2318.941	5723.65	4830.75
960.1327	2320.3737	5730.8	4836.15
960.2647	2321.8056	5719.85	4823
960.3967	2323.2369	5688.85	4794.5
960.5287	2324.6674	5672.1	4777.85
960.6606	2326.0972	5658.45	4765.25
960.7925	2327.5263	5633.6	4741.1
960.9244	2328.9547	5612.45	4722.35
961.0562	2330.3823	5593.85	4699.7
961.1881	2331.8092	5607.5	4708.2
961.3198	2333.2355	5584.75	4689.4
961.4516	2334.661	5559.8	4664.3
961.5833	2336.0858	5564.55	4668.95
961.715	2337.5098	5549.15	4658.4
961.8467	2338.9332	5522.75	4630.1
961.9783	2340.3558	5496.2	4604.25
962.1099	2341.7778	5500	4609.7
962.2415	2343.199	5459.65	4568.45
962.373	2344.6195	5465.6	4574.6
962.5045	2346.0393	5449.6	4559.35
962.636	2347.4583	5434.4	4541.3
962.7675	2348.8767	5411.15	4519.1
962.8989	2350.2943	5392.4	4496.55
963.0303	2351.7113	5389.25	4492.8
963.1617	2353.1275	5370.35	4476.25
963.293	2354.543	5375.5	4472.3
963.4243	2355.9578	5343	4450.95
963.5556	2357.3718	5324.3	4435.05
963.6868	2358.7852	5290.25	4399.85
963.818	2360.1978	5289.35	4399.45
963.9492	2361.6098	5262.8	4374.3
964.0803	2363.021	5264.85	4369.45
964.2114	2364.4315	5238.55	4346
964.3425	2365.8413	5226.45	4333.95
964.4736	2367.2504	5199.75	4311.25
964.6046	2368.6587	5169.6	4278.1
964.7356	2370.0664	5154.95	4264.9
964.8666	2371.4733	5133.5	4241.9
964.9975	2372.8795	5123.9	4233.45
965.1284	2374.285	5088.85	4197.85
965.2593	2375.6899	5078.3	4189.6
965.3901	2377.0939	5076.95	4188.45
965.5209	2378.4973	5056.65	4167.85
965.6517	2379.9	5042.1	4150
965.7825	2381.3019	5031.6	4139.55
965.9132	2382.7032	5004.55	4115.8
966.0439	2384.1037	4994.9	4108.35
966.1745	2385.5035	4979.85	4091.55
966.3051	2386.9027	4952.85	4066.55
966.4357	2388.3011	4943.15	4053.2
966.5663	2389.6987	4931.5	4041.65
966.6968	2391.0957	4914.55	4025.9
966.8273	2392.492	4904.1	4016.25
966.9578	2393.8876	4884.9	3997.45
967.0882	2395.2824	4854.5	3965.95
967.2186	2396.6765	4833.1	3945.9
967.349	2398.07	4814.35	3923.85
967.4793	2399.4627	4832.8	3939.55
967.6097	2400.8547	4801.25	3909.8
967.7399	2402.246	4794.75	3896.7
967.8702	2403.6366	4765.7	3874.8
968.0004	2405.0265	4755.35	3867.5
968.1306	2406.4156	4744.85	3854.45
968.2607	2407.8041	4728.15	3834
968.3909	2409.1918	4726.5	3833.6
968.521	2410.5789	4695.75	3806.9
968.651	2411.9652	4673	3780.8
968.781	2413.3508	4656.65	3767.45
968.911	2414.7358	4645.75	3752.95
969.041	2416.12	4636.6	3749.8
969.1709	2417.5035	4624.05	3734.55
969.3008	2418.8863	4615.3	3726.6
969.4307	2420.2684	4586.45	3697.75
969.5606	2421.6497	4577.8	3688
969.6904	2423.0304	4558.95	3667.7
969.8201	2424.4104	4533.55	3641.1
969.9499	2425.7896	4532.8	3641.3
970.0796	2427.1682	4517.35	3628.25
970.2093	2428.546	4513	3620.5
970.3389	2429.9232	4500.85	3607.75
970.4685	2431.2996	4495.3	3607.2
970.5981	2432.6753	4476.1	3587.15
970.7277	2434.0503	4474.15	3584.3
970.8572	2435.4246	4446.25	3554.1
970.9867	2436.7982	4439.6	3545.75
971.1161	2438.1711	4433.1	3543.85
971.2456	2439.5433	4411.7	3519.3
971.375	2440.9148	4392.75	3498.65
971.5043	2442.2856	4369.75	3479.2
971.6336	2443.6557	4367.6	3475.65
971.7629	2445.025	4350.25	3460.05
971.8922	2446.3937	4356.7	3466.15
972.0214	2447.7617	4345.7	3453.85
972.1506	2449.1289	4329.5	3438
972.2798	2450.4955	4315.1	3423.4
972.4089	2451.8613	4320.65	3431.25
972.538	2453.2265	4301.85	3411.5
972.6671	2454.5909	4299.7	3407.4
972.7961	2455.9546	4267.8	3375.35
972.9251	2457.3177	4252.85	3362.9
973.0541	2458.68	4240.45	3348.55
973.1831	2460.0416	4245.4	3354.85
973.312	2461.4025	4239.6	3348.6
973.4408	2462.7627	4246.75	3346.9
973.5697	2464.1222	4215.8	3328.95
973.6985	2465.4811	4192.05	3303.85
973.8273	2466.8392	4189.75	3298.45
973.956	2468.1966	4177.3	3283.2
974.0847	2469.5533	4177.95	3287.4
974.2134	2470.9093	4168.8	3277.9
974.3421	2472.2645	4154.1	3262.1
974.4707	2473.6191	4150.55	3259.2
974.5993	2474.973	4149.15	3257.9
974.7278	2476.3262	4116.05	3224.35
974.8563	2477.6787	4107.65	3217.4
974.9848	2479.0305	4087.3	3196.55
975.1132	2480.3816	4082.75	3191.65
975.2417	2481.7319	4071.95	3182.45
975.37	2483.0816	4044.15	3152.85
975.4984	2484.4306	4051.25	3160.3
975.6267	2485.7789	4022.65	3132.7
975.755	2487.1264	4008.75	3117.15
975.8833	2488.4733	4004.2	3114.35
976.0115	2489.8195	3989.25	3081.95
976.1397	2491.165	3975.95	3084.2
976.2678	2492.5097	3973.35	3081.85
976.3959	2493.8538	3949.3	3060.95
976.524	2495.1972	3937.3	3047.35
976.6521	2496.5398	3921.2	3029.5
976.7801	2497.8818	3913.95	3018.6
976.9081	2499.2231	3905.7	3014.95
977.036	2500.5637	3897.4	3003
977.164	2501.9035	3871.05	2978.75
977.2918	2503.2427	3872.1	2978.7
977.4197	2504.5812	3857.95	2967.65
977.5475	2505.919	3865.6	2974.5
977.6753	2507.256	3851.35	2961.4
977.8031	2508.5924	3818.35	2926.75
977.9308	2509.9281	3813.1	2917.05
978.0585	2511.2631	3807.55	2916.85
978.1861	2512.5974	3797.35	2906.4
978.3137	2513.9309	3790.55	2900.65
978.4413	2515.2638	3784.05	2866.6
978.5689	2516.596	3763.75	2873.1
978.6964	2517.9275	3749.55	2855.55
978.8239	2519.2583	3746.15	2855.2
978.9513	2520.5884	3739.2	2849.1
979.0788	2521.9178	3730.3	2838.9
979.2062	2523.2465	3719.55	2831.7
979.3335	2524.5745	3685.5	2797.6
979.4608	2525.9018	3681.95	2788.75
979.5881	2527.2284	3680.4	2790.6
979.7154	2528.5543	3671.85	2781.05
979.8426	2529.8796	3667.55	2776.1
979.9698	2531.2041	3659.85	2767.1
980.0969	2532.5279	3660.2	2771.65
980.224	2533.851	3645.3	2755.95
980.3511	2535.1735	3630.1	2740.6
980.4781	2536.4952	3624.75	2734
980.6052	2537.8163	3608.9	2717.3
980.7321	2539.1366	3598	2707.05
980.8591	2540.4562	3583.65	2690.8
980.986	2541.7752	3602.75	2711.35
981.1129	2543.0935	3589.3	2698.5
981.2397	2544.411	3576.25	2683.45
981.3665	2545.7279	3575.3	2683.35
981.4933	2547.0441	3562.25	2671.05
981.62	2548.3596	3572.75	2677.65
981.7467	2549.6744	3550.3	2659.1
981.8734	2550.9885	3541.85	2648.05
982.0001	2552.3019	3531.25	2640.65
982.1267	2553.6146	3537.45	2647.05
982.2532	2554.9266	3517.25	2623.85
982.3798	2556.2379	3499.65	2608.35
982.5063	2557.5485	3492.5	2602.25
982.6327	2558.8585	3511.25	2610.6
982.7592	2560.1677	3485.75	2588.5
982.8856	2561.4762	3487.95	2596.95
983.0119	2562.7841	3487.3	2591.7
983.1383	2564.0913	3458.95	2568.75
983.2646	2565.3977	3458.35	2567.6
983.3908	2566.7035	3449.9	2556.95
983.517	2568.0086	3445.95	2551.75
983.6432	2569.313	3429.35	2534.6
983.7694	2570.6167	3457.95	2563.55
983.8955	2571.9197	3429.95	2538.5
984.0216	2573.222	3432.35	2538.45
984.1476	2574.5236	3411.9	2518.85
984.2737	2575.8246	3403.55	2510.35
984.3996	2577.1248	3395.55	2502.3
984.5256	2578.4244	3385.65	2493.9
984.6515	2579.7232	3398.95	2507.4
984.7774	2581.0214	3416.2	2497.5
984.9032	2582.3189	3388.8	2499.85
985.029	2583.6157	3382.5	2487.05
985.1548	2584.9118	3378.45	2486.15
985.2806	2586.2072	3378.1	2487.1
985.4063	2587.5019	3349.7	2456.15
985.5319	2588.7959	3352.85	2459.3
985.6576	2590.0893	3344.75	2451.6
985.7832	2591.3819	3346.95	2454.55
985.9087	2592.6739	3341.15	2451.1
986.0343	2593.9652	3343.9	2451.1
986.1597	2595.2557	3323.55	2432
986.2852	2596.5456	3313.95	2419.4
986.4106	2597.8348	3318.85	2428.65
986.536	2599.1234	3297.8	2406.25
986.6614	2600.4112	3301.85	2410.6
986.7867	2601.6983	3286.9	2389.9
986.912	2602.9848	3273.85	2383.95
987.0372	2604.2705	3280.35	2381.65
987.1624	2605.5556	3262.75	2369.45
987.2876	2606.84	3262.55	2372.75
987.4128	2608.1237	3248.65	2354.35
987.5379	2609.4067	3238.25	2345.9
987.6629	2610.689	3229.45	2331.3
987.788	2611.9707	3218.95	2321.25
987.913	2613.2516	3208.4	2313.4
988.0379	2614.5319	3191.3	2300
988.1629	2615.8115	3185.6	2292.7
988.2878	2617.0903	3177.8	2284.65
988.4126	2618.3685	3175.95	2282.8
988.5375	2619.6461	3165.9	2273.4
988.6622	2620.9229	3167.4	2274.65
988.787	2622.199	3160.5	2267.95
988.9117	2623.4745	3140.6	2245.95
989.0364	2624.7493	3128.2	2236.2
989.161	2626.0234	3118.3	2228.3
989.2857	2627.2968	3096.5	2205.7
989.4102	2628.5695	3121.6	2229.9
989.5348	2629.8415	3101.05	2211.05
989.6593	2631.1128	3100.45	2207.65
989.7837	2632.3835	3083.3	2191.25
989.9082	2633.6535	3088.7	2198.85
990.0326	2634.9228	3084.85	2193.8
990.1569	2636.1914	3064.1	2172.3
990.2812	2637.4593	3070.1	2173.4
990.4055	2638.7265	3052.45	2160.2
990.5298	2639.9931	3038.95	2150.2
990.654	2641.259	3029.35	2138.9
990.7782	2642.5242	3029.05	2137.5
990.9023	2643.7887	3021.1	2131.05
991.0264	2645.0525	3002.9	2108.7
991.1505	2646.3156	3019.1	2114.85
991.2745	2647.5781	2998.1	2108.15
991.3985	2648.8398	2990.95	2102
991.5225	2650.1009	2995.5	2076.95
991.6464	2651.3613	2978.9	2086.95
991.7703	2652.6211	2971.6	2079.6
991.8942	2653.8801	2969.5	2080.6
992.018	2655.1385	2955.3	2061.85
992.1418	2656.3961	2943	2053.25
992.2655	2657.6531	2942.85	2050.8
992.3892	2658.9094	2935.8	2043.2
992.5129	2660.1651	2933.4	2042.9
992.6366	2661.42	2929.65	2038.95
992.7602	2662.6743	2921.7	2031.75
992.8837	2663.9279	2926.4	2037.75
993.0073	2665.1808	2910.65	2017.3
993.1307	2666.433	2912.3	2018.95
993.2542	2667.6846	2907.35	2016.7
993.3776	2668.9354	2909.6	2016.6
993.501	2670.1856	2904.25	2010.7
993.6244	2671.4351	2899.05	2007.8
993.7477	2672.6839	2888.5	1996.85
993.8709	2673.9321	2887.2	1997.4
993.9942	2675.1795	2893.1	2002.35
994.1174	2676.4263	2891.5	1999.4
994.2405	2677.6724	2888.6	1998.7
994.3637	2678.9179	2883.15	1991.5
994.4868	2680.1626	2875.45	1985.1
994.6098	2681.4067	2858.05	1966.6
994.7328	2682.6501	2854.55	1962.6
994.8558	2683.8928	2846.7	1957.75
994.9788	2685.1348	2837.15	1948.4
995.1017	2686.3761	2844.8	1956.35
995.2245	2687.6168	2835.8	1946.25
995.3474	2688.8568	2832.65	1940.6
995.4702	2690.0961	2803.45	1911.95
995.5929	2691.3348	2798.3	1907.65
995.7156	2692.5727	2797.9	1906.05
995.8383	2693.81	2792.45	1902.65
995.961	2695.0466	2776.75	1887.3
996.0836	2696.2826	2757.9	1865.4
996.2062	2697.5178	2771.5	1880.5
996.3287	2698.7524	2765.95	1874.7
996.4512	2699.9863	2755.3	1863.25
996.5737	2701.2195	2739.8	1850.9
996.6961	2702.452	2753.2	1861.2
996.8185	2703.6839	2751.95	1860.15
996.9408	2704.9151	2745.9	1855.05
997.0631	2706.1456	2753.45	1863.1
997.1854	2707.3755	2749.9	1861.15
997.3077	2708.6046	2757.55	1865.35
997.4299	2709.8331	2754.55	1864.2
997.552	2711.0609	2757.6	1865.45
997.6742	2712.2881	2755.45	1864.2
997.7963	2713.5145	2756.1	1864.75
997.9183	2714.7403	2770.75	1881.35
998.0403	2715.9654	2772.8	1879.9
998.1623	2717.1899	2786.3	1882.8
998.2842	2718.4136	2788.15	1899.15
998.4062	2719.6367	2795.4	1905.4
998.528	2720.8591	2787	1891.1
998.6498	2722.0809	2779.75	1891
998.7716	2723.3019	2808.85	1914.75
998.8934	2724.5223	2804.55	1912.3
999.0151	2725.7421	2794.2	1903.15
999.1368	2726.9611	2798.8	1908.3
999.2584	2728.1795	2782.7	1888.85
999.38	2729.3972	2777.55	1886.7
999.5016	2730.6142	2773.15	1877.4
999.6231	2731.8306	2745.65	1855.95
999.7446	2733.0462	2728.5	1837.05
999.8661	2734.2612	2701.6	1807.4
999.9875	2735.4756	2677.65	1785.3
1000.1089	2736.6892	2659.25	1769.55
1000.2302	2737.9022	2633.05	1745.15
1000.3515	2739.1145	2614.15	1725.45
1000.4728	2740.3262	2603.05	1707.75
1000.594	2741.5372	2583.9	1693.7
1000.7152	2742.7475	2564.15	1673.15
1000.8363	2743.9571	2565.1	1673.5
1000.9575	2745.1661	2543.9	1650.15
1001.0785	2746.3744	2532.3	1643.2
1001.1996	2747.582	2504.2	1617.35
1001.3206	2748.7889	2514.25	1624.2
1001.4415	2749.9952	2496.4	1607.05
1001.5625	2751.2008	2486.4	1595.6
1001.6833	2752.4057	2481.65	1589.75
1001.8042	2753.61	2467.55	1577.25
1001.925	2754.8136	2453.5	1562.85
1002.0458	2756.0165	2453.4	1566
1002.1665	2757.2188	2447.1	1561
1002.2872	2758.4204	2439.3	1550.6
1002.4078	2759.6213	2444.65	1552.65
1002.5285	2760.8215	2435.85	1542
1002.649	2762.0211	2431.5	1541.25
1002.7696	2763.22	2429.6	1537.55
1002.8901	2764.4182	2427.2	1536.35
1003.0106	2765.6158	2414.35	1524.7
1003.131	2766.8127	2400.7	1512.65
1003.2514	2768.009	2400.45	1511.6
1003.3717	2769.2045	2392.2	1502.5
1003.492	2770.3994	2390.25	1499.25
1003.6123	2771.5936	2375.3	1486.35
1003.7325	2772.7872	2367.6	1480.55
1003.8527	2773.9801	2372.95	1483.3
1003.9729	2775.1723	2373.75	1467.7
1004.093	2776.3639	2367.05	1480.15
1004.2131	2777.5548	2352.3	1464.25
1004.3331	2778.745	2348.1	1458.2
1004.4531	2779.9346	2350.8	1462.4
1004.5731	2781.1235	2348.05	1460.2
1004.693	2782.3117	2339.25	1451.2
1004.8129	2783.4992	2347.25	1460.55
1004.9328	2784.6861	2347.5	1459.6
1005.0526	2785.8723	2351.2	1462.45
1005.1723	2787.0579	2346.45	1457.35
1005.2921	2788.2428	2348.2	1459.5
1005.4118	2789.427	2356.9	1469.55
1005.5314	2790.6106	2358.4	1470.3
1005.651	2791.7935	2371.4	1483.7
1005.7706	2792.9757	2364.35	1477.05
1005.8902	2794.1573	2375.15	1485.7
1006.0097	2795.3382	2394.4	1506
1006.1291	2796.5184	2397.9	1510.85
1006.2485	2797.698	2404.35	1515.55
1006.3679	2798.8769	2431.5	1544
1006.4873	2800.0551	2433.4	1546.95
1006.6066	2801.2327	2460.4	1570.95
1006.7258	2802.4096	2481.25	1594.35
1006.8451	2803.5859	2495.3	1607.7
1006.9642	2804.7615	2504.9	1615.75
1007.0834	2805.9364	2522.25	1635.95
1007.2025	2807.1106	2552	1663.4
1007.3216	2808.2842	2577.1	1689
1007.4406	2809.4572	2597.8	1708.9
1007.5596	2810.6294	2642.1	1755.1
1007.6785	2811.801	2685.05	1797.45
1007.7975	2812.972	2726.85	1840.25
1007.9163	2814.1423	2762.35	1874.8
1008.0352	2815.3119	2793.9	1908.75
1008.154	2816.4808	2849.9	1964.75
1008.2727	2817.6491	2903.75	2015.95
1008.3914	2818.8167	2944.25	2057.5
1008.5101	2819.9837	3002.85	2109
1008.6288	2821.15	3023.65	2135.05
1008.7474	2822.3157	3071.55	2184.75
1008.8659	2823.4807	3105.2	2216.7
1008.9844	2824.645	3147.1	2257.25
1009.1029	2825.8086	3196.45	2309.15
1009.2214	2826.9716	3233.8	2347.25
1009.3398	2828.134	3276.65	2390
1009.4581	2829.2957	3296.85	2409.4
1009.5764	2830.4567	3335.95	2449.25
1009.6947	2831.617	3340.9	2454.15
1009.813	2832.7767	3343.85	2458.3
1009.9312	2833.9358	3358.45	2470.8
1010.0493	2835.0941	3354.45	2464.9
1010.1675	2836.2519	3326.6	2439.5
1010.2855	2837.4089	3310.55	2422.2
1010.4036	2838.5653	3326.25	2440
1010.5216	2839.7211	3303.05	2416
1010.6396	2840.8761	3310.1	2421.15
1010.7575	2842.0306	3333.15	2447.2
1010.8754	2843.1843	3364.45	2477.75
1010.9932	2844.3374	3401.35	2517.15
1011.111	2845.4899	3465.25	2578.8
1011.2288	2846.6417	3560.65	2673.7
1011.3465	2847.7928	3606.35	2718.1
1011.4642	2848.9433	3684.55	2796.75
1011.5818	2850.0931	3789.85	2903.3
1011.6995	2851.2422	3868.4	2978.45
1011.817	2852.3907	3944.45	3057.8
1011.9345	2853.5385	3999.35	3109.8
1012.052	2854.6857	4054.15	3159.85
1012.1695	2855.8323	4109	3223.3
1012.2869	2856.9781	4148.2	3260.55
1012.4042	2858.1233	4193.9	3308.4
1012.5216	2859.2679	4228.7	3342.3
1012.6389	2860.4118	4280.45	3393.4
1012.7561	2861.555	4324.2	3434.3
1012.8733	2862.6976	4356.65	3468.65
1012.9905	2863.8395	4376.4	3492.75
1013.1076	2864.9808	4378.2	3493.25
1013.2247	2866.1214	4409.45	3523.35
1013.3417	2867.2614	4415.45	3528.25
1013.4587	2868.4007	4423.75	3538.1
1013.5757	2869.5393	4440.5	3552.35
1013.6926	2870.6773	4453.35	3564.75
1013.8095	2871.8146	4458.6	3567.55
1013.9263	2872.9513	4456.9	3567.25
1014.0431	2874.0874	4445.1	3559.15
1014.1599	2875.2227	4446	3559.75
1014.2766	2876.3574	4410.6	3525.3
1014.3933	2877.4915	4379.6	3494.3
1014.51	2878.6249	4366.45	3480.85
1014.6266	2879.7577	4323.8	3437.8
1014.7431	2880.8898	4311.15	3412.75
1014.8596	2882.0212	4286.75	3400.8
1014.9761	2883.152	4263.5	3376.2
1015.0925	2884.2821	4261.95	3375.1
1015.2089	2885.4116	4249.95	3365.2
1015.3253	2886.5405	4232.3	3344.35
1015.4416	2887.6686	4256.05	3366.6
1015.5579	2888.7962	4257.3	3373.55
1015.6741	2889.923	4259.55	3375.3
1015.7903	2891.0493	4266.8	3381.6
1015.9065	2892.1748	4265.8	3379.2
1016.0226	2893.2997	4270.6	3384.1
1016.1387	2894.424	4280.65	3396.2
1016.2547	2895.5476	4302.2	3417.8
1016.3707	2896.6706	4332.8	3449.6
1016.4866	2897.7929	4365.55	3479.75
1016.6025	2898.9145	4399.9	3513.45
1016.7184	2900.0355	4400.4	3515
1016.8342	2901.1559	4421.4	3534
1016.95	2902.2756	4473.3	3589.6
1017.0658	2903.3946	4484.45	3596.55
1017.1815	2904.513	4525.05	3636.15
1017.2971	2905.6308	4545.85	3660.55
1017.4127	2906.7479	4569.25	3681.75
1017.5283	2907.8643	4594.4	3709.45
1017.6439	2908.9801	4595.7	3710.45
1017.7594	2910.0953	4602.25	3717.05
1017.8748	2911.2098	4598.9	3711.05
1017.9902	2912.3236	4600	3705.4
1018.1056	2913.4368	4587.8	3698.4
1018.2209	2914.5494	4561.2	3674.2
1018.3362	2915.6613	4532.4	3641.35
1018.4515	2916.7725	4490.6	3603.25
1018.5667	2917.8831	4463.4	3579
1018.6819	2918.9931	4427.55	3540.25
1018.797	2920.1024	4407.85	3522.4
1018.9121	2921.211	4389.7	3503.85
1019.0271	2922.319	4360	3474.65
1019.1421	2923.4264	4321.35	3437.25
1019.2571	2924.5331	4330.9	3447.15
1019.372	2925.6391	4303.4	3418.1
1019.4869	2926.7445	4304.05	3419.75
1019.6017	2927.8493	4262.4	3377.85
1019.7165	2928.9534	4287.45	3401.2
1019.8313	2930.0569	4261.2	3373.55
1019.946	2931.1597	4242.3	3356.9
1020.0606	2932.2619	4222.85	3337.6
1020.1753	2933.3634	4220.6	3336.3
1020.2899	2934.4643	4230.2	3337.45
1020.4044	2935.5645	4192.3	3301.7
1020.5189	2936.6641	4158.05	3267.05
1020.6334	2937.763	4107.35	3223.2
1020.7478	2938.8613	4062.9	3179.05
1020.8622	2939.959	3986.05	3096.85
1020.9765	2941.056	3914.5	3030.45
1021.0908	2942.1523	3836.2	2951.1
1021.2051	2943.248	3745.9	2858.15
1021.3193	2944.3431	3658.6	2773.4
1021.4334	2945.4375	3539.8	2652.7
1021.5476	2946.5313	3452.6	2569.2
1021.6617	2947.6244	3326.75	2441.8
1021.7757	2948.7169	3215.7	2330.85
1021.8897	2949.8087	3117.75	2236
1022.0037	2950.8999	3031.25	2146.25
1022.1176	2951.9904	2942.4	2058.4
1022.2315	2953.0803	2860.85	1977.1
1022.3453	2954.1696	2811.6	1927.45
1022.4591	2955.2582	2752.85	1870.45
1022.5728	2956.3462	2697.5	1811.6
1022.6865	2957.4335	2651.6	1765.1
1022.8002	2958.5202	2619.15	1729.9
1022.9138	2959.6062	2584.15	1698.85
1023.0274	2960.6916	2562.95	1679.65
1023.141	2961.7764	2539.8	1654.35
1023.2545	2962.8605	2516	1630.6
1023.3679	2963.9439	2499.15	1613.2
1023.4813	2965.0267	2498.2	1613.4
1023.5947	2966.1089	2509.25	1601.35
1023.708	2967.1905	2483.8	1600.1
1023.8213	2968.2714	2469.15	1585.3
1023.9346	2969.3516	2461.6	1577.5
1024.0478	2970.4312	2479.65	1585.95
1024.1609	2971.5102	2462.65	1577.9
1024.274	2972.5885	2458.3	1574.75
1024.3871	2973.6662	2469.1	1579.3
1024.5002	2974.7432	2456.9	1574.3
1024.6132	2975.8196	2446.35	1561.25
1024.7261	2976.8954	2428.35	1544.3
1024.839	2977.9705	2420.7	1535.75
1024.9519	2979.045	2402.45	1517.35
1025.0647	2980.1188	2385.05	1500.15
1025.1775	2981.192	2362.9	1479.15
1025.2902	2982.2645	2344.75	1460.1
1025.4029	2983.3364	2326.75	1443.9
1025.5156	2984.4077	2285.7	1401.75
1025.6282	2985.4783	2263.25	1373.65
1025.7407	2986.5483	2218.95	1335.25
1025.8532	2987.6177	2188.3	1307.2
1025.9657	2988.6864	2140.25	1257.1
1026.0782	2989.7545	2113.95	1228.75
1026.1906	2990.8219	2080.3	1198
1026.3029	2991.8887	2044.75	1159.95
1026.4152	2992.9548	2004.9	1117.95
1026.5275	2994.0204	1970.05	1087.4
1026.6397	2995.0852	1956.75	1074.15
1026.7519	2996.1495	1919.55	1036.3
1026.864	2997.2131	1902	1019.1
1026.9761	2998.276	1887.05	1002.1
1027.0882	2999.3383	1854.85	968.85
1027.2002	3000.4	1838.75	954.15
1027.3122	3001.4611	1825.15	941.65
1027.4241	3002.5215	1797.4	912.55
1027.536	3003.5812	1784.95	901.05
1027.6478	3004.6404	1772.25	888.05
1027.7596	3005.6989	1767.3	878.3
1027.8714	3006.7567	1752.7	868.8
1027.9831	3007.8139	1763.75	859
1028.0947	3008.8705	1735.3	850.85
1028.2064	3009.9264	1738.45	838.6
1028.3179	3010.9818	1720.95	837.5
1028.4295	3012.0364	1719.1	835.9
1028.541	3013.0905	1712.7	828.9
1028.6524	3014.1439	1714	830.95
1028.7638	3015.1966	1709.55	826.15
1028.8752	3016.2487	1701.2	815.25
1028.9865	3017.3002	1704.75	814.55
1029.0978	3018.3511	1703.3	822.05
1029.209	3019.4013	1698.3	814.9
1029.3202	3020.4509	1697.05	814
1029.4314	3021.4998	1701.55	817
1029.5425	3022.5481	1696.85	812.8
1029.6535	3023.5958	1694.85	812
1029.7645	3024.6428	1694.45	810.7
1029.8755	3025.6892	1693.35	809.3
1029.9864	3026.735	1691.7	809.75
1030.0973	3027.7802	1698.45	814.1
1030.2082	3028.8247	1702.85	818.6
1030.319	3029.8685	1702.3	818.6
1030.4297	3030.9118	1695	809.75
1030.5404	3031.9544	1697.4	814.25
1030.6511	3032.9963	1708.7	825.4
1030.7617	3034.0376	1718.7	836.05
1030.8723	3035.0783	1712.7	826.5
1030.9829	3036.1184	1726.4	841.6
1031.0934	3037.1578	1710.25	826.65
1031.2038	3038.1966	1724.15	840.4
1031.3142	3039.2348	1715.3	833.15
1031.4246	3040.2723	1722.15	831.8
1031.5349	3041.3092	1714	831.3
1031.6452	3042.3455	1704.5	820.4
1031.7554	3043.3811	1714.5	832.05
1031.8656	3044.4161	1690.2	804.9
1031.9758	3045.4505	1684.15	801.05
1032.0859	3046.4842	1685.45	798.75
1032.1959	3047.5173	1675.45	794.05
1032.3059	3048.5498	1665	781.3
1032.4159	3049.5816	1663.2	783.45
1032.5258	3050.6128	1662.05	776.8
1032.6357	3051.6434	1655.35	770.25
1032.7455	3052.6734	1641.85	758.55
1032.8553	3053.7027	1624.65	741.4
1032.9651	3054.7314	1619.5	736.8
1033.0748	3055.7594	1618.6	735.9
1033.1845	3056.7868	1610.8	726.3
1033.2941	3057.8136	1610.8	730.05
1033.4037	3058.8398	1595.7	712.35
1033.5132	3059.8653	1594.4	711.1
1033.6227	3060.8902	1585.1	701.1
1033.7321	3061.9145	1579.25	697.25
1033.8415	3062.9381	1568.45	684.95
1033.9509	3063.9612	1574.45	675.6
1034.0602	3064.9835	1559.65	675.9
1034.1694	3066.0053	1553.7	668.5
1034.2787	3067.0264	1543.2	660.85
1034.3878	3068.0469	1535.55	652.55
1034.497	3069.0668	1528.4	641.75
1034.6061	3070.086	1516.1	631.45
1034.7151	3071.1046	1504.35	618.3
1034.8241	3072.1226	1494.95	609.9
1034.9331	3073.1399	1479.45	596.65
1035.042	3074.1567	1472.45	589.95
1035.1508	3075.1727	1467.65	582.4
1035.2597	3076.1882	1450.85	567.65
1035.3684	3077.203	1449.85	567.2
1035.4772	3078.2173	1439.5	559
1035.5859	3079.2308	1424.35	537.65
1035.6945	3080.2438	1418.1	531.45
1035.8031	3081.2561	1410.25	527.4
1035.9117	3082.2678	1397.65	514.95
1036.0202	3083.2789	1389.3	506.75
1036.1286	3084.2893	1388.95	505.8
1036.2371	3085.2991	1374.4	490.45
1036.3454	3086.3083	1373.65	487.1
1036.4538	3087.3169	1360.15	477.35
1036.562	3088.3248	1361	478.4
1036.6703	3089.3321	1350.95	466.85
1036.7785	3090.3388	1340.3	458.3
1036.8866	3091.3449	1339.1	454.6
1036.9948	3092.3503	1333.2	448.5
1037.1028	3093.3551	1336.75	455.7
1037.2108	3094.3593	1328.55	446.05
1037.3188	3095.3629	1321	438.9
1037.4267	3096.3658	1312.3	428.45
1037.5346	3097.3681	1314.55	432.65
1037.6425	3098.3698	1318.45	435.1
1037.7503	3099.3708	1303.6	415.65
1037.858	3100.3713	1299.8	415.1
1037.9657	3101.3711	1301.4	418.95
1038.0734	3102.3702	1435.15	412.7
1038.181	3103.3688	1294.55	410.25
1038.2886	3104.3667	1284.7	403.25
1038.3961	3105.364	1284.2	401
1038.5036	3106.3607	1287.9	402.95
1038.611	3107.3568	1282.4	396.15
1038.7184	3108.3522	1265.7	384
1038.8257	3109.347	1275.95	393.2
1038.933	3110.3412	1272.9	384.5
1039.0403	3111.3348	1261	377.95
1039.1475	3112.3277	1264.45	381.35
1039.2547	3113.32	1261.05	379.4
1039.3618	3114.3117	1260.95	378.25
1039.4689	3115.3028	1253.4	369.5
1039.5759	3116.2932	1257.15	372.35
1039.6829	3117.2831	1254.05	366.35
1039.7898	3118.2723	1246	362.65
1039.8967	3119.2608	1248.65	366.25
1040.0035	3120.2488	1246.5	364
1040.1103	3121.2361	1244.95	361.6
1040.2171	3122.2229	1238	354.75
1040.3238	3123.209	1237.75	354.7
1040.4305	3124.1944	1235.75	352.55
1040.5371	3125.1793	1237.25	353.6
1040.6437	3126.1635	1230.45	347.55
1040.7502	3127.1471	1230.25	347.55
1040.8567	3128.1301	1231.2	349.7
1040.9631	3129.1125	1221.65	340.35
1041.0695	3130.0942	1227	344.85
1041.1759	3131.0753	1234.65	345.05
1041.2822	3132.0558	1228.2	343.2
1041.3884	3133.0357	1219.5	336.35
1041.4946	3134.015	1223	341.3
1041.6008	3134.9936	1214.05	329.8
1041.7069	3135.9716	1233.5	329.4
1041.813	3136.949	1213.3	330.65
1041.919	3137.9258	1229.4	332.25
1042.025	3138.902	1211	325.75
1042.1309	3139.8775	1204.5	321.9
1042.2368	3140.8524	1206.4	324.7
1042.3427	3141.8267	1196.7	312.9
1042.4485	3142.8004	1200.3	318.45
1042.5542	3143.7735	1205.65	314.45
1042.6599	3144.7459	1201.6	316.8
1042.7656	3145.7178	1192.75	308.1
1042.8712	3146.689	1184.55	305.3
1042.9768	3147.6596	1193.95	311.6
1043.0823	3148.6295	1186.7	303.8
1043.1878	3149.5989	1182.55	299.9
1043.2932	3150.5676	1178.55	299.05
1043.3986	3151.5357	1179.35	296.4
1043.5039	3152.5032	1179.95	296.95
1043.6092	3153.4701	1173.7	292.4
1043.7145	3154.4364	1175.05	290.5
1043.8197	3155.402	1176.05	294.45
1043.9248	3156.367	1174.75	290.45
1044.03	3157.3315	1206.5	287.35
1044.135	3158.2952	1170	287.5
1044.24	3159.2584	1165.3	284.25
1044.345	3160.221	1170.2	288.15
1044.4499	3161.1829	1162.95	281.75
1044.5548	3162.1442	1161.4	279.3
1044.6596	3163.105	1158.7	276.6
1044.7644	3164.065	1156.9	274.5
1044.8692	3165.0245	1161.4	275.3
1044.9739	3165.9834	1156.3	275.7
1045.0785	3166.9416	1153.1	269.9
1045.1831	3167.8993	1154.45	272.65
1045.2877	3168.8563	1145.1	264.1
1045.3922	3169.8127	1144.45	263.1
1045.4966	3170.7684	1146.25	266.95
1045.6011	3171.7236	1143.7	258.6
1045.7054	3172.6782	1141.85	261.2
1045.8098	3173.6321	1142.3	259.4
1045.914	3174.5854	1149.15	263.1
1046.0183	3175.5381	1144.15	262.5
1046.1224	3176.4902	1140.25	257.35
1046.2266	3177.4417	1134.4	251.45
1046.3307	3178.3926	1133.6	252.3
1046.4347	3179.3428	1132.25	252.15
1046.5387	3180.2924	1130.4	246.6
1046.6427	3181.2415	1126.9	246.2
1046.7466	3182.1899	1125	240.2
1046.8504	3183.1377	1129.7	247.9
1046.9542	3184.0848	1129	244.25
1047.058	3185.0314	1124.75	242.05
1047.1617	3185.9773	1123.4	240.35
1047.2654	3186.9227	1121.25	239.45
1047.369	3187.8674	1121.65	239.1
1047.4726	3188.8115	1119.8	232.9
1047.5761	3189.755	1111.45	229.25
1047.6796	3190.6979	1118.85	237.4
1047.783	3191.6402	1112.1	229.55
1047.8864	3192.5818	1114.55	232.85
1047.9898	3193.5229	1119.85	232.65
1048.0931	3194.4633	1115.5	231.8
1048.1963	3195.4031	1110.3	227.5
1048.2995	3196.3423	1109.25	225.55
1048.4027	3197.2809	1104.3	222.2
1048.5058	3198.2189	1106.1	223.45
1048.6089	3199.1563	1107.85	219.45
1048.7119	3200.0931	1104.85	222.9
1048.8148	3201.0292	1101.75	219.1
1048.9178	3201.9648	1100.25	220.55
1049.0206	3202.8997	1103.05	217.65
1049.1235	3203.834	1097.4	214.8
1049.2262	3204.7677	1097.65	214.45
1049.329	3205.7008	1101.95	217.5
1049.4317	3206.6333	1096	215.8
1049.5343	3207.5652	1100.1	216.65
1049.6369	3208.4964	1093.45	209.25
1049.7394	3209.4271	1092.3	212.9
1049.8419	3210.3571	1091.5	209.7
1049.9444	3211.2865	1092.1	210.05
1050.0468	3212.2154	1094.7	213.6
1050.1491	3213.1436	1092.5	207.9
1050.2514	3214.0712	1094.6	205.9
1050.3537	3214.9982	1085.85	202.8
1050.4559	3215.9246	1081.9	199.1
1050.5581	3216.8503	1083.25	201.9
1050.6602	3217.7755	1085.95	204.1
1050.7623	3218.7001	1082.55	204.35
1050.8643	3219.624	1084.9	203.75
1050.9663	3220.5473	1081.95	200.6
1051.0682	3221.4701	1079	195.45
1051.1701	3222.3922	1081	197.75
1051.2719	3223.3137	1080	199.35
1051.3737	3224.2346	1079.25	194.6
1051.4754	3225.1549	1073.85	194.35
1051.5771	3226.0746	1073.55	190.6
1051.6788	3226.9937	1073.35	190.9
1051.7804	3227.9121	1072.4	192.95
1051.8819	3228.83	1073.85	191.05
1051.9834	3229.7473	1071.05	189.85
1052.0849	3230.6639	1067.95	184.35
1052.1863	3231.5799	1069.4	189.6
1052.2876	3232.4954	1061.05	178.85
1052.3889	3233.4102	1066.45	184.8
1052.4902	3234.3244	1065.65	184.45
1052.5914	3235.238	1062.6	183.2
1052.6926	3236.151	1093.3	185.85
1052.7937	3237.0634	1061.05	181.65
1052.8948	3237.9752	1062.3	179.3
1052.9958	3238.8864	1061	179.9
1053.0968	3239.797	1059.3	177.65
1053.1977	3240.7069	1058.35	177.75
1053.2986	3241.6163	1058.25	174.6
1053.3994	3242.5251	1054.85	174.9
1053.5002	3243.4332	1055.1	174.6
1053.6009	3244.3408	1053.65	171.6
1053.7016	3245.2477	1053.15	172.7
1053.8022	3246.154	1050.45	167.2
1053.9028	3247.0598	1049.8	167.8
1054.0034	3247.9649	1050.4	170.3
1054.1039	3248.8694	1047.4	167.75
1054.2043	3249.7733	1048.4	165.2
1054.3047	3250.6766	1047.3	167.05
1054.4051	3251.5793	1042.8	159.35
1054.5054	3252.4814	1045.3	165
1054.6056	3253.3829	1042.65	162.45
1054.7058	3254.2838	1040	158.6
1054.806	3255.1841	1043.7	163.3
1054.9061	3256.0838	1039.55	158.05
1055.0061	3256.9829	1039.1	156.2
1055.1062	3257.8814	1034.55	154.05
1055.2061	3258.7792	1035.95	152.7
1055.306	3259.6765	1034.1	152.2
1055.4059	3260.5731	1030.45	148.8
1055.5057	3261.4692	1032.25	151.4
1055.6055	3262.3647	1024.3	142.7
1055.7052	3263.2595	1021.9	139.6
1055.8049	3264.1538	1021.1	141.25
1055.9045	3265.0474	1024.3	141.6
1056.0041	3265.9404	1019.45	138.9
1056.1036	3266.8329	1016.6	135.75
1056.2031	3267.7247	1023.25	131.7
1056.3025	3268.616	1010.75	129.3
1056.4019	3269.5066	1009.3	129.25
1056.5013	3270.3966	1005.45	122.35
1056.6005	3271.286	1000.4	120.35
