Software Version:	3.9.2.0
Unit SN:	10000200
Spectrometer SN:	6960
Date:	3/26/2024 1:19:39 PM
Data Line Index:	25
Spectral Points:	2048
Integration time (ms):	125
Averages:	20
Delay (ms):	30000
Sequence Number:	1
Processing:	dark subtract
Laser Power (mW):	300
Laser Current (mA):	821
Laser Diode Temp (C):	25.1
Laser Case Temp (C):	26.5
System Temp (C):	26.5
Spectrometer Temp (C):	24.3
CCD Temp (C):	0.002
Secondary Temp (C):	20.008
Heatsink Temp (C):	22.025
CCDPCB Temp (C):	36.374
SecondaryPCB Temp (C):	32.561

Wavelength	RamanShift	Raw Counts	Dark Subtracted
787.061	30.1047	429.45	19.8
787.2016	32.3739	429.55	20.75
787.3422	34.6426	432.2	22.15
787.4828	36.9109	434.45	22.1
787.6235	39.1787	439.1	24.2
787.7642	41.4461	446.7	25.6
787.9049	43.7131	454.05	31.1
788.0456	45.9796	456.75	28.65
788.1863	48.2456	459.35	29.75
788.3271	50.5112	467.95	31.95
788.4679	52.7764	471.1	33.8
788.6087	55.0411	474.35	32.9
788.7496	57.3054	481.9	35.75
788.8904	59.5692	486.55	39.05
789.0313	61.8326	495.1	44.25
789.1722	64.0955	503.6	46.35
789.3132	66.3579	513.8	51.8
789.4541	68.6199	523.15	58.3
789.5951	70.8815	532.45	68.4
789.7361	73.1426	562.75	93.55
789.8771	75.4032	626.55	154.15
790.0181	77.6634	774	295.95
790.1592	79.9231	1132.8	650.1
790.3003	82.1824	1878.4	1394.35
790.4414	84.4412	3184.7	2695.25
790.5825	86.6995	4971.7	4475.65
790.7237	88.9574	6793.25	6289.9
790.8648	91.2148	8172.15	7665.75
791.006	93.4717	8928.55	8419.35
791.1472	95.7282	9223.15	8711.85
791.2885	97.9842	9378.95	8864.2
791.4297	100.2398	9394.5	8875.85
791.571	102.4949	9392.1	8872.2
791.7123	104.7495	9379.05	8855.05
791.8536	107.0036	9314.45	8789.3
791.9949	109.2573	9265.45	8743.25
792.1363	111.5105	9228.65	8703.25
792.2777	113.7632	9174.65	8645.7
792.4191	116.0154	9135.1	8596.05
792.5605	118.2672	9125.9	8592.8
792.7019	120.5185	9059.75	8527.75
792.8434	122.7693	8991.15	8455.4
792.9849	125.0197	8967.95	8429.55
793.1264	127.2696	8923.35	8382.6
793.2679	129.519	8931.95	8387.95
793.4094	131.7679	8925.15	8380.5
793.551	134.0163	8910.5	8361.15
793.6926	136.2642	8889.6	8333.05
793.8342	138.5117	8911.1	8347.55
793.9758	140.7587	8872.1	8313.95
794.1175	143.0052	8854.25	8293.15
794.2591	145.2512	8812.7	8251.25
794.4008	147.4967	8756.35	8194
794.5425	149.7417	8728.2	8162.15
794.6842	151.9863	8672	8100.65
794.826	154.2304	8668.75	8096.1
794.9677	156.4739	8644.4	8067.85
795.1095	158.717	8643.6	8064.75
795.2513	160.9596	8659.15	8075.8
795.3931	163.2017	8624.25	8041.7
795.535	165.4433	8645.4	8059.15
795.6768	167.6844	8616.35	8028.8
795.8187	169.925	8617.4	8024.6
795.9606	172.1651	8546.05	7950.65
796.1025	174.4047	8523.55	7924.55
796.2445	176.6439	8474.55	7873.85
796.3864	178.8825	8447.15	7842.55
796.5284	181.1206	8453.75	7847.15
796.6704	183.3582	8440.15	7827.8
796.8124	185.5954	8407.35	7793.55
796.9544	187.832	8415.45	7798.45
797.0965	190.0681	8420.65	7800.8
797.2386	192.3037	8419.4	7795.4
797.3806	194.5388	8419.65	7792.1
797.5228	196.7734	8425.15	7795.1
797.6649	199.0075	8440.35	7807.85
797.807	201.2411	8467.7	7832.25
797.9492	203.4742	8494.6	7857.25
798.0914	205.7068	8505.85	7869.9
798.2336	207.9389	8507.4	7869.55
798.3758	210.1704	8528.15	7887.7
798.518	212.4015	8503.25	7860.6
798.6603	214.632	8524.4	7880.35
798.8025	216.862	8492.1	7854.2
798.9448	219.0915	8475.05	7845.55
799.0871	221.3205	8455.6	7827.5
799.2294	223.549	8485.65	7862.95
799.3718	225.777	8487.95	7864.6
799.5141	228.0044	8483.95	7857.9
799.6565	230.2314	8490.1	7867.7
799.7989	232.4578	8443.6	7820.2
799.9413	234.6837	8432.85	7802.45
800.0837	236.909	8433.6	7801.7
800.2262	239.1339	8439.35	7781.5
800.3687	241.3582	8419.7	7776.75
800.5111	243.582	8428.9	7756.95
800.6536	245.8053	8423.6	7761.75
800.7961	248.0281	8427.5	7770.7
800.9387	250.2503	8398.25	7735.95
801.0812	252.472	8401.55	7735.2
801.2238	254.6932	8437	7766.7
801.3664	256.9139	8387.6	7715.75
801.509	259.134	8397.3	7721.4
801.6516	261.3536	8397	7721.2
801.7942	263.5727	8428.5	7752.8
801.9369	265.7912	8426.25	7751.6
802.0795	268.0092	8472.85	7796.4
802.2222	270.2267	8484.45	7807.8
802.3649	272.4436	8483.4	7802.75
802.5076	274.6601	8517.9	7828
802.6504	276.8759	8495.9	7812.75
802.7931	279.0913	8511.8	7828
802.9359	281.3061	8520.4	7836.75
803.0787	283.5204	8540.95	7853.2
803.2215	285.7341	8564.1	7872.1
803.3643	287.9473	8577.4	7875.75
803.5071	290.16	8547.85	7849
803.6499	292.3721	8520.55	7828.1
803.7928	294.5837	8508.8	7812.4
803.9357	296.7947	8461.5	7767.05
804.0786	299.0052	8422.5	7726.7
804.2215	301.2152	8386.6	7688.35
804.3644	303.4246	8387.45	7690.8
804.5074	305.6334	8371.05	7674.8
804.6503	307.8418	8370.15	7671.35
804.7933	310.0495	8318.6	7619
804.9363	312.2568	8287.45	7587.55
805.0793	314.4635	8224	7522.2
805.2223	316.6696	8191.75	7489.75
805.3653	318.8752	8137.6	7424.1
805.5084	321.0802	8103.65	7399.25
805.6514	323.2847	8097.25	7389.95
805.7945	325.4887	8069.55	7362.15
805.9376	327.692	8074.25	7364.55
806.0807	329.8949	8082.25	7374
806.2238	332.0972	8104.7	7394.95
806.367	334.2989	8134	7418.35
806.5101	336.5001	8112.7	7399.2
806.6533	338.7007	8085.85	7370.95
806.7965	340.9008	8058.6	7341.15
806.9397	343.1003	8003.85	7285.3
807.0829	345.2992	7992.5	7270.65
807.2261	347.4976	7953	7229.4
807.3693	349.6955	7915.6	7189.85
807.5126	351.8927	7925.1	7197.6
807.6559	354.0895	7888.3	7151.85
807.7991	356.2856	7873.45	7146.65
807.9424	358.4812	7838.45	7109.45
808.0857	360.6763	7851	7121.5
808.2291	362.8707	7853	7120.9
808.3724	365.0646	7842.85	7108.45
808.5158	367.258	7823.6	7088.4
808.6591	369.4508	7802.25	7062
808.8025	371.643	7835.7	7097.95
808.9459	373.8346	7827.95	7086.25
809.0893	376.0257	7843.7	7097.05
809.2327	378.2162	7843.8	7097.9
809.3762	380.4062	7863.45	7115.9
809.5196	382.5956	7822.6	7074.85
809.6631	384.7844	7794	7046.15
809.8066	386.9726	7726.3	6975.7
809.9501	389.1603	7703.45	6954.95
810.0936	391.3474	7690.1	6909.8
810.2371	393.5339	7685.2	6938.25
810.3806	395.7199	7632.7	6889.9
810.5241	397.9052	7637.8	6894.25
810.6677	400.09	7634.15	6892.2
810.8113	402.2743	7688.65	6948.85
810.9548	404.4579	7669.65	6928.05
811.0984	406.641	7694.15	6951.45
811.2421	408.8235	7730.4	6985.2
811.3857	411.0054	7775.6	7029.75
811.5293	413.1868	7879.05	7130.35
811.673	415.3675	7943.8	7193.25
811.8166	417.5477	7966.3	7213.8
811.9603	419.7273	7890.1	7137.9
812.104	421.9064	7769.3	7007.65
812.2477	424.0848	7683.4	6927.3
812.3914	426.2627	7614.05	6851.5
812.5351	428.4399	7565.65	6803.8
812.6788	430.6166	7510.15	6742.85
812.8226	432.7928	7464.6	6696.45
812.9663	434.9683	7427.1	6660.25
813.1101	437.1432	7383.7	6612.8
813.2539	439.3176	7326.2	6559.3
813.3977	441.4914	7325.75	6555.55
813.5415	443.6645	7332.15	6559.7
813.6853	445.8371	7288.7	6514.8
813.8291	448.0091	7265	6493.4
813.973	450.1806	7258.35	6486.45
814.1168	452.3514	7244.1	6468.3
814.2607	454.5216	7231.55	6452.6
814.4046	456.6913	7198.05	6421.75
814.5485	458.8603	7196.8	6421.65
814.6924	461.0288	7188.9	6412
814.8363	463.1967	7162.7	6385.05
814.9802	465.3639	7191.2	6412.2
815.1241	467.5306	7197.8	6420.1
815.2681	469.6967	7157.55	6377
815.412	471.8622	7133.6	6355.5
815.556	474.0271	7113.45	6333.2
815.7	476.1914	7115.25	6333.05
815.844	478.3551	7091.25	6310.8
815.988	480.5182	7097.2	6315.9
816.132	482.6807	7132.8	6348.6
816.276	484.8426	7117.45	6336.55
816.4201	487.0039	7141	6358.45
816.5641	489.1647	7196.35	6410.1
816.7082	491.3248	7197.05	6411.45
816.8522	493.4843	7209.75	6426.15
816.9963	495.6432	7202	6414.95
817.1404	497.8015	7179.65	6391.85
817.2845	499.9592	7155.95	6369.75
817.4286	502.1163	7097.65	6311.75
817.5727	504.2728	7044.25	6255.55
817.7168	506.4287	7056.05	6268.3
817.861	508.5839	7028.3	6240.35
818.0051	510.7386	7039.25	6250.85
818.1493	512.8927	7050.55	6252.55
818.2935	515.0461	7013.15	6220.45
818.4377	517.199	7035.45	6245.25
818.5818	519.3512	7038.65	6247.3
818.726	521.5029	7075.3	6277.7
818.8703	523.6539	7129.1	6335.8
819.0145	525.8043	7113.85	6317.75
819.1587	527.9541	7093.7	6295.3
819.303	530.1033	7049.55	6252.9
819.4472	532.2519	6994.7	6199.15
819.5915	534.3999	6971.35	6170.85
819.7357	536.5472	6959.7	6159.5
819.88	538.694	6975.85	6177.05
820.0243	540.8401	6985.15	6185.15
820.1686	542.9856	6997.7	6196.05
820.3129	545.1305	6986.15	6183.4
820.4572	547.2748	6986	6183.25
820.6016	549.4185	7016	6212.7
820.7459	551.5615	6964.55	6162.25
820.8902	553.704	6980.05	6175.6
821.0346	555.8458	6999.45	6196.3
821.1789	557.987	7021.5	6220.5
821.3233	560.1276	7033	6227.55
821.4677	562.2675	7068.5	6266.15
821.6121	564.4069	7081.25	6276.95
821.7565	566.5456	7100.3	6297.8
821.9009	568.6837	7106.55	6302.4
822.0453	570.8212	7046.35	6243.65
822.1897	572.958	6992.25	6185.35
822.3342	575.0942	6945.9	6142.5
822.4786	577.2299	6918.45	6111.4
822.6231	579.3648	6877.3	6069.8
822.7675	581.4992	6816.25	6011
822.912	583.6329	6812.15	6004.45
823.0565	585.766	6811.65	6005.45
823.201	587.8985	6819.8	6013
823.3454	590.0304	6867.9	6047.4
823.4899	592.1616	6874.05	6062.5
823.6345	594.2922	6864.95	6052.45
823.779	596.4222	6837.1	6023.7
823.9235	598.5515	6782.35	5969.05
824.068	600.6802	6715	5901.45
824.2126	602.8083	6669.9	5857.2
824.3571	604.9358	6673.85	5859.5
824.5017	607.0626	6640.55	5826.15
824.6462	609.1888	6662.3	5847.95
824.7908	611.3144	6660.6	5844.35
824.9354	613.4393	6664.7	5850.85
825.08	615.5636	6689	5872.15
825.2246	617.6873	6744.15	5929.3
825.3692	619.8103	6747.45	5930.75
825.5138	621.9327	6750.35	5928
825.6584	624.0544	6730.85	5914.5
825.803	626.1756	6686.7	5869.5
825.9477	628.2961	6649.75	5831.9
826.0923	630.4159	6620.05	5802.35
826.237	632.5351	6635.2	5815.6
826.3816	634.6537	6611.65	5790.9
826.5263	636.7716	6602.45	5779.8
826.6709	638.8889	6587.15	5765.45
826.8156	641.0056	6631.05	5809.35
826.9603	643.1216	6592.5	5769.05
827.105	645.237	6608.7	5783.1
827.2497	647.3518	6592.65	5769.3
827.3944	649.4659	6570.95	5748
827.5391	651.5793	6553.7	5731.6
827.6838	653.6922	6536.75	5714.5
827.8285	655.8043	6524.7	5701.4
827.9733	657.9159	6510.2	5684.25
828.118	660.0268	6488.1	5658.8
828.2627	662.137	6497.2	5671.5
828.4075	664.2466	6486.6	5657.6
828.5522	666.3556	6470.15	5642.8
828.697	668.4639	6468.05	5638.65
828.8418	670.5716	6443.15	5616.05
828.9865	672.6786	6439.65	5612.1
829.1313	674.785	6422.7	5592.6
829.2761	676.8907	6392.6	5562.65
829.4209	678.9958	6414.75	5585.65
829.5657	681.1002	6399	5567.45
829.7105	683.204	6407.95	5573.6
829.8553	685.3072	6395.7	5563.75
830.0001	687.4097	6391.5	5562.45
830.1449	689.5115	6381.55	5551.05
830.2898	691.6127	6384.2	5554.4
830.4346	693.7132	6368.6	5537.65
830.5794	695.8131	6404.4	5549.05
830.7243	697.9123	6373.85	5541.45
830.8691	700.0109	6364.25	5531.8
831.014	702.1089	6371.4	5538.55
831.1588	704.2061	6360.3	5527.7
831.3037	706.3028	6373.05	5536.65
831.4486	708.3987	6369.2	5536.2
831.5935	710.4941	6384.7	5550.65
831.7383	712.5887	6384.25	5548.35
831.8832	714.6827	6404.4	5564.85
832.0281	716.7761	6379.45	5542.5
832.173	718.8688	6367.45	5531.75
832.3179	720.9608	6359.35	5519.9
832.4628	723.0522	6378.65	5538.55
832.6077	725.1429	6371.4	5533.5
832.7527	727.233	6380.1	5540.8
832.8976	729.3224	6446.7	5606.75
833.0425	731.4112	6441.35	5600.8
833.1874	733.4993	6461.05	5619.45
833.3324	735.5867	6431.05	5590.35
833.4773	737.6735	6373.25	5533.65
833.6222	739.7596	6312.85	5469.65
833.7672	741.845	6304.85	5466.25
833.9122	743.9298	6295.15	5450.85
834.0571	746.014	6299.25	5458.6
834.2021	748.0974	6310	5467.85
834.347	750.1802	6316.85	5474.75
834.492	752.2624	6273	5430.45
834.637	754.3439	6241.3	5397.6
834.782	756.4247	6212.3	5361.35
834.9269	758.5048	6185.75	5342.8
835.0719	760.5843	6187.8	5344.05
835.2169	762.6631	6194.15	5351.15
835.3619	764.7413	6195.8	5354.15
835.5069	766.8188	6235.8	5390.7
835.6519	768.8956	6266.8	5421.85
835.7969	770.9718	6330.85	5486.6
835.9419	773.0473	6288.7	5445.2
836.0869	775.1221	6264.35	5417.8
836.232	777.1962	6232.9	5388.1
836.377	779.2697	6263.55	5416.15
836.522	781.3426	6322	5456.6
836.667	783.4147	6350	5503.65
836.8121	785.4862	6321.8	5477.1
836.9571	787.557	6275.8	5430.2
837.1021	789.6271	6192.9	5345.7
837.2472	791.6966	6108.4	5261.7
837.3922	793.7654	6009.45	5161.8
837.5373	795.8335	5993	5147
837.6823	797.901	5955.65	5108.25
837.8274	799.9678	5925.9	5075.65
837.9724	802.0339	5905.15	5057.5
838.1175	804.0993	5920.85	5063.65
838.2626	806.1641	5902.1	5052.4
838.4076	808.2282	5875.5	5027.95
838.5527	810.2916	5859.05	5008.55
838.6978	812.3544	5865.6	5017.1
838.8428	814.4164	5814.9	4967.85
838.9879	816.4778	5826.85	4976.05
839.133	818.5385	5824.3	4974.4
839.2781	820.5986	5835.4	4985.75
839.4232	822.658	5881.7	5030.25
839.5682	824.7166	5896.35	5048.7
839.7133	826.7747	5954.8	5105.85
839.8584	828.832	5986.5	5135.4
840.0035	830.8886	5998.95	5145
840.1486	832.9446	6027.85	5174.1
840.2937	834.9999	5988.85	5137.1
840.4388	837.0545	5943.05	5088.1
840.5839	839.1085	5867.1	5014.75
840.729	841.1618	5827.2	4974.45
840.8741	843.2143	5789.6	4937.65
841.0192	845.2662	5746	4895.4
841.1643	847.3175	5707.9	4857.6
841.3095	849.368	5689.8	4837.5
841.4546	851.4179	5697.45	4845.6
841.5997	853.467	5665.45	4810.85
841.7448	855.5155	5654.45	4802.3
841.8899	857.5633	5658.4	4805
842.0351	859.6105	5648	4796.2
842.1802	861.6569	5631.25	4777.85
842.3253	863.7027	5599.65	4743.5
842.4704	865.7478	5591.65	4735.7
842.6156	867.7922	5561.4	4707.8
842.7607	869.8359	5553.35	4696.9
842.9058	871.8789	5561.5	4707.15
843.0509	873.9212	5570.35	4684.85
843.1961	875.9629	5544.1	4688.5
843.3412	878.0039	5528.85	4673.5
843.4863	880.0441	5532	4674.6
843.6315	882.0837	5549.35	4693.35
843.7766	884.1226	5534.25	4677.1
843.9218	886.1609	5550.45	4695.85
844.0669	888.1984	5587.4	4732.75
844.212	890.2352	5625.2	4768.3
844.3572	892.2714	5618.35	4758.45
844.5023	894.3069	5577.7	4720
844.6475	896.3416	5542.95	4686.25
844.7926	898.3757	5506.7	4648.85
844.9377	900.4091	5474.25	4614.6
845.0829	902.4418	5475.35	4613.4
845.228	904.4739	5467.5	4606.85
845.3732	906.5052	5457.85	4599.45
845.5183	908.5358	5466.9	4611.75
845.6635	910.5658	5432.8	4572.4
845.8086	912.595	5404.5	4546.8
845.9538	914.6236	5374.3	4517.75
846.0989	916.6515	5343.4	4485.2
846.2441	918.6786	5316.85	4458.2
846.3892	920.7051	5317.25	4457.5
846.5344	922.7309	5291.15	4431.75
846.6795	924.756	5256.7	4396.8
846.8246	926.7804	5282.05	4421.75
846.9698	928.8041	5236.8	4376.25
847.1149	930.8272	5249.35	4389.05
847.2601	932.8495	5249.45	4387.45
847.4052	934.8711	5237.15	4376.4
847.5504	936.892	5216.15	4354.3
847.6955	938.9123	5224.45	4363.55
847.8407	940.9318	5208.45	4348.15
847.9858	942.9506	5234	4373.05
848.131	944.9688	5205	4343.5
848.2761	946.9862	5181.7	4319.65
848.4213	949.003	5116.45	4254.7
848.5664	951.019	5106.65	4242.8
848.7115	953.0344	5068.75	4205.7
848.8567	955.0491	5057.65	4192.8
849.0018	957.063	5048.5	4187.3
849.147	959.0763	5061.85	4193.05
849.2921	961.0888	5037.2	4172.05
849.4373	963.1007	5028.25	4165.05
849.5824	965.1119	5013.55	4151.7
849.7275	967.1223	5006.8	4143.2
849.8727	969.1321	4979.1	4118
850.0178	971.1412	4958.6	4094.55
850.1629	973.1495	4957	4092.75
850.3081	975.1572	4971.75	4075.6
850.4532	977.1641	4934.8	4071.15
850.5983	979.1704	4912.8	4047.2
850.7435	981.1759	4913.25	4045
850.8886	983.1808	4892.85	4027.25
851.0337	985.1849	4887.5	4011.85
851.1788	987.1884	4867.8	3999.95
851.324	989.1911	4861.95	3993.55
851.4691	991.1932	4853.65	3987.4
851.6142	993.1945	4843.9	3980.55
851.7593	995.1951	4813.25	3948.75
851.9045	997.1951	4809.05	3938.7
852.0496	999.1943	4776.3	3913.4
852.1947	1001.1928	4748.9	3881.8
852.3398	1003.1906	4745.55	3880.6
852.4849	1005.1877	4769.2	3901.5
852.63	1007.1841	4761.4	3893.3
852.7751	1009.1798	4746.3	3881.05
852.9202	1011.1748	4717.5	3852.95
853.0653	1013.1691	4694.35	3825.9
853.2104	1015.1627	4666.65	3802.5
853.3555	1017.1556	4615.2	3748.85
853.5006	1019.1477	4583.35	3715.2
853.6457	1021.1392	4552.65	3687.8
853.7908	1023.1299	4548.75	3684.1
853.9359	1025.12	4531.4	3663.85
854.081	1027.1093	4499.55	3633.9
854.2261	1029.0979	4499.4	3636.4
854.3712	1031.0859	4488.2	3622.2
854.5163	1033.0731	4502.45	3636.05
854.6613	1035.0596	4480.5	3613.2
854.8064	1037.0454	4455.4	3590
854.9515	1039.0304	4433.7	3565.35
855.0965	1041.0148	4412.55	3545.75
855.2416	1042.9985	4397.2	3527.6
855.3867	1044.9814	4367.05	3501.8
855.5317	1046.9636	4342.05	3471.95
855.6768	1048.9452	4344.15	3476.25
855.8219	1050.926	4346.45	3481.45
855.9669	1052.9061	4337.9	3470.85
856.112	1054.8855	4326.65	3457.3
856.257	1056.8642	4321.3	3455.05
856.4021	1058.8421	4317.55	3444.05
856.5471	1060.8194	4287.65	3418.95
856.6921	1062.7959	4276.25	3407.25
856.8372	1064.7717	4257.25	3387.2
856.9822	1066.7469	4253.7	3382.4
857.1272	1068.7213	4235.8	3362.95
857.2723	1070.695	4240.9	3372.35
857.4173	1072.6679	4217.05	3347.5
857.5623	1074.6402	4255.4	3386.75
857.7073	1076.6117	4263.95	3389.05
857.8523	1078.5826	4230.4	3361
857.9973	1080.5527	4211.45	3340.95
858.1423	1082.5221	4160.8	3289.05
858.2873	1084.4908	4136.85	3265.9
858.4323	1086.4587	4106.9	3234.2
858.5773	1088.426	4091.75	3220.1
858.7223	1090.3925	4070.85	3195.5
858.8673	1092.3584	4084.3	3215.35
859.0123	1094.3235	4065.35	3196.25
859.1573	1096.2879	4051.4	3180.1
859.3022	1098.2515	4056.3	3183.75
859.4472	1100.2145	4065.35	3195.5
859.5922	1102.1767	4077.45	3203
859.7371	1104.1382	4108.5	3238
859.8821	1106.099	4124.85	3251
860.027	1108.0591	4136.8	3264.95
860.172	1110.0185	4169.2	3297
860.3169	1111.9771	4171.95	3300.45
860.4619	1113.9351	4192.3	3321.45
860.6068	1115.8923	4226.75	3353.8
860.7517	1117.8488	4244.05	3369.1
860.8967	1119.8045	4182.25	3310.25
861.0416	1121.7596	4132.45	3260.55
861.1865	1123.7139	4026.65	3155.6
861.3314	1125.6675	3987.95	3119.2
861.4763	1127.6204	3985.8	3113.15
861.6212	1129.5726	3968.55	3095.05
861.7661	1131.524	3981.85	3110.3
861.911	1133.4748	3946.4	3073.95
862.0559	1135.4248	3897.3	3025.35
862.2008	1137.3741	3859.8	2987.7
862.3457	1139.3226	3835.5	2961.15
862.4905	1141.2705	3829.55	2956.4
862.6354	1143.2176	3807.85	2928.05
862.7803	1145.164	3802.8	2929.6
862.9251	1147.1097	3791.8	2919.1
863.07	1149.0546	3776.7	2901.55
863.2148	1150.9989	3752.15	2877.4
863.3597	1152.9424	3727.8	2852.15
863.5045	1154.8852	3708.25	2833.05
863.6493	1156.8272	3703.85	2829.7
863.7942	1158.7686	3697.85	2817.05
863.939	1160.7092	3684.95	2810.75
864.0838	1162.6491	3673.95	2799.65
864.2286	1164.5883	3669.9	2796.9
864.3734	1166.5267	3683.35	2807.6
864.5182	1168.4644	3683.9	2809.65
864.663	1170.4014	3696.1	2818.15
864.8078	1172.3377	3716.6	2844.95
864.9526	1174.2732	3730.15	2857.25
865.0974	1176.2081	3772.1	2899.05
865.2421	1178.1421	3863.35	2986.55
865.3869	1180.0755	3943.2	3070.85
865.5317	1182.0082	3976.25	3101.15
865.6764	1183.9401	3952	3077.75
865.8212	1185.8713	3877.5	3004.7
865.9659	1187.8017	3794.5	2922.05
866.1106	1189.7315	3721.6	2849.8
866.2554	1191.6605	3645.1	2772.25
866.4001	1193.5888	3606.75	2733.85
866.5448	1195.5163	3570.95	2696.9
866.6895	1197.4432	3543.3	2666.6
866.8342	1199.3693	3522.35	2648.25
866.9789	1201.2947	3493.35	2615.9
867.1236	1203.2193	3481.45	2606.1
867.2683	1205.1432	3483.15	2606.2
867.413	1207.0664	3444.4	2569.95
867.5576	1208.9889	3442.75	2563.35
867.7023	1210.9106	3427.15	2551.1
867.847	1212.8316	3425.6	2551.9
867.9916	1214.7519	3439.4	2554.7
868.1363	1216.6715	3420.9	2547.45
868.2809	1218.5903	3416.4	2540.8
868.4255	1220.5084	3431.6	2556.6
868.5701	1222.4257	3426.95	2550.85
868.7148	1224.3424	3426.4	2552.75
868.8594	1226.2583	3424.85	2544.4
869.004	1228.1735	3429	2552.35
869.1486	1230.0879	3448.7	2571.55
869.2932	1232.0016	3460.4	2583.55
869.4377	1233.9146	3470.25	2591.7
869.5823	1235.8269	3471.1	2596.05
869.7269	1237.7384	3479.3	2604.2
869.8715	1239.6492	3455.75	2579.4
870.016	1241.5592	3483.55	2605.7
870.1606	1243.4686	3492.1	2617.5
870.3051	1245.3772	3533.65	2658.45
870.4496	1247.285	3583.45	2705.25
870.5941	1249.1922	3625.8	2748.7
870.7387	1251.0986	3669.85	2794.5
870.8832	1253.0042	3710.9	2834.05
871.0277	1254.9092	3759.15	2880.45
871.1722	1256.8134	3821.4	2944.3
871.3167	1258.7169	3867.5	2989.6
871.4611	1260.6196	3883.2	3008.1
871.6056	1262.5216	3893	3013.8
871.7501	1264.4229	3902.55	3028.05
871.8945	1266.3234	3859.85	2982.95
872.039	1268.2232	3828.95	2948.4
872.1834	1270.1223	3792.05	2913.15
872.3278	1272.0207	3742.65	2865.65
872.4723	1273.9183	3729.65	2846.55
872.6167	1275.8151	3718.25	2842.65
872.7611	1277.7113	3751.9	2873.3
872.9055	1279.6067	3779.5	2902.8
873.0499	1281.5014	3885.65	3006.4
873.1943	1283.3953	3995.4	3116.5
873.3386	1285.2885	4126.7	3249.8
873.483	1287.181	4218.45	3339.75
873.6274	1289.0727	4267.55	3389.75
873.7717	1290.9637	4215.35	3336.4
873.9161	1292.854	4147.65	3270.5
874.0604	1294.7435	4062	3184.05
874.2047	1296.6323	3984.45	3106.05
874.349	1298.5204	3922	3041.7
874.4933	1300.4077	3866.5	2987
874.6376	1302.2943	3810.2	2933.85
874.7819	1304.1802	3787.6	2911
874.9262	1306.0653	3752.25	2871.55
875.0705	1307.9497	3719.2	2840.4
875.2147	1309.8333	3709.5	2831.65
875.359	1311.7162	3680.8	2802.75
875.5032	1313.5984	3654.05	2774.5
875.6475	1315.4798	3639.95	2750.05
875.7917	1317.3605	3624.2	2739.75
875.9359	1319.2405	3627.05	2746.25
876.0801	1321.1197	3588.45	2707.85
876.2243	1322.9982	3567.2	2683.5
876.3685	1324.876	3528.3	2649.8
876.5127	1326.753	3456.55	2577.65
876.6569	1328.6293	3388.05	2507.4
876.801	1330.5048	3330.85	2450.35
876.9452	1332.3796	3276.55	2399.1
877.0893	1334.2537	3244.65	2343.65
877.2335	1336.127	3196.2	2316.95
877.3776	1337.9996	3169.2	2290.2
877.5217	1339.8714	3145.05	2264.8
877.6658	1341.7426	3166.9	2242.9
877.8099	1343.6129	3118.75	2240.75
877.954	1345.4826	3094.85	2216.4
878.0981	1347.3515	3085.5	2206.15
878.2422	1349.2196	3063.15	2182.1
878.3862	1351.087	3060.15	2179.75
878.5303	1352.9537	3043.9	2164
878.6743	1354.8197	3039.95	2160.15
878.8184	1356.6849	3052.55	2174.6
878.9624	1358.5493	3067.95	2188.65
879.1064	1360.4131	3080.1	2199.3
879.2504	1362.276	3085.55	2207.9
879.3944	1364.1383	3101.25	2223.2
879.5384	1365.9998	3109.9	2225.75
879.6823	1367.8606	3105.5	2226.5
879.8263	1369.7206	3088.95	2209.25
879.9702	1371.5799	3084.2	2203.5
880.1142	1373.4384	3076.85	2198.1
880.2581	1375.2962	3062.7	2180.75
880.402	1377.1533	3016.1	2136.3
880.5459	1379.0096	2975.7	2094.35
880.6898	1380.8652	2949.25	2070.65
880.8337	1382.7201	2911.4	2032.05
880.9776	1384.5742	2885.65	2006.75
881.1215	1386.4275	2863.6	1983
881.2653	1388.2802	2842.35	1963.2
881.4092	1390.132	2820.6	1944.15
881.553	1391.9832	2825	1943.25
881.6968	1393.8336	2803.4	1923.5
881.8406	1395.6832	2785.85	1902.4
881.9844	1397.5322	2773.45	1893.55
882.1282	1399.3803	2759.1	1874.65
882.272	1401.2278	2752.65	1871.4
882.4158	1403.0745	2731.2	1851.45
882.5595	1404.9204	2728.2	1849.15
882.7033	1406.7656	2709	1830.7
882.847	1408.6101	2709.9	1830.1
882.9908	1410.4538	2684	1804.4
883.1345	1412.2968	2704.9	1824.8
883.2782	1414.139	2686.35	1804.95
883.4219	1415.9805	2695.85	1817
883.5656	1417.8213	2693.35	1792.5
883.7092	1419.6613	2679.85	1799.7
883.8529	1421.5006	2697.55	1817.35
883.9965	1423.3391	2712.45	1829.2
884.1402	1425.1769	2744.45	1861.6
884.2838	1427.0139	2794.1	1914
884.4274	1428.8502	2842	1958.8
884.571	1430.6858	2881.75	2001.5
884.7146	1432.5206	2893.8	2013.7
884.8582	1434.3547	2909.4	2028.6
885.0018	1436.188	2873.35	1994.35
885.1453	1438.0206	2862.8	1982.85
885.2889	1439.8524	2843.85	1964.05
885.4324	1441.6835	2851.5	1969.9
885.5759	1443.5139	2849.3	1964.55
885.7194	1445.3435	2832.75	1952.15
885.8629	1447.1724	2844.65	1965.85
886.0064	1449.0005	2841.95	1961.05
886.1499	1450.8279	2819.55	1938.2
886.2933	1452.6545	2815.95	1936.8
886.4368	1454.4804	2807.9	1928
886.5802	1456.3056	2796.1	1908.35
886.7237	1458.13	2769.65	1889.35
886.8671	1459.9536	2756.3	1875.55
887.0105	1461.7766	2745.95	1866.15
887.1539	1463.5987	2706.65	1823.3
887.2972	1465.4202	2682.15	1799.2
887.4406	1467.2409	2648.45	1766.45
887.584	1469.0608	2619.25	1738.15
887.7273	1470.88	2597.85	1716.25
887.8706	1472.6984	2565.3	1684.35
888.0139	1474.5161	2568.5	1687.35
888.1572	1476.3331	2531.55	1651.2
888.3005	1478.1493	2525.6	1645.1
888.4438	1479.9648	2532.95	1653.2
888.5871	1481.7795	2507.75	1627.95
888.7303	1483.5935	2500.25	1621.15
888.8736	1485.4067	2501.7	1621.05
889.0168	1487.2192	2500.15	1621.3
889.16	1489.031	2504.2	1620.65
889.3032	1490.842	2489.45	1607.35
889.4464	1492.6522	2490.1	1612.05
889.5896	1494.4618	2468.55	1585.6
889.7327	1496.2705	2471.7	1592.45
889.8759	1498.0785	2459.95	1577.65
890.019	1499.8858	2447.75	1566.6
890.1622	1501.6924	2452	1574.7
890.3053	1503.4981	2439.25	1557.45
890.4484	1505.3032	2448.15	1565.15
890.5914	1507.1075	2431.9	1550.35
890.7345	1508.911	2412.8	1532.3
890.8776	1510.7138	2402.4	1520.6
891.0206	1512.5159	2395.9	1513.8
891.1637	1514.3172	2384.1	1503.7
891.3067	1516.1178	2375.3	1493.9
891.4497	1517.9176	2386.95	1503.65
891.5927	1519.7166	2357.25	1478.2
891.7357	1521.515	2364.45	1478.7
891.8786	1523.3126	2328.1	1446.4
892.0216	1525.1094	2331.95	1448.6
892.1645	1526.9055	2328.85	1448.6
892.3074	1528.7008	2320.9	1439.65
892.4503	1530.4954	2302.4	1420.5
892.5932	1532.2893	2303.7	1422.55
892.7361	1534.0824	2286.7	1400.35
892.879	1535.8747	2281.9	1401.65
893.0218	1537.6663	2270.75	1390.85
893.1647	1539.4572	2264.7	1381
893.3075	1541.2473	2263.55	1381.9
893.4503	1543.0367	2269.95	1389.1
893.5931	1544.8253	2248.3	1363.55
893.7359	1546.6132	2269.6	1387.95
893.8787	1548.4003	2256.2	1366
894.0214	1550.1867	2261.45	1371.75
894.1642	1551.9723	2256.45	1369
894.3069	1553.7572	2258.75	1376.85
894.4496	1555.5414	2259.75	1379.35
894.5923	1557.3247	2281.6	1399.95
894.735	1559.1074	2291.7	1411
894.8777	1560.8893	2315.7	1437.85
895.0204	1562.6705	2337.65	1455.25
895.163	1564.4509	2350.1	1472.3
895.3056	1566.2305	2340.6	1461.1
895.4482	1568.0094	2351.05	1468.6
895.5908	1569.7876	2352.65	1470.6
895.7334	1571.565	2348.75	1467.45
895.876	1573.3417	2337.85	1457.55
896.0186	1575.1176	2337.8	1458.65
896.1611	1576.8928	2342.55	1462
896.3036	1578.6672	2346.5	1466.05
896.4461	1580.4409	2356.7	1475.5
896.5886	1582.2138	2380.8	1496.85
896.7311	1583.986	2407.45	1525.4
896.8736	1585.7575	2428.2	1548.35
897.0161	1587.5282	2442.95	1565.25
897.1585	1589.2981	2472.65	1591
897.3009	1591.0673	2467.4	1588.2
897.4433	1592.8358	2466.5	1586.5
897.5857	1594.6035	2472.75	1588.4
897.7281	1596.3704	2458.1	1577.2
897.8705	1598.1366	2431.85	1551.6
898.0128	1599.9021	2412.7	1531.15
898.1551	1601.6668	2394.3	1512.25
898.2975	1603.4308	2379.85	1497.85
898.4398	1605.194	2364.7	1478.95
898.5821	1606.9564	2388	1509.45
898.7243	1608.7182	2414.35	1529.35
898.8666	1610.4791	2474.35	1593.6
899.0088	1612.2394	2533.35	1652.2
899.1511	1613.9988	2588.35	1706.9
899.2933	1615.7576	2648	1767.1
899.4355	1617.5156	2693	1806.75
899.5776	1619.2728	2666.45	1786.05
899.7198	1621.0293	2595.4	1713.5
899.862	1622.785	2509.4	1628.3
900.0041	1624.54	2424.55	1541.5
900.1462	1626.2942	2339.6	1457.1
900.2883	1628.0477	2256.1	1373.05
900.4304	1629.8005	2200.25	1312.4
900.5725	1631.5525	2146.3	1265.55
900.7145	1633.3037	2102.3	1220.15
900.8566	1635.0542	2074.9	1193.65
900.9986	1636.804	2047.35	1167.25
901.1406	1638.553	2073.3	1096.55
901.2826	1640.3013	2000.5	1120.35
901.4245	1642.0488	1981.45	1098.95
901.5665	1643.7955	1959.85	1082.05
901.7085	1645.5416	1954.2	1071.05
901.8504	1647.2868	1943.7	1064.1
901.9923	1649.0313	1931.35	1051.05
902.1342	1650.7751	1932.95	1050.1
902.2761	1652.5181	1923.8	1043.5
902.4179	1654.2604	1919	1036.65
902.5598	1656.0019	1911.15	1029.7
902.7016	1657.7427	1912.25	1030.7
902.8434	1659.4828	1926.35	1044.7
902.9852	1661.222	1945.6	1065.25
903.127	1662.9606	1966.45	1086.6
903.2687	1664.6984	1983.1	1102.55
903.4105	1666.4354	1991.2	1109.95
903.5522	1668.1717	1977.5	1096.65
903.6939	1669.9072	1939.3	1059.35
903.8356	1671.642	1909.3	1023.85
903.9773	1673.3761	1883.8	1003.8
904.119	1675.1094	1856.2	976.35
904.2606	1676.8419	1834.15	952.7
904.4022	1678.5737	1805.2	925.45
904.5439	1680.3048	1804.1	923
904.6855	1682.0351	1782.3	902.55
904.827	1683.7646	1784.1	900.95
904.9686	1685.4934	1775.25	894
905.1101	1687.2215	1764.5	883.15
905.2517	1688.9488	1754.15	874.7
905.3932	1690.6754	1743.2	863.2
905.5347	1692.4012	1760	877.55
905.6761	1694.1263	1735.4	854.3
905.8176	1695.8506	1739.4	856.4
905.9591	1697.5742	1737	856.45
906.1005	1699.297	1724.45	842.4
906.2419	1701.0191	1721.1	841.9
906.3833	1702.7404	1714.3	831.7
906.5246	1704.461	1706.35	822.1
906.666	1706.1808	1701.15	818.05
906.8073	1707.8999	1702	818.05
906.9487	1709.6182	1697	815.9
907.09	1711.3358	1688.8	807.1
907.2313	1713.0527	1691.75	812.9
907.3725	1714.7688	1688.25	801.6
907.5138	1716.4841	1675.55	793.55
907.655	1718.1987	1687.35	801.65
907.7962	1719.9126	1678.45	799.4
907.9374	1721.6257	1675.8	789.15
908.0786	1723.338	1667.05	785.35
908.2198	1725.0496	1666.3	781.8
908.3609	1726.7605	1663.95	780.65
908.502	1728.4706	1664.4	781.55
908.6431	1730.18	1653.85	768.4
908.7842	1731.8886	1663.6	783.55
908.9253	1733.5964	1662.1	773.65
909.0664	1735.3036	1661.35	776.75
909.2074	1737.0099	1649.9	768.35
909.3484	1738.7156	1645.7	765.1
909.4894	1740.4204	1651.25	766.95
909.6304	1742.1246	1643.35	760.65
909.7714	1743.8279	1648.9	766.55
909.9123	1745.5306	1637.6	755.8
910.0532	1747.2325	1636.7	755.05
910.1941	1748.9336	1631.95	751.1
910.335	1750.634	1634.25	750.25
910.4759	1752.3336	1639.95	757.1
910.6168	1754.0325	1630.7	752.95
910.7576	1755.7307	1633.1	751.2
910.8984	1757.4281	1631.75	751.9
911.0392	1759.1247	1633.2	739.6
911.18	1760.8206	1633.9	749
911.3208	1762.5158	1633.2	747.8
911.4615	1764.2102	1621.2	739.25
911.6022	1765.9039	1620	738.6
911.7429	1767.5968	1624.6	743.65
911.8836	1769.289	1617.05	735.5
912.0243	1770.9804	1614.25	731
912.1649	1772.6711	1620.4	738.25
912.3056	1774.361	1613.45	731.2
912.4462	1776.0502	1613.8	733.4
912.5868	1777.7386	1613.15	727.4
912.7274	1779.4263	1603.85	722.55
912.8679	1781.1132	1601.55	718.2
913.0084	1782.7994	1596.1	713.9
913.149	1784.4849	1599.8	718.75
913.2895	1786.1696	1603.35	713.3
913.4299	1787.8535	1590.8	709.9
913.5704	1789.5367	1592.75	712.15
913.7108	1791.2192	1587.95	706.25
913.8513	1792.9009	1612.55	704.4
913.9917	1794.5818	1594.3	710.85
914.132	1796.2621	1580.6	701.15
914.2724	1797.9415	1579.15	695.65
914.4128	1799.6202	1584.05	701.7
914.5531	1801.2982	1577.55	696.45
914.6934	1802.9755	1577.65	692.45
914.8337	1804.6519	1577.3	695.85
914.9739	1806.3277	1565.05	683.65
915.1142	1808.0027	1560.5	679.3
915.2544	1809.6769	1563.45	682.15
915.3946	1811.3504	1567.95	683.75
915.5348	1813.0231	1554.25	670.6
915.675	1814.6951	1560.7	678.95
915.8151	1816.3664	1560	676.75
915.9553	1818.0369	1552.05	672
916.0954	1819.7067	1544.3	663.1
916.2355	1821.3757	1555.75	672.3
916.3755	1823.044	1553.85	673.55
916.5156	1824.7115	1536.95	653.55
916.6556	1826.3783	1541.3	662.4
916.7956	1828.0443	1543.95	660.65
916.9356	1829.7096	1538.5	656
917.0756	1831.3741	1540.8	655.75
917.2155	1833.0379	1539	657.1
917.3555	1834.701	1529.5	645.7
917.4954	1836.3633	1536.8	652.05
917.6353	1838.0248	1529.2	644.55
917.7751	1839.6856	1530.45	647.95
917.915	1841.3457	1529.2	649.05
918.0548	1843.005	1523.4	642.2
918.1946	1844.6636	1520.45	641.25
918.3344	1846.3214	1522.3	638.15
918.4742	1847.9785	1527.25	647.4
918.6139	1849.6349	1522.9	638.55
918.7537	1851.2904	1528.75	637.35
918.8934	1852.9453	1523	640.75
919.0331	1854.5994	1511.55	627.55
919.1727	1856.2528	1521.3	634.35
919.3124	1857.9054	1511.8	629.65
919.452	1859.5572	1507.75	627.3
919.5916	1861.2083	1507.65	625.45
919.7312	1862.8587	1504.75	621.1
919.8708	1864.5084	1506.15	624.65
920.0103	1866.1572	1498.85	618.55
920.1498	1867.8054	1505.5	621.2
920.2893	1869.4528	1505.05	622.35
920.4288	1871.0994	1491.7	609.15
920.5683	1872.7453	1495.25	612.6
920.7077	1874.3905	1497.35	607.4
920.8471	1876.0349	1489.55	608.15
920.9865	1877.6786	1495.35	612.8
921.1259	1879.3215	1485.15	602.85
921.2653	1880.9637	1490.05	607.85
921.4046	1882.6051	1491.85	609.7
921.5439	1884.2458	1485.8	603
921.6832	1885.8858	1486.15	604.5
921.8225	1887.525	1480.75	597.15
921.9617	1889.1634	1483	600.8
922.101	1890.8011	1478.1	595.65
922.2402	1892.4381	1479.8	596.35
922.3794	1894.0743	1475.4	594.45
922.5185	1895.7098	1474.25	592.55
922.6577	1897.3446	1469.55	587.8
922.7968	1898.9786	1476.35	591.1
922.9359	1900.6118	1474.8	593.45
923.075	1902.2443	1462.45	580.85
923.214	1903.8761	1460.1	578.2
923.3531	1905.5071	1458.3	575.35
923.4921	1907.1374	1459.85	577.85
923.6311	1908.7669	1454.95	571.05
923.77	1910.3957	1450.1	569.6
923.909	1912.0237	1454.1	571.75
924.0479	1913.651	1457.35	574.75
924.1868	1915.2776	1454.9	574.45
924.3257	1916.9034	1453.9	572.85
924.4646	1918.5285	1447.95	568.4
924.6034	1920.1528	1449.35	565.05
924.7422	1921.7764	1445.15	563.65
924.881	1923.3992	1448.8	566.6
925.0198	1925.0213	1436.75	554.2
925.1586	1926.6427	1432.6	551.6
925.2973	1928.2633	1503	547.75
925.436	1929.8832	1430.95	547.55
925.5747	1931.5023	1428.3	546.6
925.7134	1933.1207	1429.45	545.45
925.852	1934.7383	1428.4	547
925.9906	1936.3552	1424.9	542.45
926.1292	1937.9714	1425.25	542.75
926.2678	1939.5868	1424.3	541.9
926.4064	1941.2015	1416.45	533.35
926.5449	1942.8154	1422.2	539.95
926.6834	1944.4286	1416.55	535.4
926.8219	1946.041	1435.05	529.4
926.9604	1947.6528	1414.05	526.15
927.0988	1949.2637	1411.25	530.85
927.2372	1950.8739	1411.05	527.65
927.3756	1952.4834	1410.4	528.55
927.514	1954.0921	1410.65	527
927.6523	1955.7001	1410.75	526.45
927.7907	1957.3074	1405.3	522.35
927.929	1958.9139	1405.65	524.2
928.0673	1960.5197	1401.15	516.05
928.2055	1962.1247	1401.8	519.5
928.3438	1963.729	1396.4	515.85
928.482	1965.3325	1419.35	513.4
928.6202	1966.9353	1397.1	517.3
928.7584	1968.5374	1391.65	508.85
928.8965	1970.1387	1393	510.05
929.0346	1971.7393	1395.25	514.85
929.1727	1973.3392	1394.95	512.35
929.3108	1974.9383	1387.25	506
929.4489	1976.5366	1387.95	503.9
929.5869	1978.1342	1383.9	500.25
929.7249	1979.7311	1387.85	506
929.8629	1981.3273	1385.1	501.85
930.0009	1982.9227	1382.4	497.75
930.1388	1984.5173	1375.8	496.35
930.2767	1986.1112	1378.2	496.05
930.4146	1987.7044	1381.95	501.3
930.5525	1989.2968	1378.65	496.05
930.6904	1990.8885	1379.75	493.8
930.8282	1992.4795	1374.8	492.2
930.966	1994.0697	1371.7	489.45
931.1038	1995.6592	1374.15	493
931.2415	1997.2479	1365.5	482.8
931.3793	1998.8359	1373.3	490.1
931.517	2000.4232	1367.2	487.25
931.6547	2002.0097	1360.4	479.4
931.7923	2003.5955	1359.4	478.6
931.93	2005.1805	1365.15	480.8
932.0676	2006.7648	1359.8	478.25
932.2052	2008.3484	1363.35	482.4
932.3427	2009.9312	1366.55	481.9
932.4803	2011.5133	1358.9	478.05
932.6178	2013.0946	1351.5	469.05
932.7553	2014.6752	1358.15	477.35
932.8928	2016.2551	1359.25	475.3
933.0302	2017.8342	1356.45	472.85
933.1676	2019.4126	1351.9	470.85
933.305	2020.9902	1357.4	475.25
933.4424	2022.5672	1355.45	472.95
933.5798	2024.1433	1359.8	470.7
933.7171	2025.7188	1350.7	469.45
933.8544	2027.2935	1352.45	469.6
933.9917	2028.8674	1348.95	467.2
934.129	2030.4406	1344.65	464.55
934.2662	2032.0131	1351.05	470
934.4034	2033.5849	1345.7	460.8
934.5406	2035.1559	1342.65	460.9
934.6778	2036.7261	1346.8	463.4
934.8149	2038.2957	1338.95	457.45
934.952	2039.8645	1338.75	457.8
935.0891	2041.4325	1346.15	459.2
935.2262	2042.9998	1338.45	457.75
935.3632	2044.5664	1343.75	460.8
935.5002	2046.1323	1341.2	461.05
935.6372	2047.6974	1343.2	461.65
935.7742	2049.2617	1340.1	456.95
935.9111	2050.8254	1344.35	457.8
936.048	2052.3883	1338.1	453.9
936.1849	2053.9504	1335.15	451
936.3218	2055.5118	1339.7	457.5
936.4586	2057.0725	1344.3	457.1
936.5955	2058.6325	1339.55	456.25
936.7323	2060.1917	1331.95	451.7
936.869	2061.7502	1340	455.45
937.0058	2063.3079	1328.35	447.6
937.1425	2064.8649	1337.6	450.5
937.2792	2066.4212	1339.4	459.1
937.4159	2067.9767	1333.1	450.7
937.5525	2069.5315	1325.1	441.7
937.6891	2071.0856	1325.3	445.2
937.8257	2072.6389	1325.15	440.1
937.9623	2074.1915	1320.75	441.55
938.0989	2075.7433	1327.15	443.35
938.2354	2077.2945	1325.85	443.6
938.3719	2078.8448	1322.9	442.9
938.5084	2080.3945	1319.8	436.65
938.6448	2081.9434	1322.45	441.7
938.7812	2083.4916	1321.4	439.15
938.9176	2085.039	1317.9	435
939.054	2086.5857	1328	444.95
939.1903	2088.1317	1318.05	435.45
939.3267	2089.677	1320.8	438.7
939.463	2091.2215	1319.9	439
939.5992	2092.7652	1312.55	429.6
939.7355	2094.3083	1319.25	434.9
939.8717	2095.8506	1315.95	433.85
940.0079	2097.3921	1315.05	434.9
940.1441	2098.933	1317.95	436.55
940.2802	2100.4731	1316.6	434.35
940.4163	2102.0124	1324.15	436.45
940.5524	2103.5511	1311.9	429.35
940.6885	2105.089	1313.7	433.2
940.8245	2106.6261	1309.35	427.4
940.9606	2108.1626	1309.3	425.25
941.0965	2109.6983	1338	429.25
941.2325	2111.2332	1311.8	429.55
941.3684	2112.7675	1312.6	430.25
941.5044	2114.301	1309.2	425.75
941.6403	2115.8337	1303.9	421.9
941.7761	2117.3657	1304.75	424
941.912	2118.897	1308.35	423.4
942.0478	2120.4276	1312.8	425.1
942.1835	2121.9575	1301.5	418.15
942.3193	2123.4866	1328.65	430.75
942.455	2125.0149	1309.35	424.45
942.5907	2126.5426	1296.9	413.45
942.7264	2128.0695	1311.3	424.9
942.8621	2129.5956	1304.5	424.8
942.9977	2131.1211	1305.7	418.95
943.1333	2132.6458	1295.7	415.4
943.2689	2134.1698	1303.6	422.35
943.4044	2135.693	1309.4	424.5
943.54	2137.2155	1304.25	420.1
943.6755	2138.7373	1302.45	418.25
943.8109	2140.2584	1292.15	409.25
943.9464	2141.7787	1302.4	416.25
944.0818	2143.2983	1291.85	412.45
944.2172	2144.8171	1293	412.65
944.3526	2146.3353	1293.65	407.5
944.4879	2147.8527	1293.7	413.35
944.6232	2149.3693	1294.05	412.55
944.7585	2150.8853	1291.2	410
944.8938	2152.4005	1287.75	405
945.029	2153.9149	1293.9	410.45
945.1642	2155.4287	1394.2	406.6
945.2994	2156.9417	1293.95	410.35
945.4346	2158.454	1285.4	399.25
945.5697	2159.9655	1280.85	399.4
945.7048	2161.4764	1290.9	406.5
945.8399	2162.9865	1286.05	404.2
945.9749	2164.4958	1283.7	400
946.1099	2166.0045	1291.45	406.65
946.2449	2167.5124	1281.8	402.75
946.3799	2169.0195	1283.8	403.7
946.5148	2170.526	1280.25	397.45
946.6498	2172.0317	1284.65	402.3
946.7846	2173.5367	1281.6	398.85
946.9195	2175.0409	1281.9	399.25
947.0543	2176.5445	1271.85	389.85
947.1891	2178.0473	1276.2	393.9
947.3239	2179.5494	1274.05	387.85
947.4587	2181.0507	1273	389.95
947.5934	2182.5513	1276.2	393.8
947.7281	2184.0512	1268.8	386.25
947.8628	2185.5504	1274.55	392.5
947.9974	2187.0488	1270.15	389.7
948.132	2188.5465	1274.6	392.5
948.2666	2190.0435	1263.65	381.15
948.4012	2191.5397	1266.3	383.8
948.5357	2193.0353	1264.05	381.8
948.6702	2194.5301	1267.4	384.1
948.8047	2196.0241	1261.75	378.45
948.9392	2197.5175	1267.05	385.25
949.0736	2199.0101	1269.7	384.7
949.208	2200.502	1252.55	371.4
949.3424	2201.9931	1262.35	381
949.4767	2203.4835	1259.75	375.95
949.611	2204.9733	1268.6	368.85
949.7453	2206.4622	1254.2	371.1
949.8796	2207.9505	1256.9	370.95
950.0138	2209.438	1249.85	368.85
950.148	2210.9248	1253.65	368.5
950.2822	2212.4109	1252.75	371.3
950.4164	2213.8962	1254	371.2
950.5505	2215.3809	1250.95	366.1
950.6846	2216.8648	1250.85	368.25
950.8186	2218.3479	1254.05	366.85
950.9527	2219.8304	1243	357.35
951.0867	2221.3121	1250.9	366.3
951.2207	2222.7931	1244	362.85
951.3546	2224.2733	1240.45	359.7
951.4886	2225.7529	1241.35	357.15
951.6225	2227.2317	1245	361.6
951.7563	2228.7098	1236.2	356.1
951.8902	2230.1872	1239.75	355.7
952.024	2231.6638	1233.7	355.8
952.1578	2233.1397	1237.6	351.95
952.2916	2234.6149	1238.05	356.45
952.4253	2236.0894	1236.15	353.65
952.559	2237.5632	1226.5	342.7
952.6927	2239.0362	1233.65	351.2
952.8263	2240.5085	1230.7	348.1
952.9599	2241.9801	1229.9	345.9
953.0935	2243.4509	1230.6	352
953.2271	2244.921	1228.35	345.85
953.3606	2246.3904	1228.7	344.4
953.4941	2247.8591	1221.9	340.85
953.6276	2249.3271	1231.55	348.85
953.7611	2250.7943	1217.4	336.35
953.8945	2252.2608	1219.35	336.55
954.0279	2253.7266	1217.35	336.65
954.1612	2255.1917	1217.55	335.65
954.2946	2256.656	1220.7	336.45
954.4279	2258.1197	1215.55	335.3
954.5612	2259.5826	1213.2	329.15
954.6944	2261.0447	1216.85	332.5
954.8276	2262.5062	1219.65	335.8
954.9608	2263.9669	1213.35	327.95
955.094	2265.4269	1218.3	337.85
955.2271	2266.8862	1209.6	326.95
955.3602	2268.3448	1208.65	326.35
955.4933	2269.8026	1217.4	334.05
955.6264	2271.2598	1204.95	324.85
955.7594	2272.7162	1208.65	326.8
955.8924	2274.1719	1208.65	326.55
956.0253	2275.6268	1204.4	324
956.1583	2277.0811	1209	327.35
956.2912	2278.5346	1199.55	317.85
956.4241	2279.9874	1208.9	327.45
956.5569	2281.4395	1200.8	319.65
956.6897	2282.8908	1212.25	324.4
956.8225	2284.3414	1201.05	319.35
956.9553	2285.7914	1197	315.3
957.088	2287.2406	1199.8	315.2
957.2207	2288.689	1201.8	319.5
957.3534	2290.1368	1196	312.95
957.486	2291.5838	1201.8	318.35
957.6186	2293.0302	1202.65	316.95
957.7512	2294.4758	1196.6	314.85
957.8838	2295.9206	1193.55	309.4
958.0163	2297.3648	1192.3	311.6
958.1488	2298.8082	1199.45	315.9
958.2813	2300.251	1195.15	315.1
958.4137	2301.693	1194.15	307.9
958.5461	2303.1343	1191.7	309.1
958.6785	2304.5748	1185.45	302.9
958.8108	2306.0147	1193.5	310.2
958.9432	2307.4538	1185.65	299.2
959.0754	2308.8922	1182.05	300.15
959.2077	2310.3299	1183.85	300.8
959.3399	2311.7669	1185.7	302.5
959.4721	2313.2031	1183.55	302.25
959.6043	2314.6387	1183.05	299.6
959.7365	2316.0735	1183.45	301.05
959.8686	2317.5076	1179.8	296.55
960.0006	2318.941	1177.65	294.35
960.1327	2320.3737	1181.95	298.9
960.2647	2321.8056	1186.85	302.85
960.3967	2323.2369	1182.15	298.9
960.5287	2324.6674	1176.35	290.6
960.6606	2326.0972	1179.85	295.7
960.7925	2327.5263	1180.85	301.9
960.9244	2328.9547	1184.2	302.95
961.0562	2330.3823	1178.25	294.55
961.1881	2331.8092	1182.8	299.8
961.3198	2333.2355	1173.15	289.25
961.4516	2334.661	1176.35	295.75
961.5833	2336.0858	1172.25	287.5
961.715	2337.5098	1167.05	284.65
961.8467	2338.9332	1166.45	282
961.9783	2340.3558	1168.85	281.35
962.1099	2341.7778	1164.55	281.45
962.2415	2343.199	1165.7	282.4
962.373	2344.6195	1160.2	277.05
962.5045	2346.0393	1164.9	283.45
962.636	2347.4583	1164.95	279.95
962.7675	2348.8767	1163.4	279.45
962.8989	2350.2943	1162.6	279.6
963.0303	2351.7113	1161.3	277.55
963.1617	2353.1275	1161	276.9
963.293	2354.543	1180.45	274.05
963.4243	2355.9578	1156.95	272.8
963.5556	2357.3718	1153.8	272.35
963.6868	2358.7852	1157.65	272.2
963.818	2360.1978	1148.55	266.05
963.9492	2361.6098	1151.55	269.6
964.0803	2363.021	1159.95	273.5
964.2114	2364.4315	1153.2	270.6
964.3425	2365.8413	1155.8	267.9
964.4736	2367.2504	1148.1	267.25
964.6046	2368.6587	1149.95	267.3
964.7356	2370.0664	1150.9	266.7
964.8666	2371.4733	1148.9	266.3
964.9975	2372.8795	1145.95	263.95
965.1284	2374.285	1147.05	263.05
965.2593	2375.6899	1144.45	264.15
965.3901	2377.0939	1142.25	260.6
965.5209	2378.4973	1137.8	255.75
965.6517	2379.9	1138.55	254.65
965.7825	2381.3019	1137.45	256
965.9132	2382.7032	1142.45	260.25
966.0439	2384.1037	1132.35	250.85
966.1745	2385.5035	1141.6	257.5
966.3051	2386.9027	1137.85	254.9
966.4357	2388.3011	1138.75	252.05
966.5663	2389.6987	1139.8	256.3
966.6968	2391.0957	1135.15	252.7
966.8273	2392.492	1134.4	251.75
966.9578	2393.8876	1133	248.55
967.0882	2395.2824	1133.45	251.5
967.2186	2396.6765	1124.25	242.6
967.349	2398.07	1127.45	245.9
967.4793	2399.4627	1124.65	240
967.6097	2400.8547	1126.35	243.2
967.7399	2402.246	1134.35	245.65
967.8702	2403.6366	1121.55	237.15
968.0004	2405.0265	1121	239.55
968.1306	2406.4156	1124.8	237.95
968.2607	2407.8041	1125.35	239.2
968.3909	2409.1918	1120.95	234.65
968.521	2410.5789	1122.65	239.2
968.651	2411.9652	1122.55	236.65
968.781	2413.3508	1113.7	231.45
968.911	2414.7358	1114.9	231.65
969.041	2416.12	1115.2	233.5
969.1709	2417.5035	1112.45	231.45
969.3008	2418.8863	1120	235.55
969.4307	2420.2684	1114.05	232.65
969.5606	2421.6497	1114.25	230.15
969.6904	2423.0304	1111.85	230.75
969.8201	2424.4104	1108.2	225.65
969.9499	2425.7896	1113.45	227.2
970.0796	2427.1682	1105.65	224.45
970.2093	2428.546	1111.3	225.5
970.3389	2429.9232	1104.9	220.65
970.4685	2431.2996	1105.05	223.75
970.5981	2432.6753	1107	223.35
970.7277	2434.0503	1102.55	218.4
970.8572	2435.4246	1107.85	225.75
970.9867	2436.7982	1109.1	224.65
971.1161	2438.1711	1105.7	224.25
971.2456	2439.5433	1104.1	219.9
971.375	2440.9148	1106.05	218.2
971.5043	2442.2856	1102.85	219.7
971.6336	2443.6557	1102.25	218.7
971.7629	2445.025	1099.25	216.15
971.8922	2446.3937	1097.35	214.85
972.0214	2447.7617	1096.55	215.7
972.1506	2449.1289	1100.35	219.1
972.2798	2450.4955	1100.55	212.45
972.4089	2451.8613	1096.05	216.75
972.538	2453.2265	1095.25	212.9
972.6671	2454.5909	1091.45	208.95
972.7961	2455.9546	1091.45	209.65
972.9251	2457.3177	1091.05	210.1
973.0541	2458.68	1095.9	212.05
973.1831	2460.0416	1091.75	208.45
973.312	2461.4025	1094.35	210.55
973.4408	2462.7627	1100.75	207.8
973.5697	2464.1222	1087.3	205.35
973.6985	2465.4811	1091.4	209.4
973.8273	2466.8392	1089.3	206.95
973.956	2468.1966	1084.4	198.65
974.0847	2469.5533	1086.6	201.05
974.2134	2470.9093	1086.35	201.4
974.3421	2472.2645	1084.75	202.65
974.4707	2473.6191	1087.15	204.15
974.5993	2474.973	1084.8	201.55
974.7278	2476.3262	1085.7	200.1
974.8563	2477.6787	1080.55	198.2
974.9848	2479.0305	1084.55	203.95
975.1132	2480.3816	1083.45	196.3
975.2417	2481.7319	1079.3	198.05
975.37	2483.0816	1082.1	197.65
975.4984	2484.4306	1082.65	199.4
975.6267	2485.7789	1076.05	194.55
975.755	2487.1264	1076.15	191.75
975.8833	2488.4733	1077.9	196.25
976.0115	2489.8195	1096.95	198.25
976.1397	2491.165	1077.75	191.3
976.2678	2492.5097	1081.6	197.55
976.3959	2493.8538	1076.6	192.5
976.524	2495.1972	1073.7	191.35
976.6521	2496.5398	1075.45	193.7
976.7801	2497.8818	1076.25	191.3
976.9081	2499.2231	1073.3	191.3
977.036	2500.5637	1072.15	186.8
977.164	2501.9035	1071.65	188.55
977.2918	2503.2427	1075.7	189.1
977.4197	2504.5812	1069.75	186.9
977.5475	2505.919	1067.35	183.2
977.6753	2507.256	1069.05	185.75
977.8031	2508.5924	1064.3	181.8
977.9308	2509.9281	1071.7	183.9
978.0585	2511.2631	1067.05	185
978.1861	2512.5974	1064.3	185.65
978.3137	2513.9309	1064.2	180.9
978.4413	2515.2638	1086.9	175.25
978.5689	2516.596	1065.6	184.2
978.6964	2517.9275	1062.35	178.1
978.8239	2519.2583	1064.55	181.2
978.9513	2520.5884	1063.5	179.95
979.0788	2521.9178	1059.85	176.15
979.2062	2523.2465	1061.9	179.8
979.3335	2524.5745	1060.5	178.75
979.4608	2525.9018	1059.5	176.55
979.5881	2527.2284	1054.8	173.95
979.7154	2528.5543	1056.25	173.05
979.8426	2529.8796	1055.25	172.8
979.9698	2531.2041	1056.5	173.65
980.0969	2532.5279	1057.45	175.85
980.224	2533.851	1057.3	173.2
980.3511	2535.1735	1053.8	171.2
980.4781	2536.4952	1058.1	175.9
980.6052	2537.8163	1052.5	169.75
980.7321	2539.1366	1053.95	172.55
980.8591	2540.4562	1051.1	166.65
980.986	2541.7752	1050.75	167.4
981.1129	2543.0935	1049.5	168.2
981.2397	2544.411	1053	170.2
981.3665	2545.7279	1051	169.5
981.4933	2547.0441	1054.8	170.6
981.62	2548.3596	1051.9	164.9
981.7467	2549.6744	1051.55	171.1
981.8734	2550.9885	1051.85	166.55
982.0001	2552.3019	1049.3	168
982.1267	2553.6146	1047.9	164.1
982.2532	2554.9266	1047.65	164.1
982.3798	2556.2379	1050.65	165.9
982.5063	2557.5485	1047.35	167.3
982.6327	2558.8585	1049.5	158.75
982.7592	2560.1677	1047.5	161.4
982.8856	2561.4762	1044.35	161
983.0119	2562.7841	1048.3	162.85
983.1383	2564.0913	1044.65	163.7
983.2646	2565.3977	1043.75	162.15
983.3908	2566.7035	1045.2	161.05
983.517	2568.0086	1043.4	158
983.6432	2569.313	1041.9	159.3
983.7694	2570.6167	1045.6	160.4
983.8955	2571.9197	1044.1	159.75
984.0216	2573.222	1046.6	161.25
984.1476	2574.5236	1044.4	161.15
984.2737	2575.8246	1041.5	157.1
984.3996	2577.1248	1044.25	161
984.5256	2578.4244	1038.15	155
984.6515	2579.7232	1035.85	153.85
984.7774	2581.0214	1064.95	150.55
984.9032	2582.3189	1034.45	152.3
985.029	2583.6157	1052.7	155.7
985.1548	2584.9118	1035.3	151.7
985.2806	2586.2072	1032.55	152.9
985.4063	2587.5019	1035.9	153.15
985.5319	2588.7959	1037.65	153.1
985.6576	2590.0893	1038.95	155.05
985.7832	2591.3819	1036.55	153.1
985.9087	2592.6739	1032.15	151.35
986.0343	2593.9652	1035.3	151.05
986.1597	2595.2557	1033.95	152.7
986.2852	2596.5456	1033.15	149.75
986.4106	2597.8348	1031.95	150.15
986.536	2599.1234	1029.35	148.95
986.6614	2600.4112	1033.15	150.5
986.7867	2601.6983	1034.95	148.45
986.912	2602.9848	1029.85	147.65
987.0372	2604.2705	1034.25	145.5
987.1624	2605.5556	1029.85	148.05
987.2876	2606.84	1029	147.2
987.4128	2608.1237	1026.55	142.35
987.5379	2609.4067	1030.25	149.55
987.6629	2610.689	1033.55	142.25
987.788	2611.9707	1031.25	145.75
987.913	2613.2516	1028.4	141.7
988.0379	2614.5319	1023.75	139.9
988.1629	2615.8115	1023.75	139.9
988.2878	2617.0903	1022.3	137.15
988.4126	2618.3685	1021.95	137.45
988.5375	2619.6461	1023.05	142.45
988.6622	2620.9229	1021.35	137.55
988.787	2622.199	1021.25	140.2
988.9117	2623.4745	1022.7	138.4
989.0364	2624.7493	1020	138
989.161	2626.0234	1021.4	139.4
989.2857	2627.2968	1020.65	137.95
989.4102	2628.5695	1018.1	134.85
989.5348	2629.8415	1015.9	132.25
989.6593	2631.1128	1015.3	132.1
989.7837	2632.3835	1016.45	133.15
989.9082	2633.6535	1012.95	132.1
990.0326	2634.9228	1014.4	131.3
990.1569	2636.1914	1010	129.2
990.2812	2637.4593	1017.75	133.95
990.4055	2638.7265	1013.2	130.85
990.5298	2639.9931	1010.9	130.2
990.654	2641.259	1010.5	127.8
990.7782	2642.5242	1010.9	129.75
990.9023	2643.7887	1009.3	126.6
991.0264	2645.0525	1008.35	125.75
991.1505	2646.3156	1025	126.15
991.2745	2647.5781	1008.3	126.55
991.3985	2648.8398	1011.1	129.7
991.5225	2650.1009	1032.8	124.8
991.6464	2651.3613	1007.8	125.15
991.7703	2652.6211	1005.05	121.5
991.8942	2653.8801	1002.65	120.25
992.018	2655.1385	1012.05	126.6
992.1418	2656.3961	1003.35	120.85
992.2655	2657.6531	1006.7	126.2
992.3892	2658.9094	1009.25	125.1
992.5129	2660.1651	1003.95	121.95
992.6366	2661.42	1003.7	121.4
992.7602	2662.6743	1006.1	122.95
992.8837	2663.9279	1002.75	123.45
993.0073	2665.1808	1000.55	116.05
993.1307	2666.433	1004.2	121
993.2542	2667.6846	1007.75	125.45
993.3776	2668.9354	1005.65	121.05
993.501	2670.1856	1002.6	120.8
993.6244	2671.4351	1003.45	122.1
993.7477	2672.6839	1002.35	117.75
993.8709	2673.9321	1004.35	123.9
993.9942	2675.1795	1001.2	117.3
994.1174	2676.4263	1004.55	122.65
994.2405	2677.6724	1000.2	118.15
994.3637	2678.9179	998.95	115.1
994.4868	2680.1626	1000.4	120.25
994.6098	2681.4067	996.7	114.4
994.7328	2682.6501	996	113.05
994.8558	2683.8928	1005.4	122.95
994.9788	2685.1348	1001.2	118.9
995.1017	2686.3761	995.9	114.5
995.2245	2687.6168	998.3	115.75
995.3474	2688.8568	996.4	113.95
995.4702	2690.0961	990.65	108.1
995.5929	2691.3348	997.9	113.35
995.7156	2692.5727	996.75	114.2
995.8383	2693.81	993.75	111.25
995.961	2695.0466	992.75	111.05
996.0836	2696.2826	994.65	111.15
996.2062	2697.5178	993.35	108.65
996.3287	2698.7524	991.75	110.7
996.4512	2699.9863	994.05	109.85
996.5737	2701.2195	989.7	108.2
996.6961	2702.452	994.05	109.75
996.8185	2703.6839	994.3	110.9
996.9408	2704.9151	990.4	107.8
997.0631	2706.1456	990.25	107.1
997.1854	2707.3755	993.05	109.2
997.3077	2708.6046	993.55	109.75
997.4299	2709.8331	991.05	108.2
997.552	2711.0609	992.75	111.1
997.6742	2712.2881	992.35	110.9
997.7963	2713.5145	994.95	108.6
997.9183	2714.7403	991.2	109.45
998.0403	2715.9654	991.4	107.6
998.1623	2717.1899	1003	105.35
998.2842	2718.4136	990.4	107.55
998.4062	2719.6367	993.7	110.95
998.528	2720.8591	1000.1	111.45
998.6498	2722.0809	992.1	108.9
998.7716	2723.3019	998.8	113.7
998.8934	2724.5223	992.55	110.25
999.0151	2725.7421	990.6	107.2
999.1368	2726.9611	988.2	103.85
999.2584	2728.1795	994.55	107.25
999.38	2729.3972	989.2	106.85
999.5016	2730.6142	993.95	102.8
999.6231	2731.8306	986.55	102.15
999.7446	2733.0462	987.15	102.7
999.8661	2734.2612	991.35	102.95
999.9875	2735.4756	988.7	104
1000.1089	2736.6892	982.2	98.25
1000.2302	2737.9022	981.65	101
1000.3515	2739.1145	984.25	100.35
1000.4728	2740.3262	991.35	100.3
1000.594	2741.5372	980.75	98.75
1000.7152	2742.7475	983.35	100.15
1000.8363	2743.9571	977.2	91.8
1000.9575	2745.1661	982.5	95.95
1001.0785	2746.3744	976.4	91.85
1001.1996	2747.582	979.45	97.2
1001.3206	2748.7889	976.55	93.1
1001.4415	2749.9952	973.15	91.75
1001.5625	2751.2008	974	90.1
1001.6833	2752.4057	975.35	91.95
1001.8042	2753.61	974.1	91.05
1001.925	2754.8136	974.4	89.7
1002.0458	2756.0165	970.95	89.75
1002.1665	2757.2188	973.7	93.25
1002.2872	2758.4204	971.05	87.5
1002.4078	2759.6213	975.9	90.85
1002.5285	2760.8215	977	90.2
1002.649	2762.0211	974.2	90.25
1002.7696	2763.22	972.75	87.65
1002.8901	2764.4182	971.9	88.9
1003.0106	2765.6158	969.65	87.15
1003.131	2766.8127	973.3	89.5
1003.2514	2768.009	969.35	87.75
1003.3717	2769.2045	972.1	88.85
1003.492	2770.3994	971.6	87.65
1003.6123	2771.5936	969	84.25
1003.7325	2772.7872	963.15	80.75
1003.8527	2773.9801	967.15	83.75
1003.9729	2775.1723	981.35	84.65
1004.093	2776.3639	963.85	82.6
1004.2131	2777.5548	968.3	86.4
1004.3331	2778.745	969	83.55
1004.4531	2779.9346	966.3	84.1
1004.5731	2781.1235	964.2	80.15
1004.693	2782.3117	963.5	81.55
1004.8129	2783.4992	963.05	81.85
1004.9328	2784.6861	965	82.35
1005.0526	2785.8723	963.75	79.6
1005.1723	2787.0579	966.6	83.25
1005.2921	2788.2428	965.25	82.75
1005.4118	2789.427	961.4	80.4
1005.5314	2790.6106	963	83.1
1005.651	2791.7935	962.7	79.7
1005.7706	2792.9757	961.45	79.2
1005.8902	2794.1573	960.2	74.5
1006.0097	2795.3382	960	77.65
1006.1291	2796.5184	962.05	81.05
1006.2485	2797.698	960.5	75.6
1006.3679	2798.8769	961.65	78.9
1006.4873	2800.0551	964.95	82.1
1006.6066	2801.2327	965.95	81.55
1006.7258	2802.4096	962.35	80.35
1006.8451	2803.5859	960.95	76.75
1006.9642	2804.7615	961.7	77.15
1007.0834	2805.9364	960.4	77.55
1007.2025	2807.1106	963.75	81.15
1007.3216	2808.2842	963.25	79.75
1007.4406	2809.4572	965.35	83.2
1007.5596	2810.6294	964.6	82.55
1007.6785	2811.801	965.35	83.9
1007.7975	2812.972	967	85.7
1007.9163	2814.1423	966.6	83.85
1008.0352	2815.3119	971.05	87.3
1008.154	2816.4808	969.5	89.1
1008.2727	2817.6491	973.75	90
1008.3914	2818.8167	973.55	93.3
1008.5101	2819.9837	982.5	95.35
1008.6288	2821.15	979.4	97
1008.7474	2822.3157	982.15	101.05
1008.8659	2823.4807	987.85	103.5
1008.9844	2824.645	994.6	111.1
1009.1029	2825.8086	1000.5	118.9
1009.2214	2826.9716	1002.1	121.25
1009.3398	2828.134	1009.35	126.6
1009.4581	2829.2957	1013.75	131.95
1009.5764	2830.4567	1017.6	137.85
1009.6947	2831.617	1025.9	143.85
1009.813	2832.7767	1022.75	141.1
1009.9312	2833.9358	1021.5	138.75
1010.0493	2835.0941	1022.65	138.55
1010.1675	2836.2519	1022.4	140.95
1010.2855	2837.4089	1016.4	133.85
1010.4036	2838.5653	1017.75	136.5
1010.5216	2839.7211	1009.3	127.7
1010.6396	2840.8761	1012.55	129.15
1010.7575	2842.0306	1006.6	125.5
1010.8754	2843.1843	1009.85	128.4
1010.9932	2844.3374	1009.1	127.85
1011.111	2845.4899	1015.55	132.85
1011.2288	2846.6417	1012.85	130.75
1011.3465	2847.7928	1013.5	132.55
1011.4642	2848.9433	1017.05	133.05
1011.5818	2850.0931	1017.5	136.35
1011.6995	2851.2422	1015.45	131.2
1011.817	2852.3907	1018.9	135.4
1011.9345	2853.5385	1022.65	139.05
1012.052	2854.6857	1026.7	135.4
1012.1695	2855.8323	1021.85	140
1012.2869	2856.9781	1023.4	142.85
1012.4042	2858.1233	1025.55	144.9
1012.5216	2859.2679	1027.3	144.1
1012.6389	2860.4118	1026.45	144.3
1012.7561	2861.555	1035.2	147.9
1012.8733	2862.6976	1034.6	150.5
1012.9905	2863.8395	1031.25	148.9
1013.1076	2864.9808	1035.25	153.6
1013.2247	2866.1214	1035.75	155.05
1013.3417	2867.2614	1036.65	155.15
1013.4587	2868.4007	1036.8	154.35
1013.5757	2869.5393	1042.6	158.9
1013.6926	2870.6773	1047.2	163.8
1013.8095	2871.8146	1039.75	155.85
1013.9263	2872.9513	1043.4	158.55
1014.0431	2874.0874	1047	164.8
1014.1599	2875.2227	1042.45	159.8
1014.2766	2876.3574	1044.5	162.4
1014.3933	2877.4915	1047.05	166
1014.51	2878.6249	1048.55	167.25
1014.6266	2879.7577	1055.2	173
1014.7431	2880.8898	1066.45	174.05
1014.8596	2882.0212	1051.9	170
1014.9761	2883.152	1056.5	175.2
1015.0925	2884.2821	1054.05	173
1015.2089	2885.4116	1052.7	170.95
1015.3253	2886.5405	1053.55	170.85
1015.4416	2887.6686	1064	178.85
1015.5579	2888.7962	1054.2	173.65
1015.6741	2889.923	1054.75	174.4
1015.7903	2891.0493	1058.5	175.85
1015.9065	2892.1748	1057.15	173.2
1016.0226	2893.2997	1059.95	177.25
1016.1387	2894.424	1057.55	177.4
1016.2547	2895.5476	1056.95	176.2
1016.3707	2896.6706	1060	180.5
1016.4866	2897.7929	1056.4	172.55
1016.6025	2898.9145	1059.4	178.4
1016.7184	2900.0355	1060.95	178.25
1016.8342	2901.1559	1057.75	176.2
1016.95	2902.2756	1057.55	175.1
1017.0658	2903.3946	1054.8	171.45
1017.1815	2904.513	1055.75	169.85
1017.2971	2905.6308	1054.95	173.65
1017.4127	2906.7479	1054.7	172.7
1017.5283	2907.8643	1054.65	172.05
1017.6439	2908.9801	1053.65	172.25
1017.7594	2910.0953	1057.8	175.55
1017.8748	2911.2098	1061.2	177.35
1017.9902	2912.3236	1057.95	168.55
1018.1056	2913.4368	1054.6	167.65
1018.2209	2914.5494	1051	169.1
1018.3362	2915.6613	1057.55	169.65
1018.4515	2916.7725	1053.2	168.2
1018.5667	2917.8831	1043.75	160.05
1018.6819	2918.9931	1048.7	162.55
1018.797	2920.1024	1044.3	160.8
1018.9121	2921.211	1041.05	159.3
1019.0271	2922.319	1039.75	158.3
1019.1421	2923.4264	1036.25	153.15
1019.2571	2924.5331	1035.7	155.05
1019.372	2925.6391	1039.9	157.55
1019.4869	2926.7445	1034.1	155.1
1019.6017	2927.8493	1037.2	154.6
1019.7165	2928.9534	1037.15	154.35
1019.8313	2930.0569	1040.85	155.35
1019.946	2931.1597	1036.4	152.9
1020.0606	2932.2619	1037.5	156.5
1020.1753	2933.3634	1040.65	157.7
1020.2899	2934.4643	1045.05	157.3
1020.4044	2935.5645	1046.55	159.25
1020.5189	2936.6641	1046.5	159.45
1020.6334	2937.763	1042.05	162
1020.7478	2938.8613	1041.65	157.7
1020.8622	2939.959	1042.15	153
1020.9765	2941.056	1037.9	158.2
1021.0908	2942.1523	1035.7	152.25
1021.2051	2943.248	1029.55	147.9
1021.3193	2944.3431	1019.55	138.05
1021.4334	2945.4375	1015.75	133.1
1021.5476	2946.5313	1009.75	128.7
1021.6617	2947.6244	1002.85	120.75
1021.7757	2948.7169	999.8	115.2
1021.8897	2949.8087	994.75	110.55
1022.0037	2950.8999	991.5	107.95
1022.1176	2951.9904	986.25	103.75
1022.2315	2953.0803	983.75	100.55
1022.3453	2954.1696	981.65	97.6
1022.4591	2955.2582	974.1	94.3
1022.5728	2956.3462	974	90.95
1022.6865	2957.4335	974.85	91.4
1022.8002	2958.5202	978.05	93.6
1022.9138	2959.6062	972.35	88.35
1023.0274	2960.6916	973	91.6
1023.141	2961.7764	971.75	88.15
1023.2545	2962.8605	971.9	87.45
1023.3679	2963.9439	971.35	90.1
1023.4813	2965.0267	968.9	84.65
1023.5947	2966.1089	994.65	89.75
1023.708	2967.1905	971.4	90
1023.8213	2968.2714	968.2	85.95
1023.9346	2969.3516	971.2	88.5
1024.0478	2970.4312	974.35	84.95
1024.1609	2971.5102	967.95	85.95
1024.274	2972.5885	968.95	87.85
1024.3871	2973.6662	971.8	85.1
1024.5002	2974.7432	968.05	87.95
1024.6132	2975.8196	969.05	86.25
1024.7261	2976.8954	967.9	85.25
1024.839	2977.9705	968.8	85.5
1024.9519	2979.045	965	83.6
1025.0647	2980.1188	963.35	79.9
1025.1775	2981.192	966.55	84
1025.2902	2982.2645	964.55	82.9
1025.4029	2983.3364	968.2	86.95
1025.5156	2984.4077	958.95	75.7
1025.6282	2985.4783	965.85	77.55
1025.7407	2986.5483	958.25	77.2
1025.8532	2987.6177	954.75	72.7
1025.9657	2988.6864	955	72.65
1026.0782	2989.7545	956.9	73.85
1026.1906	2990.8219	952.6	71.85
1026.3029	2991.8887	953.8	69.35
1026.4152	2992.9548	947.3	62.6
1026.5275	2994.0204	945.6	66.15
1026.6397	2995.0852	940.6	58.9
1026.7519	2996.1495	942.8	61.55
1026.864	2997.2131	939.2	58.15
1026.9761	2998.276	935.8	52.55
1027.0882	2999.3383	935.25	52.3
1027.2002	3000.4	933.85	51.8
1027.3122	3001.4611	933.85	50.15
1027.4241	3002.5215	935.15	53.75
1027.536	3003.5812	929.05	46.65
1027.6478	3004.6404	931.55	48.2
1027.7596	3005.6989	932.25	47.7
1027.8714	3006.7567	928.95	46.7
1027.9831	3007.8139	946.9	45.55
1028.0947	3008.8705	928	45.95
1028.2064	3009.9264	943.6	44.85
1028.3179	3010.9818	925.75	42.75
1028.4295	3012.0364	927.85	43.5
1028.541	3013.0905	927.05	44.9
1028.6524	3014.1439	926.1	43.5
1028.7638	3015.1966	922.5	42.1
1028.8752	3016.2487	922.85	39.45
1028.9865	3017.3002	926.85	40.4
1029.0978	3018.3511	922.55	42.55
1029.209	3019.4013	923.9	41.4
1029.3202	3020.4509	921.7	40.15
1029.4314	3021.4998	923.3	41.3
1029.5425	3022.5481	920.75	39.8
1029.6535	3023.5958	922.3	41.7
1029.7645	3024.6428	923.7	40.9
1029.8755	3025.6892	921.05	40.3
1029.9864	3026.735	922.2	40.7
1030.0973	3027.7802	919.9	35.1
1030.2082	3028.8247	922.4	39.6
1030.319	3029.8685	919.85	37.3
1030.4297	3030.9118	921.6	38.15
1030.5404	3031.9544	919.45	37.6
1030.6511	3032.9963	920.8	36.05
1030.7617	3034.0376	922.55	42.9
1030.8723	3035.0783	922.2	37.75
1030.9829	3036.1184	919.9	36.05
1031.0934	3037.1578	918.8	38.05
1031.2038	3038.1966	920.6	37.7
1031.3142	3039.2348	920.1	38.3
1031.4246	3040.2723	929.25	38.1
1031.5349	3041.3092	921.55	40.6
1031.6452	3042.3455	918.7	34.95
1031.7554	3043.3811	921.8	39.7
1031.8656	3044.4161	920.75	36.15
1031.9758	3045.4505	920.5	39.5
1032.0859	3046.4842	919.55	36.55
1032.1959	3047.5173	918.55	37.6
1032.3059	3048.5498	916.85	33.9
1032.4159	3049.5816	918.9	37.55
1032.5258	3050.6128	920.65	38.15
1032.6357	3051.6434	922	39.9
1032.7455	3052.6734	922.55	39.9
1032.8553	3053.7027	920.25	36.65
1032.9651	3054.7314	916.6	34.95
1033.0748	3055.7594	920.2	37.6
1033.1845	3056.7868	919.3	34.8
1033.2941	3057.8136	918.9	36
1033.4037	3058.8398	919.75	37.1
1033.5132	3059.8653	921.75	40.05
1033.6227	3060.8902	922	39.25
1033.7321	3061.9145	918.85	35.7
1033.8415	3062.9381	920.75	38.8
1033.9509	3063.9612	934.65	37.2
1034.0602	3064.9835	921.5	38.55
1034.1694	3066.0053	923.25	40.05
1034.2787	3067.0264	920.65	38.4
1034.3878	3068.0469	920.15	39.15
1034.497	3069.0668	922.8	39.2
1034.6061	3070.086	918.65	36.65
1034.7151	3071.1046	921.75	39.6
1034.8241	3072.1226	918	32.85
1034.9331	3073.1399	919.15	35.1
1035.042	3074.1567	920.85	38.95
1035.1508	3075.1727	918.75	35.4
1035.2597	3076.1882	917.85	36.15
1035.3684	3077.203	917.05	34.9
1035.4772	3078.2173	920.85	39.35
1035.5859	3079.2308	918.5	33.65
1035.6945	3080.2438	915.1	33.45
1035.8031	3081.2561	913.75	31.15
1035.9117	3082.2678	913.05	33.25
1036.0202	3083.2789	915.6	31.65
1036.1286	3084.2893	915.25	33.7
1036.2371	3085.2991	916	33.5
1036.3454	3086.3083	915.35	28.55
1036.4538	3087.3169	916.5	33.65
1036.562	3088.3248	915.3	31.9
1036.6703	3089.3321	916.05	33.05
1036.7785	3090.3388	911.5	29.5
1036.8866	3091.3449	909.9	28.75
1036.9948	3092.3503	915.75	30.7
1037.1028	3093.3551	909.2	27.4
1037.2108	3094.3593	909.45	26.85
1037.3188	3095.3629	909.5	27.25
1037.4267	3096.3658	911.75	29.6
1037.5346	3097.3681	910.4	31.3
1037.6425	3098.3698	910.6	27.9
1037.7503	3099.3708	915.9	28.5
1037.858	3100.3713	908.35	24.7
1037.9657	3101.3711	910.8	29.1
1038.0734	3102.3702	1041.5	28.2
1038.181	3103.3688	909.9	25.25
1038.2886	3104.3667	909.75	27.65
1038.3961	3105.364	905.45	22.95
1038.5036	3106.3607	909.65	25.75
1038.611	3107.3568	907.3	23.55
1038.7184	3108.3522	906.95	26.3
1038.8257	3109.347	907.7	24.25
1038.933	3110.3412	912.65	27.75
1039.0403	3111.3348	908.1	25.15
1039.1475	3112.3277	909	28.05
1039.2547	3113.32	905	23.05
1039.3618	3114.3117	907.2	24.25
1039.4689	3115.3028	905.8	23.6
1039.5759	3116.2932	908.4	23.8
1039.6829	3117.2831	912.1	22.9
1039.7898	3118.2723	906.2	26.2
1039.8967	3119.2608	905.15	24.4
1040.0035	3120.2488	904.2	22.45
1040.1103	3121.2361	904.3	22.75
1040.2171	3122.2229	907	23.95
1040.3238	3123.209	906.75	23.95
1040.4305	3124.1944	905.7	23.9
1040.5371	3125.1793	904.05	18.6
1040.6437	3126.1635	904.9	22.05
1040.7502	3127.1471	901.4	22
1040.8567	3128.1301	903.7	21.6
1040.9631	3129.1125	903.8	22.6
1041.0695	3130.0942	902.1	18.85
1041.1759	3131.0753	911.35	21.75
1041.2822	3132.0558	906.8	22.1
1041.3884	3133.0357	903.6	19.55
1041.4946	3134.015	903.85	20.7
1041.6008	3134.9936	904.35	20.85
1041.7069	3135.9716	925	23.6
1041.813	3136.949	902.1	20.05
1041.919	3137.9258	920.75	19.55
1042.025	3138.902	908.4	19.5
1042.1309	3139.8775	901.35	20.25
1042.2368	3140.8524	902.95	21.15
1042.3427	3141.8267	903.9	20.85
1042.4485	3142.8004	903	20.05
1042.5542	3143.7735	906.95	18.95
1042.6599	3144.7459	905.1	18.95
1042.7656	3145.7178	903.3	21.25
1042.8712	3146.689	901.15	21.75
1042.9768	3147.6596	902.65	18.65
1043.0823	3148.6295	900.35	19.35
1043.1878	3149.5989	901.55	19.35
1043.2932	3150.5676	899.95	20.6
1043.3986	3151.5357	898.15	16.5
1043.5039	3152.5032	899.6	18.35
1043.6092	3153.4701	901.95	20.65
1043.7145	3154.4364	902.2	18.15
1043.8197	3155.402	898.45	18.15
1043.9248	3156.367	901.35	18.35
1044.03	3157.3315	935.65	16.85
1044.135	3158.2952	902.75	19.45
1044.24	3159.2584	899.35	18.3
1044.345	3160.221	900.6	18.15
1044.4499	3161.1829	899	13.75
1044.5548	3162.1442	900.5	18.6
1044.6596	3163.105	901.2	17.3
1044.7644	3164.065	903	20.75
1044.8692	3165.0245	901.45	18
1044.9739	3165.9834	897.1	17.2
1045.0785	3166.9416	898.85	14.75
1045.1831	3167.8993	897.8	17.85
1045.2877	3168.8563	901.6	19.15
1045.3922	3169.8127	896.85	17.15
1045.4966	3170.7684	898.5	16.4
1045.6011	3171.7236	899.9	14.85
1045.7054	3172.6782	897.6	14.15
1045.8098	3173.6321	900.05	17.45
1045.914	3174.5854	902.15	14.05
1046.0183	3175.5381	896.6	16.5
1046.1224	3176.4902	897.45	16
1046.2266	3177.4417	897.65	16.85
1046.3307	3178.3926	897.1	15.75
1046.4347	3179.3428	896.6	14.9
1046.5387	3180.2924	897.95	16.1
1046.6427	3181.2415	899.6	16.7
1046.7466	3182.1899	899.65	15.1
1046.8504	3183.1377	896.2	15.9
1046.9542	3184.0848	899.15	13.7
1047.058	3185.0314	895.15	11.7
1047.1617	3185.9773	898.05	14.1
1047.2654	3186.9227	899.3	15.25
1047.369	3187.8674	897.05	15.15
1047.4726	3188.8115	900.65	16.1
1047.5761	3189.755	897.2	16.9
1047.6796	3190.6979	896.1	12.1
1047.783	3191.6402	893.6	14.1
1047.8864	3192.5818	898.75	17.6
1047.9898	3193.5229	902.15	15.35
1048.0931	3194.4633	899.1	17.2
1048.1963	3195.4031	897.9	16.15
1048.2995	3196.3423	896.2	14.7
1048.4027	3197.2809	895.5	11.8
1048.5058	3198.2189	893.75	10.8
1048.6089	3199.1563	903.45	15.4
1048.7119	3200.0931	894.05	13.1
1048.8148	3201.0292	896.6	14.35
1048.9178	3201.9648	898.15	16.3
1049.0206	3202.8997	900.15	15.4
1049.1235	3203.834	894	11.1
1049.2262	3204.7677	894.85	13.9
1049.329	3205.7008	895.25	12.3
1049.4317	3206.6333	896.85	18.6
1049.5343	3207.5652	899.1	16.15
1049.6369	3208.4964	894.6	12.6
1049.7394	3209.4271	897.35	16.35
1049.8419	3210.3571	896.5	13.75
1049.9444	3211.2865	895.65	12.55
1050.0468	3212.2154	896.45	12.15
1050.1491	3213.1436	898.55	12.15
1050.2514	3214.0712	900.75	13.15
1050.3537	3214.9982	895.05	13.25
1050.4559	3215.9246	895.9	12.25
1050.5581	3216.8503	893.6	11.3
1050.6602	3217.7755	893.35	10.2
1050.7623	3218.7001	895.1	13.3
1050.8643	3219.624	896.35	14.5
1050.9663	3220.5473	895.8	15.55
1051.0682	3221.4701	895.6	12.45
1051.1701	3222.3922	896.2	11.45
1051.2719	3223.3137	894.15	12.7
1051.3737	3224.2346	894.75	11.6
1051.4754	3225.1549	893.4	11.55
1051.5771	3226.0746	894	11.05
1051.6788	3226.9937	895.35	11.3
1051.7804	3227.9121	893.25	13.7
1051.8819	3228.83	892.7	10.65
1051.9834	3229.7473	894.15	10.65
1052.0849	3230.6639	892.95	11.1
1052.1863	3231.5799	892.65	12.15
1052.2876	3232.4954	894.85	9.55
1052.3889	3233.4102	894.6	11.05
1052.4902	3234.3244	895.1	12.6
1052.5914	3235.238	893.65	10.65
1052.6926	3236.151	918.05	10.55
1052.7937	3237.0634	893.9	10.7
1052.8948	3237.9752	893.2	10.8
1052.9958	3238.8864	893.5	10.95
1053.0968	3239.797	891.5	9
1053.1977	3240.7069	895.55	13.7
1053.2986	3241.6163	895.85	13.1
1053.3994	3242.5251	892.45	11.3
1053.5002	3243.4332	891.35	9.5
1053.6009	3244.3408	894.15	12.2
1053.7016	3245.2477	890.45	8.5
1053.8022	3246.154	894.3	12.45
1053.9028	3247.0598	893.05	9.3
1054.0034	3247.9649	892.7	11.25
1054.1039	3248.8694	894	11.55
1054.2043	3249.7733	892.25	10.7
1054.3047	3250.6766	892.95	10.8
1054.4051	3251.5793	894.85	12.15
1054.5054	3252.4814	890.85	9.95
1054.6056	3253.3829	891.4	9.25
1054.7058	3254.2838	891.5	8.65
1054.806	3255.1841	891.8	9.7
1054.9061	3256.0838	892.35	11.95
1055.0061	3256.9829	891.05	9.5
1055.1062	3257.8814	894.5	10.9
1055.2061	3258.7792	895	10.9
1055.306	3259.6765	893.3	10.45
1055.4059	3260.5731	892.85	11.5
1055.5057	3261.4692	889.55	6.4
1055.6055	3262.3647	893.35	12.2
1055.7052	3263.2595	890.9	6.2
1055.8049	3264.1538	889.75	7.85
1055.9045	3265.0474	893.35	11.05
1056.0041	3265.9404	891.65	10.15
1056.1036	3266.8329	890.5	7.8
1056.2031	3267.7247	901.45	10.35
1056.3025	3268.616	889.8	8.15
1056.4019	3269.5066	887.45	5.35
1056.5013	3270.3966	891.95	8.65
1056.6005	3271.286	889	8.65
