Software Version:	3.9.2.0
Unit SN:	10000200
Spectrometer SN:	6960
Date:	3/26/2024 2:06:31 PM
Data Line Index:	25
Spectral Points:	2048
Integration time (ms):	125
Averages:	20
Delay (ms):	30000
Sequence Number:	1
Processing:	dark subtract
Laser Power (mW):	300
Laser Current (mA):	819
Laser Diode Temp (C):	25.1
Laser Case Temp (C):	27.4
System Temp (C):	27.4
Spectrometer Temp (C):	25.3
CCD Temp (C):	0.008
Secondary Temp (C):	20.011
Heatsink Temp (C):	22.625
CCDPCB Temp (C):	36.907
SecondaryPCB Temp (C):	34.451

Wavelength	RamanShift	Raw Counts	Dark Subtracted
787.061	30.1047	665.2	256.5
787.2016	32.3739	676.6	268.6
787.3422	34.6426	696	287.25
787.4828	36.9109	715.85	304.85
787.6235	39.1787	737.5	320.85
787.7642	41.4461	764.55	343.45
787.9049	43.7131	787.55	363.4
788.0456	45.9796	811.5	383.15
788.1863	48.2456	847.8	414.7
788.3271	50.5112	874.1	439.3
788.4679	52.7764	907.35	468.75
788.6087	55.0411	936.75	497.05
788.7496	57.3054	970.75	525
788.8904	59.5692	999.55	551.35
789.0313	61.8326	1042.6	588.2
789.1722	64.0955	1074.25	615.85
789.3132	66.3579	1133.05	671.8
789.4541	68.6199	1199.6	735.9
789.5951	70.8815	1310.6	841.45
789.7361	73.1426	1520.5	1047.1
789.8771	75.4032	2069.55	1590.8
790.0181	77.6634	3425.8	2940.2
790.1592	79.9231	6845.4	6350.65
790.3003	82.1824	14733.2	14215.25
790.4414	84.4412	34809.8	34259.3
790.5825	86.6995	60310.95	59711.3
790.7237	88.9574	64826	64177.95
790.8648	91.2148	65382.65	64699.15
791.006	93.4717	65494.9	64789.9
791.1472	95.7282	65524.9	64808.9
791.2885	97.9842	65533.45	64810.3
791.4297	100.2398	65530.45	64804.75
791.571	102.4949	65530.55	64800.35
791.7123	104.7495	65525.45	64794.25
791.8536	107.0036	65521.4	64792.95
791.9949	109.2573	65526.1	64791.8
792.1363	111.5105	65519.7	64787.8
792.2777	113.7632	65512.75	64778.15
792.4191	116.0154	65520.35	64778.1
792.5605	118.2672	65523.9	64779.8
792.7019	120.5185	65520.65	64780.45
792.8434	122.7693	65522.55	64775.85
792.9849	125.0197	65496.6	64751.45
793.1264	127.2696	65529.9	64777.75
793.2679	129.519	65523.65	64770.95
793.4094	131.7679	65532.15	64772.75
793.551	134.0163	65508.2	64739.4
793.6926	136.2642	65520.3	64758.35
793.8342	138.5117	65528.7	64761.6
793.9758	140.7587	65526.1	64753.9
794.1175	143.0052	65525.65	64752.9
794.2591	145.2512	65504.65	64732
794.4008	147.4967	65525.5	64752.55
794.5425	149.7417	65523.95	64748.4
794.6842	151.9863	65522.05	64744.8
794.826	154.2304	65517.95	64737.35
794.9677	156.4739	65518.55	64729.95
795.1095	158.717	65531.4	64745.2
795.2513	160.9596	65522.55	64735.1
795.3931	163.2017	65499.4	64700.75
795.535	165.4433	65519.3	64725.15
795.6768	167.6844	65495.65	64697.05
795.8187	169.925	65507.9	64712.35
795.9606	172.1651	65483.65	64687.65
796.1025	174.4047	65507.8	64710.1
796.2445	176.6439	65481.4	64680.15
796.3864	178.8825	65459.6	64656.8
796.5284	181.1206	65511.55	64701.95
796.6704	183.3582	65494.05	64676.85
796.8124	185.5954	65480.9	64664.85
796.9544	187.832	65474.25	64655.65
797.0965	190.0681	65442.65	64623.6
797.2386	192.3037	65497.3	64667.95
797.3806	194.5388	65525.55	64691.65
797.5228	196.7734	65411.65	64576.5
797.6649	199.0075	65528.35	64688.55
797.807	201.2411	65497.5	64653.3
797.9492	203.4742	65530.65	64691.65
798.0914	205.7068	65523.8	64686.25
798.2336	207.9389	65520.7	64675.2
798.3758	210.1704	65521.95	64680.45
798.518	212.4015	65534.8	64686.8
798.6603	214.632	65522.95	64683.1
798.8025	216.862	65535	64700.95
798.9448	219.0915	65526.7	64695.45
799.0871	221.3205	65529.1	64702.45
799.2294	223.549	65535	64715
799.3718	225.777	65535	64712.2
799.5141	228.0044	65535	64709.55
799.6565	230.2314	65535	64705.5
799.7989	232.4578	65535	64707.65
799.9413	234.6837	65535	64699.3
800.0837	236.909	65535	64698.3
800.2262	239.1339	65535	64672.6
800.3687	241.3582	65535	64688
800.5111	243.582	65535	64653.6
800.6536	245.8053	65535	64670.2
800.7961	248.0281	65535	64677.3
800.9387	250.2503	65535	64671.1
801.0812	252.472	65535	64666.95
801.2238	254.6932	65535	64664
801.3664	256.9139	65535	64665.55
801.509	259.134	65535	64662.5
801.6516	261.3536	65535	64657.25
801.7942	263.5727	65535	64652.55
801.9369	265.7912	65535	64661.7
802.0795	268.0092	65535	64659.35
802.2222	270.2267	65535	64662.6
802.3649	272.4436	65535	64661.05
802.5076	274.6601	65535	64651.4
802.6504	276.8759	65535	64660
802.7931	279.0913	65535	64654.85
802.9359	281.3061	65535	64652.65
803.0787	283.5204	65535	64651.55
803.2215	285.7341	65535	64642.8
803.3643	287.9473	65535	64637.85
803.5071	290.16	65535	64639.7
803.6499	292.3721	65535	64644.1
803.7928	294.5837	65535	64641.65
803.9357	296.7947	65535	64644.5
804.0786	299.0052	65535	64642.95
804.2215	301.2152	65535	64647.1
804.3644	303.4246	65535	64649.25
804.5074	305.6334	65535	64651.35
804.6503	307.8418	65535	64651.55
804.7933	310.0495	65535	64646.35
804.9363	312.2568	65535	64644.65
805.0793	314.4635	65535	64642.15
805.2223	316.6696	65535	64640.6
805.3653	318.8752	65535	64632.5
805.5084	321.0802	65530.8	64633.5
805.6514	323.2847	65535	64636.5
805.7945	325.4887	65535	64635.9
805.9376	327.692	65535	64639.2
806.0807	329.8949	65535	64634.55
806.2238	332.0972	65535	64633.65
806.367	334.2989	65535	64630.45
806.5101	336.5001	65535	64629.75
806.6533	338.7007	65527.55	64619.5
806.7965	340.9008	65535	64626.15
806.9397	343.1003	65535	64625.55
807.0829	345.2992	65535	64627.25
807.2261	347.4976	65530.8	64622.2
807.3693	349.6955	65535	64617.2
807.5126	351.8927	65531.85	64612.25
807.6559	354.0895	65535	64606.25
807.7991	356.2856	65535	64619.4
807.9424	358.4812	65535	64614.6
808.0857	360.6763	65525.05	64609.8
808.2291	362.8707	65535	64616.05
808.3724	365.0646	65535	64615.8
808.5158	367.258	65535	64613.8
808.6591	369.4508	65523.15	64598.4
808.8025	371.643	65535	64615.95
808.9459	373.8346	65532.5	64605.3
809.0893	376.0257	65535	64607.25
809.2327	378.2162	65532.65	64606.6
809.3762	380.4062	65518.45	64591.1
809.5196	382.5956	65534.35	64603.55
809.6631	384.7844	65527.65	64601.85
809.8066	386.9726	65535	64607.6
809.9501	389.1603	65533.2	64607.55
810.0936	391.3474	65523.2	64558.7
810.2371	393.5339	65530.55	64601.7
810.3806	395.7199	65514.9	64592.55
810.5241	397.9052	65518.45	64595.4
810.6677	400.09	65523.1	64607
810.8113	402.2743	65535	64616
810.9548	404.4579	65517.85	64601.4
811.0984	406.641	65521.2	64601.5
811.2421	408.8235	65528.05	64610.2
811.3857	411.0054	65532.4	64611.2
811.5293	413.1868	65535	64608.15
811.673	415.3675	65528.3	64602.3
811.8166	417.5477	65531.2	64605.1
811.9603	419.7273	65535	64603.6
812.104	421.9064	65530.6	64597.55
812.2477	424.0848	65529.95	64599.25
812.3914	426.2627	65535	64603.3
812.5351	428.4399	65525.35	64590
812.6788	430.6166	65479.4	64541.05
812.8226	432.7928	65523.55	64585
812.9663	434.9683	65499.9	64571.75
813.1101	437.1432	65485.35	64552.75
813.2539	439.3176	65520.1	64594.9
813.3977	441.4914	65459.75	64531.4
813.5415	443.6645	65476.6	64547.65
813.6853	445.8371	65480.8	64549.85
813.8291	448.0091	65455.1	64518.75
813.973	450.1806	65441.1	64510.85
814.1168	452.3514	65460.3	64530.3
814.2607	454.5216	65415.2	64476.1
814.4046	456.6913	65453.4	64523.3
814.5485	458.8603	65476.45	64542.75
814.6924	461.0288	65406.8	64481.7
814.8363	463.1967	65457.9	64534.5
814.9802	465.3639	65447.6	64513.85
815.1241	467.5306	65381.2	64453.85
815.2681	469.6967	65439.9	64511.8
815.412	471.8622	65474.5	64552.2
815.556	474.0271	65430.55	64501.6
815.7	476.1914	65443.55	64508.6
815.844	478.3551	65439.9	64509.3
815.988	480.5182	65496.5	64568.75
816.132	482.6807	65413.45	64491.35
816.276	484.8426	65427.05	64514.45
816.4201	487.0039	65504.35	64579.9
816.5641	489.1647	65511.7	64580.1
816.7082	491.3248	65440.25	64505.45
816.8522	493.4843	65518.6	64591.05
816.9963	495.6432	65518.7	64592.45
817.1404	497.8015	65442.5	64501.7
817.2845	499.9592	65496.85	64551.3
817.4286	502.1163	65484.35	64542.3
817.5727	504.2728	65471.9	64539.5
817.7168	506.4287	65451.65	64530.25
817.861	508.5839	65409.25	64482.85
818.0051	510.7386	65438.4	64509.95
818.1493	512.8927	65433.5	64491.95
818.2935	515.0461	65432.7	64494.95
818.4377	517.199	65459.4	64519.95
818.5818	519.3512	65411.85	64467.1
818.726	521.5029	65424.9	64479.5
818.8703	523.6539	65423.65	64487.25
819.0145	525.8043	65370.4	64430.6
819.1587	527.9541	65422.05	64477.7
819.303	530.1033	65420.15	64481.95
819.4472	532.2519	65398.65	64457.05
819.5915	534.3999	65453	64515
819.7357	536.5472	65480.5	64542
819.88	538.694	65415.7	64484.05
820.0243	540.8401	65461.9	64520.55
820.1686	542.9856	65487.3	64534.85
820.3129	545.1305	65517.1	64559.2
820.4572	547.2748	65453.65	64490.65
820.6016	549.4185	65437.85	64473.5
820.7459	551.5615	65475.7	64518.15
820.8902	553.704	65450.55	64493.35
821.0346	555.8458	65422.3	64467.4
821.1789	557.987	65435.15	64483.45
821.3233	560.1276	65448.8	64496.55
821.4677	562.2675	65421.95	64465.65
821.6121	564.4069	65437.85	64487.55
821.7565	566.5456	65457	64507
821.9009	568.6837	65387.25	64436.95
822.0453	570.8212	65413.05	64466.55
822.1897	572.958	65346.6	64398.85
822.3342	575.0942	65395.4	64455.9
822.4786	577.2299	65364.6	64424.15
822.6231	579.3648	65361.8	64436.1
822.7675	581.4992	65353.7	64434.9
822.912	583.6329	65351.6	64439.05
823.0565	585.766	65358.3	64435.35
823.201	587.8985	65379.35	64451.45
823.3454	590.0304	65306.75	64355.35
823.4899	592.1616	65368.8	64415.75
823.6345	594.2922	65342.55	64393.55
823.779	596.4222	65303.15	64344.6
823.9235	598.5515	65307.5	64349.2
824.068	600.6802	65340.05	64380.4
824.2126	602.8083	65278.85	64330.2
824.3571	604.9358	65274.45	64320.05
824.5017	607.0626	65309.9	64353.55
824.6462	609.1888	65243.6	64283.5
824.7908	611.3144	65284.35	64323
824.9354	613.4393	65267.75	64307.3
825.08	615.5636	65231.2	64269.05
825.2246	617.6873	65255.3	64295.25
825.3692	619.8103	65220.2	64258.9
825.5138	621.9327	65256.8	64298.7
825.6584	624.0544	65266.6	64318.4
825.803	626.1756	65234.75	64284.2
825.9477	628.2961	65237.3	64280.95
826.0923	630.4159	65210.55	64252.8
826.237	632.5351	65197.75	64237.95
826.3816	634.6537	65274.7	64315.9
826.5263	636.7716	65206.2	64241.85
826.6709	638.8889	65216.15	64248.5
826.8156	641.0056	65214.05	64246.35
826.9603	643.1216	65227.1	64263.6
827.105	645.237	65236.8	64274.75
827.2497	647.3518	65206.45	64251.45
827.3944	649.4659	65206.9	64259.1
827.5391	651.5793	65219.9	64273.1
827.6838	653.6922	65241.15	64289.2
827.8285	655.8043	65180.35	64224.3
827.9733	657.9159	65244.9	64286.2
828.118	660.0268	65133.15	64180.15
828.2627	662.137	65185.5	64225.55
828.4075	664.2466	65191.9	64224.45
828.5522	666.3556	65177.65	64214.45
828.697	668.4639	65190.65	64235.65
828.8418	670.5716	65163.05	64212.15
828.9865	672.6786	65186.95	64229.6
829.1313	674.785	65150.4	64184.25
829.2761	676.8907	65167.55	64207.75
829.4209	678.9958	65185.6	64230.7
829.5657	681.1002	65188.75	64226.95
829.7105	683.204	65149	64180.4
829.8553	685.3072	65132.85	64167.35
830.0001	687.4097	65150.35	64185.3
830.1449	689.5115	65136.65	64169.55
830.2898	691.6127	65150.5	64189.45
830.4346	693.7132	65121.55	64167.6
830.5794	695.8131	65122.85	64138.8
830.7243	697.9123	65122.7	64154.1
830.8691	700.0109	65143.5	64173.9
831.014	702.1089	65091.75	64123.55
831.1588	704.2061	65111.15	64145.25
831.3037	706.3028	65108.4	64142.6
831.4486	708.3987	65115	64147.25
831.5935	710.4941	65105	64140.8
831.7383	712.5887	65136.5	64173.3
831.8832	714.6827	65122.9	64159.9
832.0281	716.7761	65140.45	64179.3
832.173	718.8688	65154.4	64192.4
832.3179	720.9608	65141.05	64172.7
832.4628	723.0522	65139.05	64159.75
832.6077	725.1429	65103.4	64131.75
832.7527	727.233	65166.8	64201
832.8976	729.3224	65070.05	64102.85
833.0425	731.4112	65082.95	64113.5
833.1874	733.4993	65074.3	64107.45
833.3324	735.5867	65061.15	64100.05
833.4773	737.6735	65053.85	64089.3
833.6222	739.7596	65035.35	64065.5
833.7672	741.845	65036.95	64067.6
833.9122	743.9298	65053.05	64085.35
834.0571	746.014	65029.05	64061.75
834.2021	748.0974	64997.3	64022.5
834.347	750.1802	65036.75	64060.85
834.492	752.2624	64977.45	64002.35
834.637	754.3439	64984.2	64014.85
834.782	756.4247	64995.2	64012.85
834.9269	758.5048	64970.15	63998.1
835.0719	760.5843	64991.8	64014.05
835.2169	762.6631	65003.25	64029.45
835.3619	764.7413	65000.1	64029.95
835.5069	766.8188	65008.8	64034.95
835.6519	768.8956	65034.15	64060.55
835.7969	770.9718	65038.75	64068.4
835.9419	773.0473	65030.1	64061.75
836.0869	775.1221	64977.9	64008.1
836.232	777.1962	64960.65	63987.65
836.377	779.2697	64891.6	63916.15
836.522	781.3426	64948.7	63959.65
836.667	783.4147	64956.9	63980.75
836.8121	785.4862	64957	63987.65
836.9571	787.557	64907.85	63932.9
837.1021	789.6271	64938	63957.65
837.2472	791.6966	64875.75	63898.5
837.3922	793.7654	64789.7	63815.25
837.5373	795.8335	64780.65	63808.1
837.6823	797.901	64791.8	63818.35
837.8274	799.9678	64756.25	63779.65
837.9724	802.0339	64754.15	63781.65
838.1175	804.0993	64780.4	63787.85
838.2626	806.1641	64740.75	63761.2
838.4076	808.2282	64708.95	63735.95
838.5527	810.2916	64699.1	63723.95
838.6978	812.3544	64723.3	63751.45
838.8428	814.4164	64639.7	63667.25
838.9879	816.4778	64657.25	63679.35
839.133	818.5385	64666.15	63688.3
839.2781	820.5986	64654.65	63678.95
839.4232	822.658	64669.8	63689.3
839.5682	824.7166	64671.55	63698.05
839.7133	826.7747	64608	63631.9
839.8584	828.832	64645.45	63666.3
840.0035	830.8886	64681.55	63701.85
840.1486	832.9446	64687.8	63709.1
840.2937	834.9999	64592.9	63614.65
840.4388	837.0545	64635.6	63659.6
840.5839	839.1085	64647.85	63673.05
840.729	841.1618	64641.8	63662.5
840.8741	843.2143	64546.35	63571.5
841.0192	845.2662	64546.15	63569.6
841.1643	847.3175	64575.25	63594.85
841.3095	849.368	64445.55	63469.55
841.4546	851.4179	64533.05	63560.25
841.5997	853.467	64450.45	63474.25
841.7448	855.5155	64472.85	63497.4
841.8899	857.5633	64399.25	63424.5
842.0351	859.6105	64348.7	63369.15
842.1802	861.6569	64404.55	63429.45
842.3253	863.7027	64296.1	63317.75
842.4704	865.7478	64326	63345.55
842.6156	867.7922	64304.95	63326.2
842.7607	869.8359	64358.45	63380.9
842.9058	871.8789	64243.25	63260.65
843.0509	873.9212	64337.25	63326.75
843.1961	875.9629	64330.8	63353.6
843.3412	878.0039	64320.1	63341.05
843.4863	880.0441	64269.9	63295.85
843.6315	882.0837	64267.75	63292.45
843.7766	884.1226	64260.6	63283.05
843.9218	886.1609	64224.35	63246.35
844.0669	888.1984	64173.65	63197.8
844.212	890.2352	64258.45	63281.3
844.3572	892.2714	64126.35	63139.6
844.5023	894.3069	64180.65	63201.05
844.6475	896.3416	64105.8	63126.3
844.7926	898.3757	64092.25	63113.75
844.9377	900.4091	63914.9	62936.75
845.0829	902.4418	64144.7	63160.05
845.228	904.4739	63993	63007.55
845.3732	906.5052	64027.2	63044.85
845.5183	908.5358	63930.75	62952.05
845.6635	910.5658	63861.65	62878.35
845.8086	912.595	63856.3	62873.45
845.9538	914.6236	63629.9	62650.4
846.0989	916.6515	63913.85	62932.25
846.2441	918.6786	63613.4	62632.4
846.3892	920.7051	63694.95	62714.7
846.5344	922.7309	63664.4	62683.6
846.6795	924.756	63709.95	62733.1
846.8246	926.7804	63616.45	62637.25
846.9698	928.8041	63405.2	62421.6
847.1149	930.8272	63563.45	62582.4
847.2601	932.8495	63540.75	62560.95
847.4052	934.8711	63374.65	62392.75
847.5504	936.892	63262.6	62281.85
847.6955	938.9123	63320.85	62339.3
847.8407	940.9318	63209.25	62227.6
847.9858	942.9506	63173.4	62195.75
848.131	944.9688	63187.55	62207.6
848.2761	946.9862	62868.75	61889.8
848.4213	949.003	62999.05	62021.6
848.5664	951.019	62680.05	61703.65
848.7115	953.0344	62753.85	61772.85
848.8567	955.0491	62698.9	61718.75
849.0018	957.063	62808.85	61828.95
849.147	959.0763	62848.7	61864.6
849.2921	961.0888	62591.85	61611
849.4373	963.1007	62799	61822.1
849.5824	965.1119	62773.35	61805.25
849.7275	967.1223	62598.7	61638.8
849.8727	969.1321	62797.1	61836.4
850.0178	971.1412	62473.1	61504.1
850.1629	973.1495	62309.8	61335.35
850.3081	975.1572	62511.1	61482.3
850.4532	977.1641	62356.1	61376.1
850.5983	979.1704	62330.3	61350.9
850.7435	981.1759	62317.8	61339.9
850.8886	983.1808	62113.75	61133.15
851.0337	985.1849	62132.55	61142.05
851.1788	987.1884	62202.25	61221.65
851.324	989.1911	62379.8	61404.35
851.4691	991.1932	61793.1	60812.55
851.6142	993.1945	61903.25	60928.15
851.7593	995.1951	62091.95	61117.4
851.9045	997.1951	61734.05	60749.35
852.0496	999.1943	61638.7	60664.9
852.1947	1001.1928	61478.7	60501.1
852.3398	1003.1906	61605	60625.75
852.4849	1005.1877	61017.55	60041.1
852.63	1007.1841	60880.05	59903.9
852.7751	1009.1798	60873.95	59899.85
852.9202	1011.1748	60797.1	59822.7
853.0653	1013.1691	60674.15	59698.1
853.2104	1015.1627	59303.65	58328.25
853.3555	1017.1556	59839.15	58866.7
853.5006	1019.1477	60003.05	59033.4
853.6457	1021.1392	59335.4	58370.95
853.7908	1023.1299	58546.2	57584.5
853.9359	1025.12	59070.75	58114.35
854.081	1027.1093	58660.45	57717.45
854.2261	1029.0979	58628.55	57688.95
854.3712	1031.0859	58541.6	57590.7
854.5163	1033.0731	57944.4	56985.25
854.6613	1035.0596	58157.05	57194.45
854.8064	1037.0454	57976.9	57007.5
854.9515	1039.0304	57624	56652.2
855.0965	1041.0148	56987.45	56017.85
855.2416	1042.9985	57033.5	56062
855.3867	1044.9814	57342.8	56370.75
855.5317	1046.9636	56677.3	55705.9
855.6768	1048.9452	56715.7	55747.45
855.8219	1050.926	56582.75	55614.8
855.9669	1052.9061	56509.15	55539.35
856.112	1054.8855	56523.9	55551.8
856.257	1056.8642	56186.85	55213.75
856.4021	1058.8421	55961.55	54984.8
856.5471	1060.8194	56023.9	55051.6
856.6921	1062.7959	55749.65	54778.2
856.8372	1064.7717	55973.2	54996.75
856.9822	1066.7469	55707.1	54733.65
857.1272	1068.7213	55761.05	54787.55
857.2723	1070.695	55497.35	54528.35
857.4173	1072.6679	55083.4	54114.7
857.5623	1074.6402	55248.4	54272.65
857.7073	1076.6117	54947.45	53969.2
857.8523	1078.5826	54925.75	53952.45
857.9973	1080.5527	54898.1	53920.3
858.1423	1082.5221	54662	53694.1
858.2873	1084.4908	54826.8	53856.45
858.4323	1086.4587	54738.05	53764.2
858.5773	1088.426	54779.4	53804.7
858.7223	1090.3925	54651.9	53677.95
858.8673	1092.3584	54576.25	53605.65
859.0123	1094.3235	54069.3	53098.95
859.1573	1096.2879	53923.65	52956.05
859.3022	1098.2515	53976.5	53005.9
859.4472	1100.2145	53791.55	52819.85
859.5922	1102.1767	53671.9	52697.2
859.7371	1104.1382	53845.05	52875.65
859.8821	1106.099	53779	52807.25
860.027	1108.0591	53736	52764.7
860.172	1110.0185	53272.6	52301.1
860.3169	1111.9771	53715.15	52746.2
860.4619	1113.9351	53257.85	52288.05
860.6068	1115.8923	52788.6	51821.85
860.7517	1117.8488	52303.95	51335.8
860.8967	1119.8045	51796	50826.55
861.0416	1121.7596	51753.9	50786.05
861.1865	1123.7139	51525.25	50555.8
861.3314	1125.6675	51488.5	50520.05
861.4763	1127.6204	51431.3	50462.4
861.6212	1129.5726	51025	50052.45
861.7661	1131.524	51208.2	50239.6
861.911	1133.4748	51155.05	50191.4
862.0559	1135.4248	50833.8	49863.75
862.2008	1137.3741	50872.1	49905.6
862.3457	1139.3226	50670.2	49701.5
862.4905	1141.2705	50575.75	49609.95
862.6354	1143.2176	50324.15	49349.6
862.7803	1145.164	50131.35	49160.85
862.9251	1147.1097	50127	49158.95
863.07	1149.0546	50017.3	49045.85
863.2148	1150.9989	49971.9	49003.8
863.3597	1152.9424	49584.45	48616.8
863.5045	1154.8852	49557.75	48591.7
863.6493	1156.8272	49223.8	48259.35
863.7942	1158.7686	49296.5	48320.3
863.939	1160.7092	48819.9	47848.15
864.0838	1162.6491	48668.9	47698.7
864.2286	1164.5883	48784.95	47817.5
864.3734	1166.5267	48565.7	47596.35
864.5182	1168.4644	48722.2	47754.55
864.663	1170.4014	48692.9	47720.6
864.8078	1172.3377	48924.35	47959.45
864.9526	1174.2732	49077.6	48109.8
865.0974	1176.2081	49049.7	48082.5
865.2421	1178.1421	49043.55	48072.45
865.3869	1180.0755	49297.25	48330.3
865.5317	1182.0082	49067.85	48102.15
865.6764	1183.9401	49014.55	48052.5
865.8212	1185.8713	48586.7	47627.15
865.9659	1187.8017	48366.1	47413.7
866.1106	1189.7315	48073.25	47131.55
866.2554	1191.6605	47646.35	46705.35
866.4001	1193.5888	47309.4	46361.3
866.5448	1195.5163	47058.4	46101.6
866.6895	1197.4432	46829.95	45869.85
866.8342	1199.3693	46703.55	45740.85
866.9789	1201.2947	46469.9	45505
867.1236	1203.2193	46365.3	45402.5
867.2683	1205.1432	46143.95	45178.65
867.413	1207.0664	46039.55	45074.6
867.5576	1208.9889	45904.95	44937.8
867.7023	1210.9106	45836.35	44874.95
867.847	1212.8316	45704.9	44741.2
867.9916	1214.7519	45668.65	44698.8
868.1363	1216.6715	45517.7	44557.9
868.2809	1218.5903	45401.35	44437.2
868.4255	1220.5084	45280.95	44316.75
868.5701	1222.4257	45215.05	44253.5
868.7148	1224.3424	44831.7	43871.25
868.8594	1226.2583	44825.05	43860.9
869.004	1228.1735	44714.25	43753.15
869.1486	1230.0879	44579.5	43618.65
869.2932	1232.0016	44672.35	43710.8
869.4377	1233.9146	44543.2	43580.3
869.5823	1235.8269	44382.15	43420.85
869.7269	1237.7384	44178.3	43216.05
869.8715	1239.6492	43820.2	42857.4
870.016	1241.5592	43689.85	42731.45
870.1606	1243.4686	43448.6	42487.7
870.3051	1245.3772	43281.7	42320.95
870.4496	1247.285	43101.15	42142.3
870.5941	1249.1922	42856.55	41895.95
870.7387	1251.0986	42797.25	41837.05
870.8832	1253.0042	42611.9	41653.25
871.0277	1254.9092	42606.25	41647.9
871.1722	1256.8134	42557.4	41600.05
871.3167	1258.7169	42633.6	41676.2
871.4611	1260.6196	42600.55	41642.7
871.6056	1262.5216	42743.05	41782.6
871.7501	1264.4229	42673	41714.4
871.8945	1266.3234	42827.1	41868.9
872.039	1268.2232	42781.25	41822.95
872.1834	1270.1223	42585.75	41627.4
872.3278	1272.0207	42490.7	41530.55
872.4723	1273.9183	42413.35	41446.25
872.6167	1275.8151	42230	41272
872.7611	1277.7113	42104.7	41145.95
872.9055	1279.6067	41799.75	40843.75
873.0499	1281.5014	41551.1	40591.65
873.1943	1283.3953	41455.8	40495.15
873.3386	1285.2885	41304.95	40347.35
873.483	1287.181	41167.6	40206.3
873.6274	1289.0727	41218.05	40263.55
873.7717	1290.9637	41088.25	40129.6
873.9161	1292.854	41186.05	40226.85
874.0604	1294.7435	41115.15	40156.25
874.2047	1296.6323	41273.25	40315.05
874.349	1298.5204	41366.15	40403.9
874.4933	1300.4077	41514.6	40557.6
874.6376	1302.2943	41524.15	40567.8
874.7819	1304.1802	41560.55	40602.85
874.9262	1306.0653	41331.65	40373.45
875.0705	1307.9497	41099.7	40145.1
875.2147	1309.8333	40908.35	39954
875.359	1311.7162	40816.65	39858.05
875.5032	1313.5984	40844.3	39886.45
875.6475	1315.4798	40805.65	39833.1
875.7917	1317.3605	40806.35	39845.95
875.9359	1319.2405	40918.4	39957.1
876.0801	1321.1197	40769.1	39808.95
876.2243	1322.9982	40533.4	39571.65
876.3685	1324.876	40559.2	39602.15
876.5127	1326.753	40319.15	39363.8
876.6569	1328.6293	40381.35	39422.6
876.801	1330.5048	40362.25	39401.75
876.9452	1332.3796	40172.05	39214.7
877.0893	1334.2537	40123.65	39145.45
877.2335	1336.127	39945.5	38987.4
877.3776	1337.9996	39878.65	38922.85
877.5217	1339.8714	39744.45	38787.65
877.6658	1341.7426	39603.85	38599.75
877.8099	1343.6129	39504.8	38543.45
877.954	1345.4826	39393.5	38432.8
878.0981	1347.3515	39336.9	38373.15
878.2422	1349.2196	39221.4	38263.8
878.3862	1351.087	39211.6	38258.25
878.5303	1352.9537	39150.8	38193.35
878.6743	1354.8197	39184.75	38227.3
878.8184	1356.6849	39318.2	38361.4
878.9624	1358.5493	39247.6	38290.65
879.1064	1360.4131	39237.8	38284.85
879.2504	1362.276	39089.5	38134.85
879.3944	1364.1383	38827.25	37871.25
879.5384	1365.9998	38525.2	37561.7
879.6823	1367.8606	38161.7	37203.6
879.8263	1369.7206	37824.55	36864
879.9702	1371.5799	37536.45	36578
880.1142	1373.4384	37277.75	36323
880.2581	1375.2962	37118.5	36161.15
880.402	1377.1533	36691.7	35737.65
880.5459	1379.0096	36273.7	35324.05
880.6898	1380.8652	36014.4	35061.2
880.8337	1382.7201	35709.75	34754.75
880.9776	1384.5742	35327.4	34372.7
881.1215	1386.4275	35091	34134.65
881.2653	1388.2802	34868.7	33915.55
881.4092	1390.132	34680.55	33726.7
881.553	1391.9832	34572.8	33618.25
881.6968	1393.8336	34254.55	33301.55
881.8406	1395.6832	34203.2	33247.25
881.9844	1397.5322	34032.8	33077.35
882.1282	1399.3803	33949.5	32988.45
882.272	1401.2278	33715.35	32762.55
882.4158	1403.0745	33689.55	32740.6
882.5595	1404.9204	33477.55	32526.7
882.7033	1406.7656	33449	32498.75
882.847	1408.6101	33326.8	32372.6
882.9908	1410.4538	33208.95	32252.45
883.1345	1412.2968	33135.1	32180.75
883.2782	1414.139	33015.4	32063.55
883.4219	1415.9805	33044.4	32094.05
883.5656	1417.8213	33032.3	32057.55
883.7092	1419.6613	32964.45	32015.65
883.8529	1421.5006	33059.3	32108.05
883.9965	1423.3391	33242.65	32291.25
884.1402	1425.1769	33387.85	32435.2
884.2838	1427.0139	33780.9	32828.1
884.4274	1428.8502	34281.85	33329.6
884.571	1430.6858	34676.3	33725.25
884.7146	1432.5206	34876.3	33929.55
884.8582	1434.3547	35064.25	34111.8
885.0018	1436.188	35066.25	34115.7
885.1453	1438.0206	34980.25	34030.2
885.2889	1439.8524	34717.75	33767.7
885.4324	1441.6835	34591.75	33639.8
885.5759	1443.5139	34455.5	33503.2
885.7194	1445.3435	34210.9	33258.4
885.8629	1447.1724	34135.45	33188.15
886.0064	1449.0005	34074.55	33124.95
886.1499	1450.8279	33922.75	32972.95
886.2933	1452.6545	33791.85	32845.6
886.4368	1454.4804	33819	32873.4
886.5802	1456.3056	33691.75	32738.35
886.7237	1458.13	33539.35	32593.6
886.8671	1459.9536	33349.8	32400.45
887.0105	1461.7766	32999.65	32048.55
887.1539	1463.5987	32550.25	31601.45
887.2972	1465.4202	32175.45	31226.7
887.4406	1467.2409	31716.7	30770.35
887.584	1469.0608	31493.05	30546.1
887.7273	1470.88	31152.75	30203.7
887.8706	1472.6984	30954.85	30009.8
888.0139	1474.5161	30628.05	29677.5
888.1572	1476.3331	30432.95	29483.7
888.3005	1478.1493	30305.25	29356.3
888.4438	1479.9648	30171.75	29219.65
888.5871	1481.7795	30019.05	29070.55
888.7303	1483.5935	29941.1	28990.4
888.8736	1485.4067	29820.05	28869.6
889.0168	1487.2192	29792.05	28844.65
889.16	1489.031	29657.65	28706.05
889.3032	1490.842	29551.45	28604.7
889.4464	1492.6522	29502.25	28554.85
889.5896	1494.4618	29381.3	28431.35
889.7327	1496.2705	29291.85	28343.45
889.8759	1498.0785	29202.85	28254.3
890.019	1499.8858	29146.85	28199.95
890.1622	1501.6924	29049.55	28102.45
890.3053	1503.4981	28992.15	28042.2
890.4484	1505.3032	28894.8	27945.15
890.5914	1507.1075	28794.2	27846.3
890.7345	1508.911	28746.85	27801.95
890.8776	1510.7138	28652.85	27709.7
891.0206	1512.5159	28557.55	27611.65
891.1637	1514.3172	28426.65	27480.45
891.3067	1516.1178	28296.2	27351.1
891.4497	1517.9176	28227.95	27274.5
891.5927	1519.7166	28110.65	27164.45
891.7357	1521.515	28071.25	27122.3
891.8786	1523.3126	27954.3	27011.7
892.0216	1525.1094	27893.6	26950.4
892.1645	1526.9055	27760.2	26818.75
892.3074	1528.7008	27634.85	26692.25
892.4503	1530.4954	27471.1	26523.7
892.5932	1532.2893	27431.7	26491.35
892.7361	1534.0824	27283.8	26340.3
892.879	1535.8747	27264.1	26327.9
893.0218	1537.6663	27149	26212
893.1647	1539.4572	27095.25	26157.2
893.3075	1541.2473	27044.45	26100.95
893.4503	1543.0367	26908.65	25970.75
893.5931	1544.8253	26829.1	25884.7
893.7359	1546.6132	26809.05	25863.85
893.8787	1548.4003	26671.8	25724.05
894.0214	1550.1867	26665.1	25717.2
894.1642	1551.9723	26612	25669.65
894.3069	1553.7572	26558.35	25620.15
894.4496	1555.5414	26505.65	25570.6
894.5923	1557.3247	26469.25	25534.05
894.735	1559.1074	26471.2	25541.1
894.8777	1560.8893	26421.3	25490.85
895.0204	1562.6705	26370.5	25438.55
895.163	1564.4509	26389.85	25459.3
895.3056	1566.2305	26369.35	25441.65
895.4482	1568.0094	26441.3	25514.4
895.5908	1569.7876	26462.05	25533.3
895.7334	1571.565	26460.3	25528.9
895.876	1573.3417	26429.3	25496.35
896.0186	1575.1176	26370.75	25441.15
896.1611	1576.8928	26276.65	25347.9
896.3036	1578.6672	26136.5	25216.3
896.4461	1580.4409	25943.95	25024.15
896.5886	1582.2138	25795.35	24867.6
896.7311	1583.986	25625.5	24696
896.8736	1585.7575	25561.2	24634.8
897.0161	1587.5282	25378.35	24455.9
897.1585	1589.2981	25311.75	24391.85
897.3009	1591.0673	25187.25	24267.35
897.4433	1592.8358	25096.75	24174.45
897.5857	1594.6035	25104.75	24175.5
897.7281	1596.3704	25010.85	24082.55
897.8705	1598.1366	24921.7	23998.75
898.0128	1599.9021	24900.55	23976.95
898.1551	1601.6668	24829.5	23903.1
898.2975	1603.4308	24840.45	23913.65
898.4398	1605.194	24842.25	23912.65
898.5821	1606.9564	24867	23949.7
898.7243	1608.7182	24908.85	23997.05
898.8666	1610.4791	24989.1	24082
899.0088	1612.2394	25024.6	24119.7
899.1511	1613.9988	25148.5	24239.15
899.2933	1615.7576	25294.5	24377.3
899.4355	1617.5156	25487.25	24556.95
899.5776	1619.2728	25679.55	24752.3
899.7198	1621.0293	25736.15	24811.85
899.862	1622.785	25705	24784.25
900.0041	1624.54	25542.35	24627.65
900.1462	1626.2942	25398.7	24483.7
900.2883	1628.0477	25064.35	24145.85
900.4304	1629.8005	24799.65	23880.9
900.5725	1631.5525	24559.15	23644.15
900.7145	1633.3037	24353.3	23436.25
900.8566	1635.0542	24168.3	23253.1
900.9986	1636.804	23994.35	23080.1
901.1406	1638.553	23931.9	22963.7
901.2826	1640.3013	23782.35	22867.1
901.4245	1642.0488	23691.4	22772.45
901.5665	1643.7955	23658.85	22744.65
901.7085	1645.5416	23638.2	22722.75
901.8504	1647.2868	23642.45	22726.35
901.9923	1649.0313	23647.45	22729.3
902.1342	1650.7751	23744.25	22826.7
902.2761	1652.5181	23840	22927.85
902.4179	1654.2604	23930.35	23019.15
902.5598	1656.0019	24151.7	23239.2
902.7016	1657.7427	24369.4	23454.65
902.8434	1659.4828	24654.6	23736
902.9852	1661.222	24781.2	23864.1
903.127	1662.9606	24699.8	23782.4
903.2687	1664.6984	24573.35	23653.85
903.4105	1666.4354	24254.15	23330.7
903.5522	1668.1717	23782.5	22857.15
903.6939	1669.9072	23250.9	22327.1
903.8356	1671.642	22877.25	21954.85
903.9773	1673.3761	22513.1	21594.3
904.119	1675.1094	22245.7	21328.25
904.2606	1676.8419	21973.35	21056.35
904.4022	1678.5737	21813.1	20892.4
904.5439	1680.3048	21663.3	20742.2
904.6855	1682.0351	21499.25	20580.6
904.827	1683.7646	21323.35	20404.2
904.9686	1685.4934	21203.1	20284.85
905.1101	1687.2215	21151.5	20234.35
905.2517	1688.9488	20985.9	20071.35
905.3932	1690.6754	20880.35	19964.3
905.5347	1692.4012	20834.25	19914.15
905.6761	1694.1263	20733	19816.6
905.8176	1695.8506	20669	19752.7
905.9591	1697.5742	20588.8	19674
906.1005	1699.297	20530.85	19618.45
906.2419	1701.0191	20363.05	19453.7
906.3833	1702.7404	20271.6	19360.55
906.5246	1704.461	20178.35	19264.1
906.666	1706.1808	20132.05	19217.35
906.8073	1707.8999	20048	19135.6
906.9487	1709.6182	19982.75	19074.05
907.09	1711.3358	19917.95	19010.9
907.2313	1713.0527	19859.1	18955.35
907.3725	1714.7688	19757.35	18846.75
907.5138	1716.4841	19680.25	18769.55
907.655	1718.1987	19678.6	18761.75
907.7962	1719.9126	19576.9	18669.45
907.9374	1721.6257	19520.2	18613.55
908.0786	1723.338	19492.9	18589.95
908.2198	1725.0496	19356.65	18447.15
908.3609	1726.7605	19315.8	18405.75
908.502	1728.4706	19232.4	18325.25
908.6431	1730.18	19110.3	18201.35
908.7842	1731.8886	19098.5	18194.05
908.9253	1733.5964	19050.8	18123.5
909.0664	1735.3036	18966.75	18057.5
909.2074	1737.0099	18921.45	18016.6
909.3484	1738.7156	18875.6	17970.55
909.4894	1740.4204	18791.35	17884.75
909.6304	1742.1246	18782.35	17874.35
909.7714	1743.8279	18723.8	17819.9
909.9123	1745.5306	18711.2	17808.1
910.0532	1747.2325	18616.45	17711.65
910.1941	1748.9336	18591.3	17683.75
910.335	1750.634	18463.8	17552.45
910.4759	1752.3336	18442.9	17537.35
910.6168	1754.0325	18416.2	17515.75
910.7576	1755.7307	18328.7	17427.15
910.8984	1757.4281	18375.5	17470
911.0392	1759.1247	18322.55	17403.95
911.18	1760.8206	18256.1	17341.8
911.3208	1762.5158	18203.3	17289.45
911.4615	1764.2102	18148.8	17242.15
911.6022	1765.9039	18064.35	17158.4
911.7429	1767.5968	18051.95	17148
911.8836	1769.289	17988.35	17087.05
912.0243	1770.9804	17958.25	17051.15
912.1649	1772.6711	17945.7	17036.7
912.3056	1774.361	17885.6	16975.2
912.4462	1776.0502	17851.45	16944.35
912.5868	1777.7386	17791	16882.25
912.7274	1779.4263	17760.75	16854.55
912.8679	1781.1132	17707.75	16805.35
913.0084	1782.7994	17643.3	16742.65
913.149	1784.4849	17622.95	16720.75
913.2895	1786.1696	17539.1	16630.65
913.4299	1787.8535	17495.85	16594.85
913.5704	1789.5367	17467.35	16567.5
913.7108	1791.2192	17421.25	16521.95
913.8513	1792.9009	17346.75	16418.45
913.9917	1794.5818	17324.75	16417.5
914.132	1796.2621	17258.85	16352.65
914.2724	1797.9415	17214.85	16308.65
914.4128	1799.6202	17189.55	16285.6
914.5531	1801.2982	17162.25	16253.95
914.6934	1802.9755	17115.25	16206.8
914.8337	1804.6519	17077.3	16173.4
914.9739	1806.3277	16978.05	16075.7
915.1142	1808.0027	16935.35	16037.6
915.2544	1809.6769	16907.05	16009.6
915.3946	1811.3504	16874.55	15974.75
915.5348	1813.0231	16846.05	15946.8
915.675	1814.6951	16801.9	15901.5
915.8151	1816.3664	16817.1	15913.5
915.9553	1818.0369	16752.4	15849.05
916.0954	1819.7067	16673.15	15768.05
916.2355	1821.3757	16646.8	15742.35
916.3755	1823.044	16620.85	15714.55
916.5156	1824.7115	16589.75	15683.4
916.6556	1826.3783	16549.25	15644.55
916.7956	1828.0443	16475.45	15571.25
916.9356	1829.7096	16450.4	15548
917.0756	1831.3741	16410.7	15505.5
917.2155	1833.0379	16362.25	15461.4
917.3555	1834.701	16291.7	15390.75
917.4954	1836.3633	16268.6	15369.55
917.6353	1838.0248	16241.9	15340.95
917.7751	1839.6856	16220	15319.55
917.915	1841.3457	16192.35	15290.05
918.0548	1843.005	16131	15227.35
918.1946	1844.6636	16117.8	15217.05
918.3344	1846.3214	16070.8	15169.75
918.4742	1847.9785	16058.2	15157.75
918.6139	1849.6349	15996.35	15090.85
918.7537	1851.2904	15983.05	15066.75
918.8934	1852.9453	15903.75	14996.45
919.0331	1854.5994	15869.75	14959.8
919.1727	1856.2528	15870.8	14963.3
919.3124	1857.9054	15849.1	14944.2
919.452	1859.5572	15815.45	14914.2
919.5916	1861.2083	15783.15	14879.45
919.7312	1862.8587	15801.35	14896.2
919.8708	1864.5084	15751.4	14844.35
920.0103	1866.1572	15698.5	14791.35
920.1498	1867.8054	15629.2	14721.75
920.2893	1869.4528	15591.05	14683.4
920.4288	1871.0994	15526.25	14617.95
920.5683	1872.7453	15521.15	14615.1
920.7077	1874.3905	15484.4	14571.15
920.8471	1876.0349	15407.3	14501.5
920.9865	1877.6786	15409.55	14504.15
921.1259	1879.3215	15414.75	14510
921.2653	1880.9637	15361.45	14458.85
921.4046	1882.6051	15287.3	14384.8
921.5439	1884.2458	15283.25	14379.4
921.6832	1885.8858	15229.95	14325.8
921.8225	1887.525	15183.25	14277.75
921.9617	1889.1634	15138.05	14231.4
922.101	1890.8011	15081.9	14176.95
922.2402	1892.4381	15032.7	14127.15
922.3794	1894.0743	15038.7	14135.45
922.5185	1895.7098	14969.1	14064.75
922.6577	1897.3446	14949	14044.4
922.7968	1898.9786	14937.4	14029.6
922.9359	1900.6118	14867.8	13964.65
923.075	1902.2443	14797.05	13892.4
923.214	1903.8761	14756.85	13851.75
923.3531	1905.5071	14709.1	13806.95
923.4921	1907.1374	14668.25	13765.2
923.6311	1908.7669	14647.55	13746.05
923.77	1910.3957	14603.95	13703.65
923.909	1912.0237	14531.3	13630.2
924.0479	1913.651	14475.75	13573.45
924.1868	1915.2776	14452.4	13552.5
924.3257	1916.9034	14382.9	13481.3
924.4646	1918.5285	14344.2	13443.45
924.6034	1920.1528	14284.4	13383
924.7422	1921.7764	14272.65	13369.15
924.881	1923.3992	14179.85	13276.3
925.0198	1925.0213	14117.2	13215.05
925.1586	1926.6427	14062.45	13164
925.2973	1928.2633	14105.35	13132.8
925.436	1929.8832	14018.05	13114.85
925.5747	1931.5023	13955.9	13053.1
925.7134	1933.1207	13916.25	13015.15
925.852	1934.7383	13913.5	13012.9
925.9906	1936.3552	13843.85	12942.3
926.1292	1937.9714	13793.15	12892.8
926.2678	1939.5868	13744.4	12841.5
926.4064	1941.2015	13654.8	12752.35
926.5449	1942.8154	13633.6	12730.7
926.6834	1944.4286	13581.4	12678.15
926.8219	1946.041	13523	12601.7
926.9604	1947.6528	13454	12546.2
927.0988	1949.2637	13441.9	12539.75
927.2372	1950.8739	13427.15	12526.15
927.3756	1952.4834	13355.55	12454.95
927.514	1954.0921	13336.85	12435
927.6523	1955.7001	13286.6	12384.75
927.7907	1957.3074	13235.55	12339.45
927.929	1958.9139	13189.8	12294.35
928.0673	1960.5197	13162.2	12260.3
928.2055	1962.1247	13105.65	12205.45
928.3438	1963.729	13054.85	12159.4
928.482	1965.3325	13009.5	12088.95
928.6202	1966.9353	12935.25	12041.75
928.7584	1968.5374	12892.9	11996.6
928.8965	1970.1387	12879.2	11981.95
929.0346	1971.7393	12822.15	11926.05
929.1727	1973.3392	12774.3	11878.3
929.3108	1974.9383	12721.5	11828.45
929.4489	1976.5366	12686.3	11792.1
929.5869	1978.1342	12657.6	11763.95
929.7249	1979.7311	12628.25	11734.5
929.8629	1981.3273	12606.6	11712.15
930.0009	1982.9227	12541.6	11649.45
930.1388	1984.5173	12518.05	11625.85
930.2767	1986.1112	12426.55	11535.1
930.4146	1987.7044	12427.25	11535.15
930.5525	1989.2968	12405	11508.85
930.6904	1990.8885	12354.4	11459.4
930.8282	1992.4795	12337.1	11444.9
930.966	1994.0697	12298.05	11405.9
931.1038	1995.6592	12232.4	11341.6
931.2415	1997.2479	12195.45	11301
931.3793	1998.8359	12178.5	11289.6
931.517	2000.4232	12135.4	11246.45
931.6547	2002.0097	12089.45	11204.5
931.7923	2003.5955	12018.5	11131.55
931.93	2005.1805	12028.25	11137
932.0676	2006.7648	11978.25	11088.95
932.2052	2008.3484	11962.75	11074.6
932.3427	2009.9312	11969.65	11082.05
932.4803	2011.5133	11904.9	11019.65
932.6178	2013.0946	11862.6	10975.05
932.7553	2014.6752	11835.9	10948.45
932.8928	2016.2551	11805.7	10916.7
933.0302	2017.8342	11740.05	10850.65
933.1676	2019.4126	11686.65	10799.25
933.305	2020.9902	11657.8	10772.25
933.4424	2022.5672	11639.6	10753.05
933.5798	2024.1433	11624.3	10737.65
933.7171	2025.7188	11555.3	10673
933.8544	2027.2935	11564.15	10679.15
933.9917	2028.8674	11511.75	10629
934.129	2030.4406	11465.7	10582.65
934.2662	2032.0131	11382.3	10500.7
934.4034	2033.5849	11360.9	10473.3
934.5406	2035.1559	11373.3	10488.6
934.6778	2036.7261	11370.9	10484.4
934.8149	2038.2957	11307	10417.9
934.952	2039.8645	11285.3	10394.45
935.0891	2041.4325	11310	10416.55
935.2262	2042.9998	11226.4	10339.55
935.3632	2044.5664	11212.5	10325.3
935.5002	2046.1323	11153.05	10269.5
935.6372	2047.6974	11131.75	10248.9
935.7742	2049.2617	11094.5	10210.6
935.9111	2050.8254	11113.55	10221.7
936.048	2052.3883	11077.5	10185.85
936.1849	2053.9504	11024.25	10131.75
936.3218	2055.5118	10999	10109.25
936.4586	2057.0725	10951.5	10059.25
936.5955	2058.6325	10933.75	10046.8
936.7323	2060.1917	10901.2	10015.1
936.869	2061.7502	10891.55	10003.65
937.0058	2063.3079	10827.9	9945.75
937.1425	2064.8649	10788.95	9899.7
937.2792	2066.4212	10785.25	9899
937.4159	2067.9767	10711.75	9823.05
937.5525	2069.5315	10687.05	9798.3
937.6891	2071.0856	10624	9735.95
937.8257	2072.6389	10612.45	9725.65
937.9623	2074.1915	10551.75	9667.7
938.0989	2075.7433	10484.75	9597
938.2354	2077.2945	10466.9	9580.5
938.3719	2078.8448	10449.9	9558.4
938.5084	2080.3945	10431.2	9540.5
938.6448	2081.9434	10412.45	9521
938.7812	2083.4916	10378.9	9485.65
938.9176	2085.039	10369.6	9474.35
939.054	2086.5857	10337.9	9439.25
939.1903	2088.1317	10311.15	9414.75
939.3267	2089.677	10294.75	9396.1
939.463	2091.2215	10267.65	9371.15
939.5992	2092.7652	10223.9	9325.85
939.7355	2094.3083	10198.05	9300.95
939.8717	2095.8506	10177.05	9284.2
940.0079	2097.3921	10179.15	9288.85
940.1441	2098.933	10148.05	9258.5
940.2802	2100.4731	10120.8	9228.15
940.4163	2102.0124	10106.1	9206.6
940.5524	2103.5511	10074.6	9183.25
940.6885	2105.089	10062.45	9168.45
940.8245	2106.6261	10013.45	9123.9
940.9606	2108.1626	9986.95	9093.7
941.0965	2109.6983	9974.8	9053.95
941.2325	2111.2332	9941.5	9048.5
941.3684	2112.7675	9893.6	8997.8
941.5044	2114.301	9869.35	8972.75
941.6403	2115.8337	9875.45	8981.75
941.7761	2117.3657	9855.4	8963.4
941.912	2118.897	9815.6	8922.75
942.0478	2120.4276	9776.55	8877.35
942.1835	2121.9575	9734.05	8839.35
942.3193	2123.4866	9719.1	8819.9
942.455	2125.0149	9699.3	8801.7
942.5907	2126.5426	9651.4	8763.35
942.7264	2128.0695	9613.7	8720.85
942.8621	2129.5956	9608.8	8723.45
942.9977	2131.1211	9615.2	8724.1
943.1333	2132.6458	9577.6	8684.4
943.2689	2134.1698	9570.2	8676.3
943.4044	2135.693	9548.7	8649.25
943.54	2137.2155	9512.2	8615.8
943.6755	2138.7373	9476.45	8585.35
943.8109	2140.2584	9437.9	8550.1
943.9464	2141.7787	9422.9	8532.6
944.0818	2143.2983	9375.5	8491.45
944.2172	2144.8171	9330.45	8445.95
944.3526	2146.3353	9294	8405.85
944.4879	2147.8527	9279.15	8390.15
944.6232	2149.3693	9298.65	8405.25
944.7585	2150.8853	9260.05	8364.95
944.8938	2152.4005	9203.2	8308.85
945.029	2153.9149	9215.7	8321.4
945.1642	2155.4287	9259.6	8259.3
945.2994	2156.9417	9153.95	8260.5
945.4346	2158.454	9127.65	8234.7
945.5697	2159.9655	9087.15	8198.45
945.7048	2161.4764	9106.7	8216.95
945.8399	2162.9865	9053.7	8164.35
945.9749	2164.4958	9031.1	8141
946.1099	2166.0045	8975.1	8082.7
946.2449	2167.5124	8970.15	8078.45
946.3799	2169.0195	8930.3	8038.3
946.5148	2170.526	8952.2	8058.55
946.6498	2172.0317	8898.1	8006
946.7846	2173.5367	8892.15	7999.45
946.9195	2175.0409	8858.05	7967.65
947.0543	2176.5445	8839.3	7946.1
947.1891	2178.0473	8799.95	7902.8
947.3239	2179.5494	8783.9	7885.5
947.4587	2181.0507	8746.15	7851.4
947.5934	2182.5513	8722.15	7829.35
947.7281	2184.0512	8711.45	7817.85
947.8628	2185.5504	8666.65	7774.85
947.9974	2187.0488	8628.7	7739.4
948.132	2188.5465	8599.55	7711.9
948.2666	2190.0435	8579.4	7689
948.4012	2191.5397	8574.3	7679.8
948.5357	2193.0353	8538.4	7645.75
948.6702	2194.5301	8516.2	7620.75
948.8047	2196.0241	8474.55	7576
948.9392	2197.5175	8448.05	7550.25
949.0736	2199.0101	8420.15	7519.85
949.208	2200.502	8376.3	7484.15
949.3424	2201.9931	8356.05	7467.15
949.4767	2203.4835	8292.3	7402.05
949.611	2204.9733	8299.45	7393.4
949.7453	2206.4622	8281.1	7393.95
949.8796	2207.9505	8239.95	7349.85
950.0138	2209.438	8202.55	7317
950.148	2210.9248	8176.2	7287.65
950.2822	2212.4109	8154.45	7263.15
950.4164	2213.8962	8160.4	7263.2
950.5505	2215.3809	8127.9	7229.7
950.6846	2216.8648	8128.7	7230
950.8186	2218.3479	8106.45	7201.2
950.9527	2219.8304	8063.35	7161.9
951.0867	2221.3121	8039.1	7137.8
951.2207	2222.7931	7981.2	7083.85
951.3546	2224.2733	7969.95	7074.45
951.4886	2225.7529	7948.45	7053.8
951.6225	2227.2317	7941.85	7047.95
951.7563	2228.7098	7897.95	7008.65
951.8902	2230.1872	7864.8	6974.75
952.024	2231.6638	7829.15	6939.95
952.1578	2233.1397	7821.35	6930.65
952.2916	2234.6149	7788.7	6901.2
952.4253	2236.0894	7790.8	6899.25
952.559	2237.5632	7763.9	6871.25
952.6927	2239.0362	7733.05	6840.9
952.8263	2240.5085	7697.6	6805.85
952.9599	2241.9801	7667.7	6774.5
953.0935	2243.4509	7643.65	6748.25
953.2271	2244.921	7606.35	6708.45
953.3606	2246.3904	7588.2	6689.65
953.4941	2247.8591	7580.1	6685.05
953.6276	2249.3271	7562.25	6666.7
953.7611	2250.7943	7523.9	6628.4
953.8945	2252.2608	7491.3	6597.45
954.0279	2253.7266	7477.95	6586.3
954.1612	2255.1917	7473.85	6580.75
954.2946	2256.656	7449.3	6556.7
954.4279	2258.1197	7399.95	6510.05
954.5612	2259.5826	7390.15	6498.35
954.6944	2261.0447	7395.7	6501.35
954.8276	2262.5062	7346.95	6452.3
954.9608	2263.9669	7341.7	6445.05
955.094	2265.4269	7329.85	6434.35
955.2271	2266.8862	7304.8	6414.5
955.3602	2268.3448	7286.8	6395.7
955.4933	2269.8026	7288.05	6397.95
955.6264	2271.2598	7252.4	6363.25
955.7594	2272.7162	7212.35	6318.8
955.8924	2274.1719	7236.55	6343.15
956.0253	2275.6268	7198.8	6302.45
956.1583	2277.0811	7181.95	6286.35
956.2912	2278.5346	7152.6	6261.2
956.4241	2279.9874	7148.65	6258.5
956.5569	2281.4395	7141.95	6253.25
956.6897	2282.8908	7090.2	6193.15
956.8225	2284.3414	7095.65	6202
956.9553	2285.7914	7048	6155.95
957.088	2287.2406	7041.25	6144
957.2207	2288.689	7027.15	6131.75
957.3534	2290.1368	6998.95	6099.85
957.486	2291.5838	6980.95	6079.15
957.6186	2293.0302	6999.6	6097.65
957.7512	2294.4758	6936.3	6037.6
957.8838	2295.9206	6913.9	6018
958.0163	2297.3648	6908.15	6016.1
958.1488	2298.8082	6883.35	5990.1
958.2813	2300.251	6863.85	5966.6
958.4137	2301.693	6832.95	5934.3
958.5461	2303.1343	6817.7	5921.3
958.6785	2304.5748	6807.95	5914.5
958.8108	2306.0147	6791.65	5899.2
958.9432	2307.4538	6765.05	5871.15
959.0754	2308.8922	6738.5	5850.15
959.2077	2310.3299	6726.5	5837.3
959.3399	2311.7669	6696.45	5804.95
959.4721	2313.2031	6694.1	5799.6
959.6043	2314.6387	6660.3	5765.7
959.7365	2316.0735	6636.65	5738.65
959.8686	2317.5076	6633.4	5738.85
960.0006	2318.941	6622.55	5726.05
960.1327	2320.3737	6596.55	5702.1
960.2647	2321.8056	6592.05	5695.3
960.3967	2323.2369	6554.8	5661.5
960.5287	2324.6674	6521.3	5625.75
960.6606	2326.0972	6507.95	5614.25
960.7925	2327.5263	6498.05	5602.1
960.9244	2328.9547	6476.15	5578.55
961.0562	2330.3823	6473.8	5576.05
961.1881	2331.8092	6467.9	5567.55
961.3198	2333.2355	6415.55	5518
961.4516	2334.661	6408.9	5511.8
961.5833	2336.0858	6402.9	5506.6
961.715	2337.5098	6386.1	5490.2
961.8467	2338.9332	6369.1	5473.95
961.9783	2340.3558	6352.65	5456.75
962.1099	2341.7778	6326.5	5435.55
962.2415	2343.199	6307.85	5414.75
962.373	2344.6195	6280.05	5386.4
962.5045	2346.0393	6264.2	5372.25
962.636	2347.4583	6260.7	5366.1
962.7675	2348.8767	6234.1	5338.5
962.8989	2350.2943	6217.95	5319.5
963.0303	2351.7113	6218.35	5317.75
963.1617	2353.1275	6195.7	5296.25
963.293	2354.543	6172.6	5267.25
963.4243	2355.9578	6151.5	5256
963.5556	2357.3718	6123	5231.05
963.6868	2358.7852	6089.45	5196.45
963.818	2360.1978	6070.4	5176.05
963.9492	2361.6098	6070.55	5178.6
964.0803	2363.021	6039.95	5140.25
964.2114	2364.4315	6057.8	5163.15
964.3425	2365.8413	6026.75	5131.25
964.4736	2367.2504	6004.6	5113.65
964.6046	2368.6587	5965.75	5073.35
964.7356	2370.0664	5949.65	5058.3
964.8666	2371.4733	5923.95	5030.9
964.9975	2372.8795	5919.95	5027.05
965.1284	2374.285	5888.2	4993.05
965.2593	2375.6899	5880.35	4987.95
965.3901	2377.0939	5843.2	4950.6
965.5209	2378.4973	5819.2	4927.75
965.6517	2379.9	5810.25	4916.45
965.7825	2381.3019	5802.75	4911.6
965.9132	2382.7032	5752.35	4862.35
966.0439	2384.1037	5756.6	4869
966.1745	2385.5035	5731.95	4841.2
966.3051	2386.9027	5703.85	4814.05
966.4357	2388.3011	5690.95	4798.2
966.5663	2389.6987	5682.7	4791.2
966.6968	2391.0957	5665	4774.75
966.8273	2392.492	5643.2	4754.6
966.9578	2393.8876	5608.8	4718.55
967.0882	2395.2824	5595.05	4702.1
967.2186	2396.6765	5594.7	4699.9
967.349	2398.07	5563.4	4669.6
967.4793	2399.4627	5553.95	4660.2
967.6097	2400.8547	5550.5	4654.8
967.7399	2402.246	5507.8	4607.25
967.8702	2403.6366	5477.65	4584.9
968.0004	2405.0265	5479.55	4586.4
968.1306	2406.4156	5455.9	4562
968.2607	2407.8041	5431.85	4536.9
968.3909	2409.1918	5425.4	4531
968.521	2410.5789	5397.15	4503.6
968.651	2411.9652	5381.35	4486.7
968.781	2413.3508	5388.95	4493.6
968.911	2414.7358	5369.8	4475.1
969.041	2416.12	5335.35	4443.25
969.1709	2417.5035	5316.2	4424.35
969.3008	2418.8863	5311.05	4420.4
969.4307	2420.2684	5277.95	4386
969.5606	2421.6497	5260.4	4366.9
969.6904	2423.0304	5223.75	4331.1
969.8201	2424.4104	5220.05	4327.55
969.9499	2425.7896	5196.05	4302.8
970.0796	2427.1682	5208.9	4317.3
970.2093	2428.546	5183.5	4289.95
970.3389	2429.9232	5182.5	4286.7
970.4685	2431.2996	5159	4266.05
970.5981	2432.6753	5162.55	4268.45
970.7277	2434.0503	5128.9	4236.25
970.8572	2435.4246	5095.3	4204.2
970.9867	2436.7982	5069.7	4174.5
971.1161	2438.1711	5095.15	4204.3
971.2456	2439.5433	5068.2	4172.4
971.375	2440.9148	5048.15	4149.3
971.5043	2442.2856	5033.5	4141.4
971.6336	2443.6557	5019.1	4124.15
971.7629	2445.025	4997.25	4104.55
971.8922	2446.3937	4982.8	4087.9
972.0214	2447.7617	4988.05	4091.6
972.1506	2449.1289	4978.35	4085.05
972.2798	2450.4955	4960.7	4063.15
972.4089	2451.8613	4935.35	4044
972.538	2453.2265	4931.7	4038.4
972.6671	2454.5909	4910.4	4016.9
972.7961	2455.9546	4909.7	4017.55
972.9251	2457.3177	4882.9	3990.45
973.0541	2458.68	4870.6	3975.4
973.1831	2460.0416	4887.9	3994.1
973.312	2461.4025	4855.65	3961.45
973.4408	2462.7627	4857.75	3952.9
973.5697	2464.1222	4824.9	3934.9
973.6985	2465.4811	4814.75	3922.25
973.8273	2466.8392	4800.5	3909.15
973.956	2468.1966	4787.95	3894.45
974.0847	2469.5533	4790.1	3895.3
974.2134	2470.9093	4789.5	3896.5
974.3421	2472.2645	4770.35	3877.5
974.4707	2473.6191	4744.45	3854.3
974.5993	2474.973	4745.6	3851.8
974.7278	2476.3262	4717.45	3823.5
974.8563	2477.6787	4695.05	3802.7
974.9848	2479.0305	4670.85	3779.85
975.1132	2480.3816	4676.4	3780.9
975.2417	2481.7319	4659.8	3767.35
975.37	2483.0816	4646.45	3751.75
975.4984	2484.4306	4628.85	3735.4
975.6267	2485.7789	4601.5	3709.9
975.755	2487.1264	4592.25	3699.95
975.8833	2488.4733	4567.7	3678.55
976.0115	2489.8195	4580.05	3672.6
976.1397	2491.165	4549.2	3652.85
976.2678	2492.5097	4538.45	3643.95
976.3959	2493.8538	4504.15	3613.8
976.524	2495.1972	4499	3607.4
976.6521	2496.5398	4467.45	3572.95
976.7801	2497.8818	4473.45	3578.1
976.9081	2499.2231	4458.2	3562.25
977.036	2500.5637	4449.05	3553.1
977.164	2501.9035	4439.25	3544.4
977.2918	2503.2427	4443.4	3545.7
977.4197	2504.5812	4415.2	3520
977.5475	2505.919	4404.9	3509.7
977.6753	2507.256	4397.05	3502.8
977.8031	2508.5924	4374.4	3482.6
977.9308	2509.9281	4373.55	3474.2
978.0585	2511.2631	4335.15	3444.1
978.1861	2512.5974	4337.75	3446.1
978.3137	2513.9309	4325.85	3436
978.4413	2515.2638	4344.95	3429.65
978.5689	2516.596	4304.8	3412.6
978.6964	2517.9275	4297.55	3403.75
978.8239	2519.2583	4271.2	3376.2
978.9513	2520.5884	4254.35	3358.45
979.0788	2521.9178	4252.35	3358.85
979.2062	2523.2465	4245.5	3355.5
979.3335	2524.5745	4211.65	3324.3
979.4608	2525.9018	4213.65	3321.95
979.5881	2527.2284	4201.25	3309.45
979.7154	2528.5543	4195.25	3302.45
979.8426	2529.8796	4179.8	3285.3
979.9698	2531.2041	4173.85	3280.65
980.0969	2532.5279	4151.95	3262.3
980.224	2533.851	4154.75	3261.4
980.3511	2535.1735	4145.6	3252.8
980.4781	2536.4952	4136.65	3242.95
980.6052	2537.8163	4122	3227.3
980.7321	2539.1366	4115.7	3220.65
980.8591	2540.4562	4103.55	3208.95
980.986	2541.7752	4107.4	3213.15
981.1129	2543.0935	4097.1	3202.2
981.2397	2544.411	4079.1	3183.5
981.3665	2545.7279	4080.3	3186.6
981.4933	2547.0441	4082.5	3189.55
981.62	2548.3596	4067.95	3171.45
981.7467	2549.6744	4055.3	3161.75
981.8734	2550.9885	4052.75	3158.9
982.0001	2552.3019	4032.85	3137.45
982.1267	2553.6146	4029.65	3136.5
982.2532	2554.9266	4002.05	3109.85
982.3798	2556.2379	3992.55	3097.8
982.5063	2557.5485	3986.25	3096.8
982.6327	2558.8585	3988.4	3086.15
982.7592	2560.1677	3981.45	3085.75
982.8856	2561.4762	3944.55	3049.7
983.0119	2562.7841	3949.4	3049.45
983.1383	2564.0913	3949.85	3056.05
983.2646	2565.3977	3949.4	3054.95
983.3908	2566.7035	3930.15	3036
983.517	2568.0086	3914.05	3018.2
983.6432	2569.313	3909.4	3014.4
983.7694	2570.6167	3905.75	3007.7
983.8955	2571.9197	3912.2	3019.8
984.0216	2573.222	3901.45	3005.75
984.1476	2574.5236	3880.3	2983.9
984.2737	2575.8246	3889.4	2992.7
984.3996	2577.1248	3879.35	2983.75
984.5256	2578.4244	3874.65	2980.55
984.6515	2579.7232	3856.8	2962.65
984.7774	2581.0214	3876.15	2950.35
984.9032	2582.3189	3854.2	2962.95
985.029	2583.6157	3856.35	2955.2
985.1548	2584.9118	3834.4	2940.8
985.2806	2586.2072	3819.6	2927.1
985.4063	2587.5019	3819.7	2925.65
985.5319	2588.7959	3810.85	2916.9
985.6576	2590.0893	3806.85	2911.9
985.7832	2591.3819	3797.5	2903.4
985.9087	2592.6739	3782.25	2887.2
986.0343	2593.9652	3786.75	2890.5
986.1597	2595.2557	3771.85	2877.55
986.2852	2596.5456	3759.45	2861.25
986.4106	2597.8348	3749.6	2857.1
986.536	2599.1234	3749.65	2858.6
986.6614	2600.4112	3726.45	2832.6
986.7867	2601.6983	3720.35	2824.25
986.912	2602.9848	3710.4	2815.4
987.0372	2604.2705	3713.75	2812.45
987.1624	2605.5556	3686.6	2792.1
987.2876	2606.84	3673.65	2782.2
987.4128	2608.1237	3659.05	2762.05
987.5379	2609.4067	3649.6	2755.85
987.6629	2610.689	3648.8	2746.4
987.788	2611.9707	3641.45	2743
987.913	2613.2516	3622.05	2720.85
988.0379	2614.5319	3612.85	2717.35
988.1629	2615.8115	3608.2	2715.9
988.2878	2617.0903	3602.35	2706.8
988.4126	2618.3685	3587.8	2693.15
988.5375	2619.6461	3580.6	2688.85
988.6622	2620.9229	3561.9	2669.6
988.787	2622.199	3550.5	2657.55
988.9117	2623.4745	3556.85	2661.7
989.0364	2624.7493	3544.1	2653.2
989.161	2626.0234	3523.55	2630.75
989.2857	2627.2968	3520.8	2628.95
989.4102	2628.5695	3501.8	2608.1
989.5348	2629.8415	3486.2	2593.55
989.6593	2631.1128	3483.9	2589.95
989.7837	2632.3835	3476.35	2583.65
989.9082	2633.6535	3460.85	2570.2
990.0326	2634.9228	3453.75	2559.95
990.1569	2636.1914	3450.1	2558.15
990.2812	2637.4593	3452.85	2558.55
990.4055	2638.7265	3415.25	2520.65
990.5298	2639.9931	3428.45	2534.95
990.654	2641.259	3422.3	2528.3
990.7782	2642.5242	3407.6	2514.7
990.9023	2643.7887	3404.9	2511.8
991.0264	2645.0525	3389.15	2497
991.1505	2646.3156	3388.05	2480.55
991.2745	2647.5781	3357.95	2467.1
991.3985	2648.8398	3359.6	2467.15
991.5225	2650.1009	3347.5	2428.45
991.6464	2651.3613	3324.6	2431
991.7703	2652.6211	3339.95	2445.65
991.8942	2653.8801	3327.3	2435.5
992.018	2655.1385	3322.85	2430
992.1418	2656.3961	3307.45	2416.75
992.2655	2657.6531	3313.9	2419.15
992.3892	2658.9094	3304.55	2412.1
992.5129	2660.1651	3289.75	2397.6
992.6366	2661.42	3287.3	2394.9
992.7602	2662.6743	3294.95	2399.45
992.8837	2663.9279	3276.3	2384.35
993.0073	2665.1808	3278.7	2387.15
993.1307	2666.433	3259.9	2366.15
993.2542	2667.6846	3256.85	2365.85
993.3776	2668.9354	3261.9	2367.3
993.501	2670.1856	3260.45	2368.4
993.6244	2671.4351	3254.65	2361.3
993.7477	2672.6839	3243.55	2348.05
993.8709	2673.9321	3226.85	2335.5
993.9942	2675.1795	3228.55	2335.9
994.1174	2676.4263	3229.6	2339.5
994.2405	2677.6724	3217.15	2325.4
994.3637	2678.9179	3209.65	2316.35
994.4868	2680.1626	3202.4	2311.25
994.6098	2681.4067	3198.25	2305.6
994.7328	2682.6501	3196.85	2303.5
994.8558	2683.8928	3190	2296.9
994.9788	2685.1348	3175.9	2285.65
995.1017	2686.3761	3152.75	2262.8
995.2245	2687.6168	3148	2255.75
995.3474	2688.8568	3152.2	2261.85
995.4702	2690.0961	3138.6	2246.65
995.5929	2691.3348	3128.25	2237.55
995.7156	2692.5727	3114.55	2221.9
995.8383	2693.81	3109.05	2215.65
995.961	2695.0466	3093.7	2203.2
996.0836	2696.2826	3094.95	2202.75
996.2062	2697.5178	3094.7	2199.4
996.3287	2698.7524	3072	2180.6
996.4512	2699.9863	3074	2182.95
996.5737	2701.2195	3069.25	2178.4
996.6961	2702.452	3071.6	2179.6
996.8185	2703.6839	3057.6	2165.9
996.9408	2704.9151	3061.95	2171
997.0631	2706.1456	3065.45	2173.35
997.1854	2707.3755	3060.8	2168.5
997.3077	2708.6046	3054.25	2159.55
997.4299	2709.8331	3055.85	2162.2
997.552	2711.0609	3046.45	2155.45
997.6742	2712.2881	3045.1	2155.35
997.7963	2713.5145	3049.6	2155.3
997.9183	2714.7403	3042.35	2152.5
998.0403	2715.9654	3066.45	2175.4
998.1623	2717.1899	3071.75	2166.2
998.2842	2718.4136	3062.45	2173.45
998.4062	2719.6367	3052.95	2161.35
998.528	2720.8591	3056.75	2159.3
998.6498	2722.0809	3064.15	2172.85
998.7716	2723.3019	3060.65	2167.5
998.8934	2724.5223	3052.25	2159
999.0151	2725.7421	3060	2168.9
999.1368	2726.9611	3054.75	2162.2
999.2584	2728.1795	3049.85	2152.65
999.38	2729.3972	3029.8	2139.9
999.5016	2730.6142	3031.35	2134.6
999.6231	2731.8306	2993.45	2102.9
999.7446	2733.0462	2986.4	2093.9
999.8661	2734.2612	2969	2074.35
999.9875	2735.4756	2933.65	2039.65
1000.1089	2736.6892	2912.5	2020.05
1000.2302	2737.9022	2887.55	1999
1000.3515	2739.1145	2873.1	1982
1000.4728	2740.3262	2869.85	1972
1000.594	2741.5372	2860.25	1969.3
1000.7152	2742.7475	2831.4	1940.35
1000.8363	2743.9571	2825.55	1933.7
1000.9575	2745.1661	2810.05	1915.45
1001.0785	2746.3744	2801.65	1911.3
1001.1996	2747.582	2775.2	1886.15
1001.3206	2748.7889	2756.7	1863.95
1001.4415	2749.9952	2767.2	1876.4
1001.5625	2751.2008	2740.9	1851.95
1001.6833	2752.4057	2735.6	1844.05
1001.8042	2753.61	2708.85	1819.1
1001.925	2754.8136	2711.65	1820.8
1002.0458	2756.0165	2715.15	1825.65
1002.1665	2757.2188	2696.9	1805.65
1002.2872	2758.4204	2696.7	1806.55
1002.4078	2759.6213	2695.15	1800.55
1002.5285	2760.8215	2693.7	1799.55
1002.649	2762.0211	2684.3	1792.4
1002.7696	2763.22	2684.25	1791.35
1002.8901	2764.4182	2669.3	1780.1
1003.0106	2765.6158	2669.35	1780.15
1003.131	2766.8127	2649.8	1761.65
1003.2514	2768.009	2649.2	1758.9
1003.3717	2769.2045	2638.65	1748.45
1003.492	2770.3994	2638.3	1746.05
1003.6123	2771.5936	2617.5	1723.5
1003.7325	2772.7872	2600.15	1711.8
1003.8527	2773.9801	2596.2	1706
1003.9729	2775.1723	2617	1710.35
1004.093	2776.3639	2591.35	1702.3
1004.2131	2777.5548	2598.55	1707.7
1004.3331	2778.745	2590.15	1701.75
1004.4531	2779.9346	2582.1	1694.75
1004.5731	2781.1235	2578.2	1688.35
1004.693	2782.3117	2572.1	1684.2
1004.8129	2783.4992	2575.75	1685.35
1004.9328	2784.6861	2565.8	1677.6
1005.0526	2785.8723	2574.95	1684.9
1005.1723	2787.0579	2579.85	1690.3
1005.2921	2788.2428	2584.8	1696.2
1005.4118	2789.427	2583.25	1696.05
1005.5314	2790.6106	2575.5	1687.9
1005.651	2791.7935	2583.85	1692.1
1005.7706	2792.9757	2582.9	1695.35
1005.8902	2794.1573	2584.35	1692.15
1006.0097	2795.3382	2589.45	1701
1006.1291	2796.5184	2599.15	1710.4
1006.2485	2797.698	2607.05	1714.7
1006.3679	2798.8769	2612.6	1722.25
1006.4873	2800.0551	2625.1	1735.7
1006.6066	2801.2327	2627.8	1737.05
1006.7258	2802.4096	2632.3	1744.1
1006.8451	2803.5859	2655.8	1765.85
1006.9642	2804.7615	2670.75	1781.2
1007.0834	2805.9364	2691.3	1802.8
1007.2025	2807.1106	2701.65	1815
1007.3216	2808.2842	2730.9	1842.25
1007.4406	2809.4572	2753.75	1863.85
1007.5596	2810.6294	2775.9	1885.4
1007.6785	2811.801	2802.2	1912.85
1007.7975	2812.972	2837.45	1951.6
1007.9163	2814.1423	2868.55	1979.25
1008.0352	2815.3119	2908.7	2020.9
1008.154	2816.4808	2935.25	2047.45
1008.2727	2817.6491	2989.9	2102.6
1008.3914	2818.8167	3025.85	2141.05
1008.5101	2819.9837	3068.6	2176.05
1008.6288	2821.15	3100.85	2212.95
1008.7474	2822.3157	3142.85	2254.75
1008.8659	2823.4807	3181.65	2292.75
1008.9844	2824.645	3226.95	2337
1009.1029	2825.8086	3264.45	2377.8
1009.2214	2826.9716	3291.75	2404.15
1009.3398	2828.134	3320.85	2433.05
1009.4581	2829.2957	3344.75	2456.95
1009.5764	2830.4567	3354.65	2468.05
1009.6947	2831.617	3390.2	2500.2
1009.813	2832.7767	3406.85	2519.9
1009.9312	2833.9358	3404.8	2516.8
1010.0493	2835.0941	3385.75	2496.65
1010.1675	2836.2519	3376.8	2488.8
1010.2855	2837.4089	3358.8	2472.5
1010.4036	2838.5653	3357.6	2467.85
1010.5216	2839.7211	3344.75	2457.05
1010.6396	2840.8761	3342.85	2453.7
1010.7575	2842.0306	3368.45	2481.9
1010.8754	2843.1843	3394.65	2507.3
1010.9932	2844.3374	3428.15	2539.95
1011.111	2845.4899	3481.45	2591.9
1011.2288	2846.6417	3531.1	2643.6
1011.3465	2847.7928	3579.8	2693.1
1011.4642	2848.9433	3656.45	2770.25
1011.5818	2850.0931	3736.8	2849.25
1011.6995	2851.2422	3798.1	2909.25
1011.817	2852.3907	3843.7	2955.9
1011.9345	2853.5385	3893.25	3003.9
1012.052	2854.6857	3954.7	3058.45
1012.1695	2855.8323	3985.2	3100.35
1012.2869	2856.9781	4034.2	3146.8
1012.4042	2858.1233	4069.3	3182.6
1012.5216	2859.2679	4110.05	3223.55
1012.6389	2860.4118	4152.6	3265.5
1012.7561	2861.555	4166.3	3274.2
1012.8733	2862.6976	4216.55	3329.05
1012.9905	2863.8395	4240.15	3352.15
1013.1076	2864.9808	4249.85	3363.2
1013.2247	2866.1214	4247.6	3360.2
1013.3417	2867.2614	4259	3371.8
1013.4587	2868.4007	4272.15	3383.1
1013.5757	2869.5393	4274	3387.5
1013.6926	2870.6773	4287.3	3398.2
1013.8095	2871.8146	4310.35	3421.35
1013.9263	2872.9513	4300.8	3412.15
1014.0431	2874.0874	4292.35	3404.5
1014.1599	2875.2227	4284.65	3398.4
1014.2766	2876.3574	4251.55	3365.1
1014.3933	2877.4915	4226.15	3339.5
1014.51	2878.6249	4197.75	3310.35
1014.6266	2879.7577	4170.85	3283.3
1014.7431	2880.8898	4168	3270.15
1014.8596	2882.0212	4131.4	3245.45
1014.9761	2883.152	4117.55	3229.15
1015.0925	2884.2821	4110.3	3225.6
1015.2089	2885.4116	4092.5	3207.95
1015.3253	2886.5405	4092.55	3206.1
1015.4416	2887.6686	4087.9	3200.3
1015.5579	2888.7962	4096	3209.85
1015.6741	2889.923	4089.9	3203.75
1015.7903	2891.0493	4103.55	3217.9
1015.9065	2892.1748	4127.3	3242.8
1016.0226	2893.2997	4114	3227.55
1016.1387	2894.424	4127.8	3241.35
1016.2547	2895.5476	4136.55	3250.55
1016.3707	2896.6706	4157.9	3271.2
1016.4866	2897.7929	4162.05	3275.15
1016.6025	2898.9145	4201.2	3315
1016.7184	2900.0355	4211.85	3324.85
1016.8342	2901.1559	4243	3354.85
1016.95	2902.2756	4273.45	3388.05
1017.0658	2903.3946	4293.65	3408.7
1017.1815	2904.513	4301.7	3415.2
1017.2971	2905.6308	4321.45	3434.5
1017.4127	2906.7479	4342	3455.55
1017.5283	2907.8643	4366.55	3478.85
1017.6439	2908.9801	4382.65	3497.35
1017.7594	2910.0953	4387.2	3501.7
1017.8748	2911.2098	4373.15	3482.4
1017.9902	2912.3236	4381.7	3486.95
1018.1056	2913.4368	4351.35	3461.85
1018.2209	2914.5494	4341	3456.2
1018.3362	2915.6613	4299.45	3410.65
1018.4515	2916.7725	4285.15	3395.35
1018.5667	2917.8831	4259.3	3371.8
1018.6819	2918.9931	4208.95	3321.65
1018.797	2920.1024	4179.3	3289.9
1018.9121	2921.211	4167.1	3281.85
1019.0271	2922.319	4144.2	3257.55
1019.1421	2923.4264	4140.8	3256.8
1019.2571	2924.5331	4113.45	3228.55
1019.372	2925.6391	4096.7	3212.25
1019.4869	2926.7445	4085.25	3202
1019.6017	2927.8493	4087.9	3202.85
1019.7165	2928.9534	4071.25	3184.85
1019.8313	2930.0569	4069.95	3180.3
1019.946	2931.1597	4055.1	3166.6
1020.0606	2932.2619	4055.5	3169.65
1020.1753	2933.3634	4026.3	3140.3
1020.2899	2934.4643	4025.5	3134.55
1020.4044	2935.5645	4028.6	3136.6
1020.5189	2936.6641	3976.85	3087.8
1020.6334	2937.763	3945.45	3061
1020.7478	2938.8613	3891.9	3004.9
1020.8622	2939.959	3839.9	2949.5
1020.9765	2941.056	3779.75	2896.9
1021.0908	2942.1523	3701.25	2815.3
1021.2051	2943.248	3627.15	2742
1021.3193	2944.3431	3531.05	2646.15
1021.4334	2945.4375	3445.75	2559.65
1021.5476	2946.5313	3342.8	2457.85
1021.6617	2947.6244	3257.95	2372.3
1021.7757	2948.7169	3177.2	2290.9
1021.8897	2949.8087	3089.55	2205.45
1022.0037	2950.8999	2991	2103.15
1022.1176	2951.9904	2928	2043.65
1022.2315	2953.0803	2855.1	1967.25
1022.3453	2954.1696	2790.8	1904.75
1022.4591	2955.2582	2745.75	1863.3
1022.5728	2956.3462	2690.9	1805
1022.6865	2957.4335	2654.3	1772
1022.8002	2958.5202	2619.55	1732.45
1022.9138	2959.6062	2597.15	1710.85
1023.0274	2960.6916	2561.15	1676.6
1023.141	2961.7764	2550.4	1663.85
1023.2545	2962.8605	2514.3	1629.95
1023.3679	2963.9439	2508.1	1623.35
1023.4813	2965.0267	2502.65	1615.4
1023.5947	2966.1089	2524.4	1615.95
1023.708	2967.1905	2483.15	1597.8
1023.8213	2968.2714	2485.45	1602.4
1023.9346	2969.3516	2473.9	1589.25
1024.0478	2970.4312	2491.05	1598.4
1024.1609	2971.5102	2472.1	1585.6
1024.274	2972.5885	2469	1587.2
1024.3871	2973.6662	2471.7	1582.9
1024.5002	2974.7432	2472.65	1589.25
1024.6132	2975.8196	2456.1	1571.4
1024.7261	2976.8954	2440.9	1558.4
1024.839	2977.9705	2437.25	1552.2
1024.9519	2979.045	2419.35	1535.15
1025.0647	2980.1188	2396.55	1513.4
1025.1775	2981.192	2384.15	1500.6
1025.2902	2982.2645	2357.95	1471.05
1025.4029	2983.3364	2337.1	1453.6
1025.5156	2984.4077	2307.15	1424.1
1025.6282	2985.4783	2289.8	1402.1
1025.7407	2986.5483	2250.9	1366.6
1025.8532	2987.6177	2227.2	1345
1025.9657	2988.6864	2190.1	1305.85
1026.0782	2989.7545	2163.6	1276.3
1026.1906	2990.8219	2117.45	1235.3
1026.3029	2991.8887	2097.45	1211.05
1026.4152	2992.9548	2065.85	1183.5
1026.5275	2994.0204	2036.4	1155.1
1026.6397	2995.0852	2005.9	1123.4
1026.7519	2996.1495	1987.05	1102.35
1026.864	2997.2131	1957.05	1073.15
1026.9761	2998.276	1939.3	1052.75
1027.0882	2999.3383	1912.35	1028.65
1027.2002	3000.4	1888.05	1002.85
1027.3122	3001.4611	1882.65	999.05
1027.4241	3002.5215	1862.85	978.25
1027.536	3003.5812	1855.25	973.35
1027.6478	3004.6404	1831.65	947.8
1027.7596	3005.6989	1822.7	936.7
1027.8714	3006.7567	1817.05	933.9
1027.9831	3007.8139	1826	921.2
1028.0947	3008.8705	1791.25	906.15
1028.2064	3009.9264	1811.1	910.85
1028.3179	3010.9818	1773.5	889
1028.4295	3012.0364	1784.7	900.55
1028.541	3013.0905	1778.1	892.85
1028.6524	3014.1439	1771.1	886.35
1028.7638	3015.1966	1765.2	880.35
1028.8752	3016.2487	1760.6	877.65
1028.9865	3017.3002	1768.6	877.35
1029.0978	3018.3511	1753.25	868.95
1029.209	3019.4013	1760.85	879.1
1029.3202	3020.4509	1754.3	871.05
1029.4314	3021.4998	1747.65	864.85
1029.5425	3022.5481	1739.4	855.6
1029.6535	3023.5958	1745.2	860.4
1029.7645	3024.6428	1741.75	856.85
1029.8755	3025.6892	1746.95	864.6
1029.9864	3026.735	1747.15	865.3
1030.0973	3027.7802	1741.3	855.7
1030.2082	3028.8247	1744.25	859.35
1030.319	3029.8685	1738.4	854.45
1030.4297	3030.9118	1756	873.15
1030.5404	3031.9544	1755.75	872.9
1030.6511	3032.9963	1753.35	869.7
1030.7617	3034.0376	1751.8	867.95
1030.8723	3035.0783	1751.3	866.75
1030.9829	3036.1184	1752.4	867.95
1031.0934	3037.1578	1747.85	864.6
1031.2038	3038.1966	1761.5	877.55
1031.3142	3039.2348	1746.3	863.5
1031.4246	3040.2723	1753.3	861.3
1031.5349	3041.3092	1744.8	864.2
1031.6452	3042.3455	1741	856.05
1031.7554	3043.3811	1739.55	854.5
1031.8656	3044.4161	1731.35	845.9
1031.9758	3045.4505	1731.3	846.7
1032.0859	3046.4842	1724.2	838.9
1032.1959	3047.5173	1713.85	831.5
1032.3059	3048.5498	1706.75	824.55
1032.4159	3049.5816	1702	817.45
1032.5258	3050.6128	1695.55	811.95
1032.6357	3051.6434	1692.3	806.65
1032.7455	3052.6734	1683.95	799.75
1032.8553	3053.7027	1675.95	793.5
1032.9651	3054.7314	1666.35	783.65
1033.0748	3055.7594	1661.6	779.9
1033.1845	3056.7868	1651.6	766.4
1033.2941	3057.8136	1644.75	760.55
1033.4037	3058.8398	1635.35	752.85
1033.5132	3059.8653	1635.6	753.3
1033.6227	3060.8902	1627.6	743.3
1033.7321	3061.9145	1620.8	738.75
1033.8415	3062.9381	1617.05	732.5
1033.9509	3063.9612	1624.35	728.7
1034.0602	3064.9835	1607.9	725.8
1034.1694	3066.0053	1604.05	720.7
1034.2787	3067.0264	1594.65	713.15
1034.3878	3068.0469	1588.8	703.9
1034.497	3069.0668	1575.3	691.15
1034.6061	3070.086	1564.55	683.75
1034.7151	3071.1046	1560.9	677.7
1034.8241	3072.1226	1549.25	665.95
1034.9331	3073.1399	1537.6	654.15
1035.042	3074.1567	1534.15	650.65
1035.1508	3075.1727	1516.25	633
1035.2597	3076.1882	1504.3	619.5
1035.3684	3077.203	1505.2	622.35
1035.4772	3078.2173	1491.15	607.85
1035.5859	3079.2308	1486.85	602.85
1035.6945	3080.2438	1482.7	597.8
1035.8031	3081.2561	1464.45	583.1
1035.9117	3082.2678	1465.5	583.55
1036.0202	3083.2789	1457.65	573.6
1036.1286	3084.2893	1450.35	568.95
1036.2371	3085.2991	1438.35	555.35
1036.3454	3086.3083	1443.55	556.65
1036.4538	3087.3169	1425.8	542.15
1036.562	3088.3248	1426.7	542.2
1036.6703	3089.3321	1420.05	537.2
1036.7785	3090.3388	1413.35	531.7
1036.8866	3091.3449	1406.35	525.05
1036.9948	3092.3503	1400.3	515.6
1037.1028	3093.3551	1395.8	515.35
1037.2108	3094.3593	1396.6	512.7
1037.3188	3095.3629	1387.6	505.2
1037.4267	3096.3658	1388.25	504.2
1037.5346	3097.3681	1380.45	497.65
1037.6425	3098.3698	1376.75	492.8
1037.7503	3099.3708	1378.75	489.75
1037.858	3100.3713	1370.7	490.6
1037.9657	3101.3711	1361.95	478.1
1038.0734	3102.3702	1490.9	475.85
1038.181	3103.3688	1361.25	477.85
1038.2886	3104.3667	1354.25	472.95
1038.3961	3105.364	1352.3	471.05
1038.5036	3106.3607	1354.4	471.25
1038.611	3107.3568	1341.35	456.6
1038.7184	3108.3522	1335.85	455.05
1038.8257	3109.347	1340.6	456.5
1038.933	3110.3412	1337.35	452.25
1039.0403	3111.3348	1334.95	453.25
1039.1475	3112.3277	1327.3	445.25
1039.2547	3113.32	1324	442.5
1039.3618	3114.3117	1323.85	439.7
1039.4689	3115.3028	1320.25	437.3
1039.5759	3116.2932	1321.8	436.9
1039.6829	3117.2831	1315.45	425.95
1039.7898	3118.2723	1313.95	431.2
1039.8967	3119.2608	1307.2	424.15
1040.0035	3120.2488	1301.2	420.35
1040.1103	3121.2361	1314.7	432.7
1040.2171	3122.2229	1296.85	414.95
1040.3238	3123.209	1299.9	416.15
1040.4305	3124.1944	1290.8	409.5
1040.5371	3125.1793	1295.4	411.8
1040.6437	3126.1635	1288.95	405.6
1040.7502	3127.1471	1284.85	405.55
1040.8567	3128.1301	1285.3	404.65
1040.9631	3129.1125	1287.95	406.85
1041.0695	3130.0942	1275.45	395.2
1041.1759	3131.0753	1288.05	397.25
1041.2822	3132.0558	1278.95	394.85
1041.3884	3133.0357	1269.8	388
1041.4946	3134.015	1273.85	390.7
1041.6008	3134.9936	1274.05	391.5
1041.7069	3135.9716	1292.05	388
1041.813	3136.949	1260.4	378.4
1041.919	3137.9258	1280.6	380.2
1042.025	3138.902	1270.35	383.9
1042.1309	3139.8775	1262.25	382.35
1042.2368	3140.8524	1260.05	377.9
1042.3427	3141.8267	1257.15	375.9
1042.4485	3142.8004	1251.25	368.5
1042.5542	3143.7735	1258.95	371.1
1042.6599	3144.7459	1257.3	373.2
1042.7656	3145.7178	1253.25	369.3
1042.8712	3146.689	1239.5	360.3
1042.9768	3147.6596	1239.8	357.45
1043.0823	3148.6295	1237.25	354.7
1043.1878	3149.5989	1238.8	357.95
1043.2932	3150.5676	1240	360.05
1043.3986	3151.5357	1230.95	349.9
1043.5039	3152.5032	1234.5	358.55
1043.6092	3153.4701	1227.3	345.95
1043.7145	3154.4364	1223.8	339.15
1043.8197	3155.402	1219	341.2
1043.9248	3156.367	1226.9	342.75
1044.03	3157.3315	1270.15	344.95
1044.135	3158.2952	1219.65	337.5
1044.24	3159.2584	1217	337.2
1044.345	3160.221	1219	337.2
1044.4499	3161.1829	1211.1	328.85
1044.5548	3162.1442	1207.55	325.7
1044.6596	3163.105	1209.9	328.9
1044.7644	3164.065	1205	325.25
1044.8692	3165.0245	1201.45	318.05
1044.9739	3165.9834	1203.6	324.3
1045.0785	3166.9416	1203.35	322.3
1045.1831	3167.8993	1200.75	318.2
1045.2877	3168.8563	1200.2	317.75
1045.3922	3169.8127	1192.6	312.85
1045.4966	3170.7684	1192.95	312.3
1045.6011	3171.7236	1190.05	304.85
1045.7054	3172.6782	1189.05	308.85
1045.8098	3173.6321	1185.25	303.6
1045.914	3174.5854	1193.1	309.35
1046.0183	3175.5381	1187.85	308.35
1046.1224	3176.4902	1178.8	298.2
1046.2266	3177.4417	1182.95	302.75
1046.3307	3178.3926	1177.65	296.5
1046.4347	3179.3428	1178.7	297.4
1046.5387	3180.2924	1170.65	289.2
1046.6427	3181.2415	1174.2	292.5
1046.7466	3182.1899	1174.35	292.75
1046.8504	3183.1377	1171.2	288.9
1046.9542	3184.0848	1167.4	283.3
1047.058	3185.0314	1170.6	288.4
1047.1617	3185.9773	1166.5	285.25
1047.2654	3186.9227	1165.5	281.35
1047.369	3187.8674	1164.6	281.35
1047.4726	3188.8115	1160.05	276.15
1047.5761	3189.755	1160.55	280.3
1047.6796	3190.6979	1159.85	279.4
1047.783	3191.6402	1156.35	276.95
1047.8864	3192.5818	1158.35	276.25
1047.9898	3193.5229	1159.1	272.85
1048.0931	3194.4633	1156.65	277.9
1048.1963	3195.4031	1156.35	273.45
1048.2995	3196.3423	1151.95	270.85
1048.4027	3197.2809	1145.3	265.1
1048.5058	3198.2189	1146.05	265.45
1048.6089	3199.1563	1154.85	265.3
1048.7119	3200.0931	1144.4	261.9
1048.8148	3201.0292	1146.45	266.95
1048.9178	3201.9648	1138.2	257.6
1049.0206	3202.8997	1142.6	258.7
1049.1235	3203.834	1140.3	256.9
1049.2262	3204.7677	1142.65	263.4
1049.329	3205.7008	1136.3	252.55
1049.4317	3206.6333	1129.45	249.15
1049.5343	3207.5652	1138.9	256.45
1049.6369	3208.4964	1131.05	250.6
1049.7394	3209.4271	1131.15	251.45
1049.8419	3210.3571	1130.45	251.7
1049.9444	3211.2865	1131.3	250.35
1050.0468	3212.2154	1130.85	250.2
1050.1491	3213.1436	1134.7	251.1
1050.2514	3214.0712	1133.85	246.95
1050.3537	3214.9982	1124.05	244.2
1050.4559	3215.9246	1120.3	239.5
1050.5581	3216.8503	1122.7	242.3
1050.6602	3217.7755	1118.2	235.35
1050.7623	3218.7001	1119.6	238.75
1050.8643	3219.624	1117.55	237.25
1050.9663	3220.5473	1116.3	237.05
1051.0682	3221.4701	1119.7	238
1051.1701	3222.3922	1115.85	234.05
1051.2719	3223.3137	1112.75	230.85
1051.3737	3224.2346	1114.65	235.8
1051.4754	3225.1549	1112.8	233.85
1051.5771	3226.0746	1107.4	225.55
1051.6788	3226.9937	1109.75	228.35
1051.7804	3227.9121	1105.85	225.5
1051.8819	3228.83	1098.8	219.05
1051.9834	3229.7473	1105.7	224.5
1052.0849	3230.6639	1103	222.8
1052.1863	3231.5799	1097.55	218.35
1052.2876	3232.4954	1102	222
1052.3889	3233.4102	1097.85	220.15
1052.4902	3234.3244	1099.5	219.35
1052.5914	3235.238	1098.05	216.95
1052.6926	3236.151	1117.05	212.9
1052.7937	3237.0634	1090.3	210.3
1052.8948	3237.9752	1092.4	213.65
1052.9958	3238.8864	1095.85	216.35
1053.0968	3239.797	1085.15	205.55
1053.1977	3240.7069	1090.8	208.85
1053.2986	3241.6163	1090.25	210.2
1053.3994	3242.5251	1082.05	205.05
1053.5002	3243.4332	1079.95	200.95
1053.6009	3244.3408	1082.5	203.65
1053.7016	3245.2477	1078.35	196.75
1053.8022	3246.154	1083.8	202
1053.9028	3247.0598	1082.45	199.8
1054.0034	3247.9649	1076.4	197.9
1054.1039	3248.8694	1073.65	193.8
1054.2043	3249.7733	1074.6	195.3
1054.3047	3250.6766	1075.9	197.45
1054.4051	3251.5793	1073.95	191.2
1054.5054	3252.4814	1071.9	192.3
1054.6056	3253.3829	1071.75	192.05
1054.7058	3254.2838	1069.9	190.35
1054.806	3255.1841	1074.55	193.15
1054.9061	3256.0838	1065.1	183.7
1055.0061	3256.9829	1063.85	187.5
1055.1062	3257.8814	1068.2	186.25
1055.2061	3258.7792	1062.05	181
1055.306	3259.6765	1057.8	176.75
1055.4059	3260.5731	1058	176.85
1055.5057	3261.4692	1055.8	175
1055.6055	3262.3647	1053.9	173.4
1055.7052	3263.2595	1050.5	171.45
1055.8049	3264.1538	1046.95	166.05
1055.9045	3265.0474	1043.6	164.6
1056.0041	3265.9404	1044.45	165.8
1056.1036	3266.8329	1039.4	160.35
1056.2031	3267.7247	1047.9	159.45
1056.3025	3268.616	1030.95	152.1
1056.4019	3269.5066	1031.6	152.65
1056.5013	3270.3966	1030.6	149.85
1056.6005	3271.286	1019.2	140.6
