Software Version:	3.9.2.0
Unit SN:	10000200
Spectrometer SN:	6960
Date:	3/26/2024 2:39:38 PM
Data Line Index:	25
Spectral Points:	2048
Integration time (ms):	125
Averages:	20
Delay (ms):	30000
Sequence Number:	1
Processing:	dark subtract
Laser Power (mW):	305
Laser Current (mA):	821
Laser Diode Temp (C):	25
Laser Case Temp (C):	27.9
System Temp (C):	28
Spectrometer Temp (C):	25.8
CCD Temp (C):	-0.005
Secondary Temp (C):	20.013
Heatsink Temp (C):	23.616
CCDPCB Temp (C):	37.285
SecondaryPCB Temp (C):	34.795

Wavelength	RamanShift	Raw Counts	Dark Subtracted
787.061	30.1047	649.3	236.85
787.2016	32.3739	662	253.7
787.3422	34.6426	672.85	263.85
787.4828	36.9109	691.9	279.6
787.6235	39.1787	718.65	302.05
787.7642	41.4461	738.45	317.1
787.9049	43.7131	768.6	345.75
788.0456	45.9796	790.35	360.9
788.1863	48.2456	816.45	384.7
788.3271	50.5112	843.1	407.5
788.4679	52.7764	877.8	438.2
788.6087	55.0411	904.95	462.95
788.7496	57.3054	938.9	491.6
788.8904	59.5692	974.9	526.75
789.0313	61.8326	1003.6	550.75
789.1722	64.0955	1049.15	591.65
789.3132	66.3579	1102.65	640
789.4541	68.6199	1153.95	690.3
789.5951	70.8815	1267.55	799.9
789.7361	73.1426	1465.55	993.7
789.8771	75.4032	1986.8	1509
790.0181	77.6634	3283.5	2797.3
790.1592	79.9231	6568.85	6076.85
790.3003	82.1824	14096.5	13586.45
790.4414	84.4412	32124.65	31579.85
790.5825	86.6995	60125.7	59533.9
790.7237	88.9574	65535	64905.5
790.8648	91.2148	65535	64872.9
791.006	93.4717	65535	64851.2
791.1472	95.7282	65535	64839.55
791.2885	97.9842	65535	64835.25
791.4297	100.2398	65535	64834.15
791.571	102.4949	65535	64828.7
791.7123	104.7495	65535	64828.05
791.8536	107.0036	65535	64827.3
791.9949	109.2573	65535	64829.55
792.1363	111.5105	65535	64822.55
792.2777	113.7632	65535	64822.85
792.4191	116.0154	65535	64810.2
792.5605	118.2672	65535	64822.3
792.7019	120.5185	65535	64818.15
792.8434	122.7693	65535	64813.25
792.9849	125.0197	65535	64816.25
793.1264	127.2696	65535	64806.9
793.2679	129.519	65535	64798.75
793.4094	131.7679	65535	64798
793.551	134.0163	65535	64800.3
793.6926	136.2642	65535	64793.5
793.8342	138.5117	65535	64790.1
793.9758	140.7587	65535	64793.75
794.1175	143.0052	65535	64788.1
794.2591	145.2512	65535	64786.1
794.4008	147.4967	65535	64785.85
794.5425	149.7417	65535	64784.45
794.6842	151.9863	65535	64784.15
794.826	154.2304	65535	64776.45
794.9677	156.4739	65535	64770.35
795.1095	158.717	65535	64768.85
795.2513	160.9596	65535	64770.45
795.3931	163.2017	65535	64766.25
795.535	165.4433	65535	64764.95
795.6768	167.6844	65535	64759.8
795.8187	169.925	65535	64760.6
795.9606	172.1651	65535	64764.35
796.1025	174.4047	65535	64761.2
796.2445	176.6439	65535	64759.8
796.3864	178.8825	65535	64754.7
796.5284	181.1206	65535	64751.3
796.6704	183.3582	65535	64743.5
796.8124	185.5954	65535	64742.65
796.9544	187.832	65535	64743.35
797.0965	190.0681	65535	64737.9
797.2386	192.3037	65535	64736.35
797.3806	194.5388	65535	64728.75
797.5228	196.7734	65535	64729.25
797.6649	199.0075	65535	64727.7
797.807	201.2411	65535	64721.65
797.9492	203.4742	65535	64718.55
798.0914	205.7068	65535	64717.35
798.2336	207.9389	65535	64719.4
798.3758	210.1704	65535	64714
798.518	212.4015	65535	64713.95
798.6603	214.632	65535	64717.1
798.8025	216.862	65535	64727.9
798.9448	219.0915	65535	64736.7
799.0871	221.3205	65535	64734.15
799.2294	223.549	65535	64738.45
799.3718	225.777	65535	64734.05
799.5141	228.0044	65535	64732.75
799.6565	230.2314	65535	64735.5
799.7989	232.4578	65535	64733.2
799.9413	234.6837	65535	64729.05
800.0837	236.909	65535	64726.7
800.2262	239.1339	65535	64703.95
800.3687	241.3582	65535	64715.2
800.5111	243.582	65535	64684.85
800.6536	245.8053	65535	64694.35
800.7961	248.0281	65535	64704.1
800.9387	250.2503	65535	64692.5
801.0812	252.472	65535	64691.25
801.2238	254.6932	65535	64690.7
801.3664	256.9139	65535	64692.5
801.509	259.134	65535	64692.55
801.6516	261.3536	65535	64689.85
801.7942	263.5727	65535	64683.3
801.9369	265.7912	65535	64686.45
802.0795	268.0092	65535	64689.8
802.2222	270.2267	65535	64681.55
802.3649	272.4436	65535	64689
802.5076	274.6601	65535	64674.75
802.6504	276.8759	65535	64686.5
802.7931	279.0913	65535	64676.7
802.9359	281.3061	65535	64679.3
803.0787	283.5204	65535	64674.95
803.2215	285.7341	65535	64667.95
803.3643	287.9473	65535	64662.25
803.5071	290.16	65535	64671.3
803.6499	292.3721	65535	64673.55
803.7928	294.5837	65535	64669.7
803.9357	296.7947	65535	64671.5
804.0786	299.0052	65535	64669.7
804.2215	301.2152	65535	64669.65
804.3644	303.4246	65535	64672.8
804.5074	305.6334	65535	64679.3
804.6503	307.8418	65535	64672.5
804.7933	310.0495	65535	64670.15
804.9363	312.2568	65535	64668.45
805.0793	314.4635	65535	64668.7
805.2223	316.6696	65535	64668.95
805.3653	318.8752	65535	64654.75
805.5084	321.0802	65535	64665.15
805.6514	323.2847	65535	64663.7
805.7945	325.4887	65535	64660.7
805.9376	327.692	65535	64662.85
806.0807	329.8949	65535	64659.2
806.2238	332.0972	65535	64657.35
806.367	334.2989	65535	64654.75
806.5101	336.5001	65535	64657
806.6533	338.7007	65535	64654.2
806.7965	340.9008	65535	64652.6
806.9397	343.1003	65535	64651.75
807.0829	345.2992	65535	64649.25
807.2261	347.4976	65535	64651.2
807.3693	349.6955	65535	64645.05
807.5126	351.8927	65535	64643.25
807.6559	354.0895	65535	64636.6
807.7991	356.2856	65535	64645.65
807.9424	358.4812	65535	64648.15
808.0857	360.6763	65535	64642.55
808.2291	362.8707	65535	64642.15
808.3724	365.0646	65535	64640.35
808.5158	367.258	65535	64637.8
808.6591	369.4508	65535	64637.8
808.8025	371.643	65535	64636.65
808.9459	373.8346	65535	64633.7
809.0893	376.0257	65535	64631.45
809.2327	378.2162	65535	64634.55
809.3762	380.4062	65535	64631.5
809.5196	382.5956	65535	64629.45
809.6631	384.7844	65535	64633.15
809.8066	386.9726	65535	64635
809.9501	389.1603	65535	64638.05
810.0936	391.3474	65535	64594.65
810.2371	393.5339	65535	64635.45
810.3806	395.7199	65535	64640.4
810.5241	397.9052	65535	64640.05
810.6677	400.09	65535	64642.7
810.8113	402.2743	65535	64646
810.9548	404.4579	65535	64643.55
811.0984	406.641	65535	64636.15
811.2421	408.8235	65535	64648.95
811.3857	411.0054	65535	64645.05
811.5293	413.1868	65535	64637.15
811.673	415.3675	65535	64628.65
811.8166	417.5477	65535	64634.7
811.9603	419.7273	65535	64630.1
812.104	421.9064	65535	64626.3
812.2477	424.0848	65535	64631.6
812.3914	426.2627	65535	64624.8
812.5351	428.4399	65535	64626.1
812.6788	430.6166	65535	64625.2
812.8226	432.7928	65535	64620.65
812.9663	434.9683	65535	64621.85
813.1101	437.1432	65535	64625.9
813.2539	439.3176	65535	64630.85
813.3977	441.4914	65535	64631.85
813.5415	443.6645	65535	64632
813.6853	445.8371	65535	64626.35
813.8291	448.0091	65535	64625.45
813.973	450.1806	65535	64625.95
814.1168	452.3514	65535	64631.7
814.2607	454.5216	65535	64619.65
814.4046	456.6913	65535	64623.95
814.5485	458.8603	65535	64629.75
814.6924	461.0288	65535	64628.3
814.8363	463.1967	65535	64632.35
814.9802	465.3639	65535	64625.85
815.1241	467.5306	65535	64626.75
815.2681	469.6967	65535	64628.3
815.412	471.8622	65535	64632.4
815.556	474.0271	65535	64627.1
815.7	476.1914	65535	64620.25
815.844	478.3551	65535	64626.2
815.988	480.5182	65535	64627.4
816.132	482.6807	65535	64634.8
816.276	484.8426	65535	64639.25
816.4201	487.0039	65535	64630.6
816.5641	489.1647	65535	64621.2
816.7082	491.3248	65535	64622.65
816.8522	493.4843	65535	64632.15
816.9963	495.6432	65535	64631.4
817.1404	497.8015	65535	64620.35
817.2845	499.9592	65535	64618.35
817.4286	502.1163	65535	64614.7
817.5727	504.2728	65535	64621.85
817.7168	506.4287	65535	64628.4
817.861	508.5839	65535	64627.8
818.0051	510.7386	65535	64627.65
818.1493	512.8927	65535	64612.85
818.2935	515.0461	65535	64618.4
818.4377	517.199	65535	64619.4
818.5818	519.3512	65535	64617.25
818.726	521.5029	65535	64614.1
818.8703	523.6539	65535	64618.55
819.0145	525.8043	65535	64614.85
819.1587	527.9541	65535	64609.75
819.303	530.1033	65535	64621
819.4472	532.2519	65535	64616.1
819.5915	534.3999	65535	64612
819.7357	536.5472	65535	64620.8
819.88	538.694	65535	64618.1
820.0243	540.8401	65535	64614.25
820.1686	542.9856	65535	64601
820.3129	545.1305	65535	64598.55
820.4572	547.2748	65535	64597.7
820.6016	549.4185	65535	64597.45
820.7459	551.5615	65535	64596.4
820.8902	553.704	65535	64601.5
821.0346	555.8458	65535	64607.55
821.1789	557.987	65535	64604.95
821.3233	560.1276	65535	64603.55
821.4677	562.2675	65535	64602.5
821.6121	564.4069	65535	64604.75
821.7565	566.5456	65535	64608.05
821.9009	568.6837	65535	64607.8
822.0453	570.8212	65535	64610.1
822.1897	572.958	65535	64609.7
822.3342	575.0942	65535	64613.3
822.4786	577.2299	65535	64616.1
822.6231	579.3648	65535	64624.95
822.7675	581.4992	65535	64633.05
822.912	583.6329	65535	64633
823.0565	585.766	65535	64631.1
823.201	587.8985	65535	64624.2
823.3454	590.0304	65535	64593.75
823.4899	592.1616	65535	64609.05
823.6345	594.2922	65535	64604.7
823.779	596.4222	65535	64608.55
823.9235	598.5515	65535	64602.5
824.068	600.6802	65535	64605.2
824.2126	602.8083	65535	64606.3
824.3571	604.9358	65535	64602.55
824.5017	607.0626	65535	64602.6
824.6462	609.1888	65535	64594.25
824.7908	611.3144	65535	64598.2
824.9354	613.4393	65535	64594.25
825.08	615.5636	65535	64599.55
825.2246	617.6873	65535	64603.95
825.3692	619.8103	65535	64599.2
825.5138	621.9327	65535	64602.7
825.6584	624.0544	65535	64610.35
825.803	626.1756	65535	64609
825.9477	628.2961	65535	64599.3
826.0923	630.4159	65535	64599.15
826.237	632.5351	65535	64596.3
826.3816	634.6537	65535	64598.95
826.5263	636.7716	65535	64592.55
826.6709	638.8889	65535	64594.7
826.8156	641.0056	65535	64593.7
826.9603	643.1216	65535	64590.55
827.105	645.237	65535	64595.15
827.2497	647.3518	65535	64603.55
827.3944	649.4659	65535	64607.1
827.5391	651.5793	65535	64603.7
827.6838	653.6922	65535	64602.05
827.8285	655.8043	65535	64602.2
827.9733	657.9159	65535	64597.5
828.118	660.0268	65535	64601.85
828.2627	662.137	65535	64599.05
828.4075	664.2466	65535	64592.85
828.5522	666.3556	65535	64596.1
828.697	668.4639	65535	64597.8
828.8418	670.5716	65535	64605.2
828.9865	672.6786	65535	64597.8
829.1313	674.785	65535	64595.45
829.2761	676.8907	65535	64600.55
829.4209	678.9958	65535	64599.4
829.5657	681.1002	65535	64597.35
829.7105	683.204	65535	64586.75
829.8553	685.3072	65535	64589.55
830.0001	687.4097	65535	64593.55
830.1449	689.5115	65535	64592.4
830.2898	691.6127	65535	64593.35
830.4346	693.7132	65535	64600.25
830.5794	695.8131	65535	64581.5
830.7243	697.9123	65535	64591.6
830.8691	700.0109	65535	64594.8
831.014	702.1089	65535	64590.7
831.1588	704.2061	65535	64592.85
831.3037	706.3028	65535	64590.05
831.4486	708.3987	65535	64587.45
831.5935	710.4941	65535	64591
831.7383	712.5887	65535	64595.15
831.8832	714.6827	65535	64591.65
832.0281	716.7761	65535	64594.85
832.173	718.8688	65535	64594.5
832.3179	720.9608	65535	64587.1
832.4628	723.0522	65535	64578.8
832.6077	725.1429	65535	64589
832.7527	727.233	65535	64592.7
832.8976	729.3224	65535	64593.65
833.0425	731.4112	65535	64591.5
833.1874	733.4993	65535	64590.6
833.3324	735.5867	65535	64593.85
833.4773	737.6735	65535	64590.8
833.6222	739.7596	65535	64589.55
833.7672	741.845	65535	64589.75
833.9122	743.9298	65535	64588.25
834.0571	746.014	65535	64590.75
834.2021	748.0974	65535	64583.5
834.347	750.1802	65535	64585.45
834.492	752.2624	65535	64582.4
834.637	754.3439	65535	64584.1
834.782	756.4247	65535	64581.75
834.9269	758.5048	65535	64587.15
835.0719	760.5843	65535	64583.5
835.2169	762.6631	65535	64586.4
835.3619	764.7413	65535	64584.7
835.5069	766.8188	65535	64585.9
835.6519	768.8956	65535	64582.45
835.7969	770.9718	65535	64586.3
835.9419	773.0473	65535	64585.15
836.0869	775.1221	65535	64586.55
836.232	777.1962	65535	64589.3
836.377	779.2697	65519	64567.6
836.522	781.3426	65531.25	64564.95
836.667	783.4147	65535	64584.7
836.8121	785.4862	65535	64583.45
836.9571	787.557	65522.2	64568.2
837.1021	789.6271	65535	64583.1
837.2472	791.6966	65521.75	64572.05
837.3922	793.7654	65470.65	64518.55
837.5373	795.8335	65474.15	64526.45
837.6823	797.901	65486.5	64535.5
837.8274	799.9678	65453.15	64499.2
837.9724	802.0339	65435.4	64484.6
838.1175	804.0993	65451.15	64489.2
838.2626	806.1641	65425.25	64469
838.4076	808.2282	65416.55	64465.5
838.5527	810.2916	65389.5	64435.15
838.6978	812.3544	65442.15	64494.05
838.8428	814.4164	65340.7	64391.85
838.9879	816.4778	65348.5	64393.45
839.133	818.5385	65356.15	64400.95
839.2781	820.5986	65352.65	64401.95
839.4232	822.658	65352.05	64396.65
839.5682	824.7166	65361.35	64412.05
839.7133	826.7747	65234.05	64281.2
839.8584	828.832	65267.1	64312.95
840.0035	830.8886	65367.6	64410.7
840.1486	832.9446	65370.2	64411.6
840.2937	834.9999	65149.7	64200.95
840.4388	837.0545	65279.8	64324.5
840.5839	839.1085	65366.35	64410.3
840.729	841.1618	65319.1	64360.8
840.8741	843.2143	65141.75	64187.35
841.0192	845.2662	65127.8	64172.25
841.1643	847.3175	65202.25	64250.4
841.3095	849.368	64845.75	63895.5
841.4546	851.4179	65139	64184.75
841.5997	853.467	64901.1	63949.55
841.7448	855.5155	65038.15	64086.1
841.8899	857.5633	64767	63811.5
842.0351	859.6105	64644.8	63691.85
842.1802	861.6569	64816.35	63862.45
842.3253	863.7027	64405.1	63446.8
842.4704	865.7478	64565.65	63611.25
842.6156	867.7922	64450.7	63498.3
842.7607	869.8359	64685.9	63732.05
842.9058	871.8789	64230.8	63273.3
843.0509	873.9212	64544.4	63556.8
843.1961	875.9629	64624.55	63668.9
843.3412	878.0039	64553.55	63600.55
843.4863	880.0441	64403.15	63452
843.6315	882.0837	64420.2	63467.6
843.7766	884.1226	64319.9	63365.3
843.9218	886.1609	64185.2	63233.05
844.0669	888.1984	63874.9	62919.75
844.212	890.2352	64219.05	63266.35
844.3572	892.2714	63652.65	62694.1
844.5023	894.3069	63954.4	62999.8
844.6475	896.3416	63592	62635.4
844.7926	898.3757	63529.4	62574.1
844.9377	900.4091	62654.8	61695.3
845.0829	902.4418	63757.7	62799.6
845.228	904.4739	63131.55	62171.85
845.3732	906.5052	63206.85	62249.5
845.5183	908.5358	62791.55	61835.25
845.6635	910.5658	62497.65	61538.9
845.8086	912.595	62469.25	61510.4
845.9538	914.6236	61400.15	60444.2
846.0989	916.6515	62914.55	61959.75
846.2441	918.6786	61376.9	60416.6
846.3892	920.7051	61777.4	60817
846.5344	922.7309	61566	60603.85
846.6795	924.756	61799.55	60843.75
846.8246	926.7804	61353.75	60393.25
846.9698	928.8041	60378.45	59421.05
847.1149	930.8272	61129.3	60167.95
847.2601	932.8495	61140	60182.75
847.4052	934.8711	60264	59306.85
847.5504	936.892	59743.1	58787.4
847.6955	938.9123	60004.1	59047.8
847.8407	940.9318	59400.05	58441.7
847.9858	942.9506	59158	58203.55
848.131	944.9688	59260.35	58307.75
848.2761	946.9862	58230.45	57271.25
848.4213	949.003	58548.95	57594.2
848.5664	951.019	57669.35	56711.6
848.7115	953.0344	57884.4	56930.7
848.8567	955.0491	57785.5	56827.05
849.0018	957.063	58044.7	57090.25
849.147	959.0763	58115.35	57153.15
849.2921	961.0888	57536.85	56577.3
849.4373	963.1007	57985.85	57030.9
849.5824	965.1119	57892.3	56945.9
849.7275	967.1223	57471.6	56526.4
849.8727	969.1321	57961.75	57020.3
850.0178	971.1412	57234.95	56284.8
850.1629	973.1495	56927.15	55971.5
850.3081	975.1572	57183.5	56196.3
850.4532	977.1641	56990.05	56035.1
850.5983	979.1704	56746	55789.3
850.7435	981.1759	56818.05	55860.55
850.8886	983.1808	56408.6	55451.65
851.0337	985.1849	56476.75	55514.2
851.1788	987.1884	56558.3	55601.5
851.324	989.1911	56956.1	55999.55
851.4691	991.1932	56177.3	55221.2
851.6142	993.1945	56332	55376.15
851.7593	995.1951	56441.9	55487.25
851.9045	997.1951	55929.15	54967.75
852.0496	999.1943	55659.25	54704.8
852.1947	1001.1928	55439.65	54484.1
852.3398	1003.1906	55380.8	54430.15
852.4849	1005.1877	54848.65	53894.8
852.63	1007.1841	54560.55	53609.55
852.7751	1009.1798	54396.1	53440.9
852.9202	1011.1748	54084.45	53128.7
853.0653	1013.1691	53800.1	52844.45
853.2104	1015.1627	52993.65	52041.4
853.3555	1017.1556	52707.2	51755.75
853.5006	1019.1477	52686.1	51735.1
853.6457	1021.1392	52160.95	51213.95
853.7908	1023.1299	51770.1	50827.15
853.9359	1025.12	51840.35	50901.2
854.081	1027.1093	51441.5	50512.3
854.2261	1029.0979	51421.75	50495.25
854.3712	1031.0859	51316.35	50383.7
854.5163	1033.0731	50925.85	49983.6
854.6613	1035.0596	50798.8	49852.75
854.8064	1037.0454	50476.6	49527.2
854.9515	1039.0304	50166.25	49217.5
855.0965	1041.0148	49819.25	48871.6
855.2416	1042.9985	49578.55	48627.6
855.3867	1044.9814	49591.05	48638
855.5317	1046.9636	49227	48275.25
855.6768	1048.9452	49044.6	48096.8
855.8219	1050.926	48937.9	47988.1
855.9669	1052.9061	48731.25	47779.05
856.112	1054.8855	48632.55	47679.35
856.257	1056.8642	48413.1	47460.55
856.4021	1058.8421	48325.15	47371.75
856.5471	1060.8194	48225.95	47278.15
856.6921	1062.7959	48151.95	47198.2
856.8372	1064.7717	48015.4	47064.1
856.9822	1066.7469	47897.8	46944.4
857.1272	1068.7213	47758.65	46803.2
857.2723	1070.695	47534.25	46584.1
857.4173	1072.6679	47193.9	46244.35
857.5623	1074.6402	47122.55	46172.9
857.7073	1076.6117	46953.8	45996.25
857.8523	1078.5826	46896.25	45940.05
857.9973	1080.5527	46867.1	45912.5
858.1423	1082.5221	46851.35	45902.25
858.2873	1084.4908	46922.4	45973.95
858.4323	1086.4587	47068.55	46120.1
858.5773	1088.426	47127.35	46178.15
858.7223	1090.3925	46903.5	45950.35
858.8673	1092.3584	46753.65	45804.1
859.0123	1094.3235	46289.85	45340.1
859.1573	1096.2879	46069.15	45118.05
859.3022	1098.2515	45879.7	44926
859.4472	1100.2145	45789.2	44837.85
859.5922	1102.1767	45701.05	44746.4
859.7371	1104.1382	45728.55	44779.15
859.8821	1106.099	45737.1	44784.1
860.027	1108.0591	45774.2	44826.45
860.172	1110.0185	45813.25	44866.75
860.3169	1111.9771	45763.95	44813.85
860.4619	1113.9351	45295.3	44344.7
860.6068	1115.8923	44818.7	43867.85
860.7517	1117.8488	44316.8	43365.7
860.8967	1119.8045	43820.45	42875.15
861.0416	1121.7596	43613.25	42662.25
861.1865	1123.7139	43352.05	42404.35
861.3314	1125.6675	43249.15	42301.65
861.4763	1127.6204	43320.75	42370.25
861.6212	1129.5726	43184.65	42234.35
861.7661	1131.524	43128.75	42181.55
861.911	1133.4748	43114.05	42162.25
862.0559	1135.4248	42945.15	41997.8
862.2008	1137.3741	42926.85	41977.55
862.3457	1139.3226	42767.4	41817
862.4905	1141.2705	42742.35	41794.55
862.6354	1143.2176	42352	41396.8
862.7803	1145.164	42304.95	41352.8
862.9251	1147.1097	42216.35	41265.9
863.07	1149.0546	42178.15	41228.35
863.2148	1150.9989	42028	41077.55
863.3597	1152.9424	41876.4	40931.3
863.5045	1154.8852	41517.15	40567.2
863.6493	1156.8272	41230.7	40279.85
863.7942	1158.7686	41132.3	40176.9
863.939	1160.7092	40884.15	39936.7
864.0838	1162.6491	40680.55	39730.6
864.2286	1164.5883	40732.6	39785.7
864.3734	1166.5267	40697.1	39745.65
864.5182	1168.4644	40707.65	39759.5
864.663	1170.4014	40778.75	39828.95
864.8078	1172.3377	41014.1	40070.7
864.9526	1174.2732	41098.7	40153.2
865.0974	1176.2081	41235.95	40292.35
865.2421	1178.1421	41227.35	40278.35
865.3869	1180.0755	41292.9	40346.75
865.5317	1182.0082	41084.95	40138.05
865.6764	1183.9401	41028.5	40084.5
865.8212	1185.8713	40725.4	39785
865.9659	1187.8017	40358.8	39419.95
866.1106	1189.7315	39978.25	39052.25
866.2554	1191.6605	39493.25	38562.65
866.4001	1193.5888	39191.85	38255.8
866.5448	1195.5163	38992.9	38053.3
866.6895	1197.4432	38786.65	37843.65
866.8342	1199.3693	38596.65	37656.35
866.9789	1201.2947	38374.85	37421.35
867.1236	1203.2193	38206.05	37262.6
867.2683	1205.1432	38147.95	37202.4
867.413	1207.0664	38060.5	37114.7
867.5576	1208.9889	38007	37060.35
867.7023	1210.9106	37934.2	36992.5
867.847	1212.8316	37899.25	36956.25
867.9916	1214.7519	37901.85	36948.9
868.1363	1216.6715	37776.65	36833.95
868.2809	1218.5903	37671.8	36729.9
868.4255	1220.5084	37451.45	36509.75
868.5701	1222.4257	37408.45	36467.35
868.7148	1224.3424	37118.8	36177.8
868.8594	1226.2583	37069.6	36123.7
869.004	1228.1735	37037.8	36093.2
869.1486	1230.0879	37030.15	36084.15
869.2932	1232.0016	36993.8	36052.95
869.4377	1233.9146	36960.45	36015.1
869.5823	1235.8269	36742.15	35799.3
869.7269	1237.7384	36656	35710.85
869.8715	1239.6492	36227.3	35286.65
870.016	1241.5592	36073	35129.15
870.1606	1243.4686	35840.1	34896.65
870.3051	1245.3772	35750.95	34806.5
870.4496	1247.285	35527.7	34584.2
870.5941	1249.1922	35354.1	34410.35
870.7387	1251.0986	35268.65	34324.85
870.8832	1253.0042	35108.4	34167.55
871.0277	1254.9092	35099.55	34160.3
871.1722	1256.8134	35094.8	34155.4
871.3167	1258.7169	35156.4	34217.55
871.4611	1260.6196	35159.25	34219.85
871.6056	1262.5216	35322.75	34380.5
871.7501	1264.4229	35400.1	34457.55
871.8945	1266.3234	35471.6	34530.9
872.039	1268.2232	35444	34499.6
872.1834	1270.1223	35368.7	34422.65
872.3278	1272.0207	35215.7	34271.35
872.4723	1273.9183	35096.75	34146.6
872.6167	1275.8151	34894.35	33951.65
872.7611	1277.7113	34747	33806.4
872.9055	1279.6067	34499.75	33559.6
873.0499	1281.5014	34201.85	33263.6
873.1943	1283.3953	34026.15	33082.15
873.3386	1285.2885	33842.45	32905.45
873.483	1287.181	33648	32709.95
873.6274	1289.0727	33633.15	32695.65
873.7717	1290.9637	33585.2	32646.4
873.9161	1292.854	33635	32693.55
874.0604	1294.7435	33686.45	32744.2
874.2047	1296.6323	33804.65	32861.05
874.349	1298.5204	34058.5	33114.15
874.4933	1300.4077	34229.3	33289
874.6376	1302.2943	34346.55	33408.2
874.7819	1304.1802	34432.7	33491.8
874.9262	1306.0653	34244.7	33303.1
875.0705	1307.9497	34026.5	33085.5
875.2147	1309.8333	33923.05	32984.45
875.359	1311.7162	33836.15	32894.85
875.5032	1313.5984	33862.15	32921
875.6475	1315.4798	33911.85	32961.65
875.7917	1317.3605	34035.9	33079.3
875.9359	1319.2405	34154.5	33213.75
876.0801	1321.1197	34170.15	33227.45
876.2243	1322.9982	34020.75	33078.7
876.3685	1324.876	33989.5	33048.7
876.5127	1326.753	33823	32883.7
876.6569	1328.6293	33869.95	32926.95
876.801	1330.5048	33904.2	32958.8
876.9452	1332.3796	33748.9	32809.45
877.0893	1334.2537	33695.45	32729.55
877.2335	1336.127	33535.75	32594.85
877.3776	1337.9996	33384.15	32447.1
877.5217	1339.8714	33282.7	32343.05
877.6658	1341.7426	33167	32177.3
877.8099	1343.6129	33014.2	32071.55
877.954	1345.4826	32859.3	31918.4
878.0981	1347.3515	32803.6	31861.25
878.2422	1349.2196	32657.75	31716.9
878.3862	1351.087	32603.6	31664.15
878.5303	1352.9537	32577.35	31638.1
878.6743	1354.8197	32656.55	31715.6
878.8184	1356.6849	32806.6	31864.95
878.9624	1358.5493	32804.2	31862.3
879.1064	1360.4131	32732.95	31794.35
879.2504	1362.276	32518.2	31579.45
879.3944	1364.1383	32308.75	31372.45
879.5384	1365.9998	31980.3	31034.85
879.6823	1367.8606	31610.3	30672.15
879.8263	1369.7206	31338.2	30399.1
879.9702	1371.5799	31041.2	30097.65
880.1142	1373.4384	30871.45	29931.2
880.2581	1375.2962	30636.2	29695.25
880.402	1377.1533	30302.65	29366.4
880.5459	1379.0096	29883	28946.6
880.6898	1380.8652	29562.35	28630
880.8337	1382.7201	29287.95	28351.75
880.9776	1384.5742	29007.4	28069.4
881.1215	1386.4275	28703.45	27764.6
881.2653	1388.2802	28511.3	27575.15
881.4092	1390.132	28308.8	27371.25
881.553	1391.9832	28184.9	27243.35
881.6968	1393.8336	27995.95	27058.25
881.8406	1395.6832	27876.5	26936.4
881.9844	1397.5322	27728.1	26791.3
882.1282	1399.3803	27670.2	26729.95
882.272	1401.2278	27468.6	26532.3
882.4158	1403.0745	27444.45	26510.65
882.5595	1404.9204	27280.45	26348
882.7033	1406.7656	27254.35	26318.3
882.847	1408.6101	27146.3	26211.1
882.9908	1410.4538	27073.4	26135.8
883.1345	1412.2968	27035.6	26097.4
883.2782	1414.139	27003.85	26068.5
883.4219	1415.9805	27032.95	26095.55
883.5656	1417.8213	26999.95	26040.45
883.7092	1419.6613	27041.7	26104.15
883.8529	1421.5006	27139.65	26205.75
883.9965	1423.3391	27342.8	26409
884.1402	1425.1769	27586.05	26651.55
884.2838	1427.0139	28082.75	27144.8
884.4274	1428.8502	28645.9	27710.7
884.571	1430.6858	29170.5	28234.1
884.7146	1432.5206	29499.3	28562.25
884.8582	1434.3547	29750.85	28815.35
885.0018	1436.188	29783.6	28850.8
885.1453	1438.0206	29666.4	28730.55
885.2889	1439.8524	29365.8	28433.75
885.4324	1441.6835	29285.4	28351.85
885.5759	1443.5139	29069.85	28131.2
885.7194	1445.3435	28972.95	28039
885.8629	1447.1724	28887.65	27956.6
886.0064	1449.0005	28764.6	27831.25
886.1499	1450.8279	28588.05	27655.1
886.2933	1452.6545	28493.8	27559.7
886.4368	1454.4804	28525.75	27594.8
886.5802	1456.3056	28441.35	27502.65
886.7237	1458.13	28269.8	27337.6
886.8671	1459.9536	28099.5	27164.15
887.0105	1461.7766	27637.7	26704.7
887.1539	1463.5987	27132.5	26197.85
887.2972	1465.4202	26723.95	25791.3
887.4406	1467.2409	26267.2	25333.2
887.584	1469.0608	25996.35	25065.8
887.7273	1470.88	25648.65	24712.3
887.8706	1472.6984	25396.65	24462.75
888.0139	1474.5161	25095.1	24159.25
888.1572	1476.3331	24906.85	23974.65
888.3005	1478.1493	24711.75	23777.65
888.4438	1479.9648	24558.6	23622.2
888.5871	1481.7795	24414.15	23477
888.7303	1483.5935	24318.35	23385.1
888.8736	1485.4067	24237.75	23303.8
889.0168	1487.2192	24167.05	23232
889.16	1489.031	24084.25	23149.65
889.3032	1490.842	23977.4	23045.7
889.4464	1492.6522	23947.15	23017.1
889.5896	1494.4618	23850.05	22916.7
889.7327	1496.2705	23810.95	22878.85
889.8759	1498.0785	23719.3	22785.3
890.019	1499.8858	23650.6	22719.6
890.1622	1501.6924	23603.55	22672.95
890.3053	1503.4981	23552.7	22622.4
890.4484	1505.3032	23450.4	22516.45
890.5914	1507.1075	23387.4	22453
890.7345	1508.911	23335.3	22404.8
890.8776	1510.7138	23249.2	22319.85
891.0206	1512.5159	23088	22156.2
891.1637	1514.3172	23007.25	22076.9
891.3067	1516.1178	22911.45	21983.75
891.4497	1517.9176	22837.35	21901.7
891.5927	1519.7166	22705.2	21777.45
891.7357	1521.515	22658.3	21721.5
891.8786	1523.3126	22630.65	21700.85
892.0216	1525.1094	22497.1	21566.35
892.1645	1526.9055	22404.1	21475.75
892.3074	1528.7008	22301.9	21372.75
892.4503	1530.4954	22202.45	21268.6
892.5932	1532.2893	22169.3	21242.15
892.7361	1534.0824	22017.85	21086.85
892.879	1535.8747	22048.3	21123
893.0218	1537.6663	21971.45	21048.45
893.1647	1539.4572	21871.7	20942.8
893.3075	1541.2473	21802.85	20876.25
893.4503	1543.0367	21735.75	20811.65
893.5931	1544.8253	21650.05	20718.3
893.7359	1546.6132	21618.15	20690.5
893.8787	1548.4003	21535.45	20598.95
894.0214	1550.1867	21513.4	20581.65
894.1642	1551.9723	21484.95	20557.85
894.3069	1553.7572	21431.8	20506.15
894.4496	1555.5414	21378.9	20455.15
894.5923	1557.3247	21306.65	20385.6
894.735	1559.1074	21345.9	20424.55
894.8777	1560.8893	21315.9	20397.7
895.0204	1562.6705	21320.75	20398.2
895.163	1564.4509	21270	20348.9
895.3056	1566.2305	21305.1	20387.9
895.4482	1568.0094	21430	20513.25
895.5908	1569.7876	21494.6	20576.4
895.7334	1571.565	21508.15	20586.35
895.876	1573.3417	21518.8	20599
896.0186	1575.1176	21499.8	20583.6
896.1611	1576.8928	21415.45	20497.7
896.3036	1578.6672	21272.5	20361.3
896.4461	1580.4409	21105.3	20195.3
896.5886	1582.2138	20925.45	20007.7
896.7311	1583.986	20747.8	19832.5
896.8736	1585.7575	20600.95	19688.25
897.0161	1587.5282	20466.1	19556.45
897.1585	1589.2981	20390.2	19477.75
897.3009	1591.0673	20252.9	19342.75
897.4433	1592.8358	20187.25	19274.25
897.5857	1594.6035	20108.3	19190.9
897.7281	1596.3704	20006.5	19091.25
897.8705	1598.1366	19970.9	19054.6
898.0128	1599.9021	20016.5	19101.75
898.1551	1601.6668	19951	19034.4
898.2975	1603.4308	19939.4	19022
898.4398	1605.194	19964.1	19046.6
898.5821	1606.9564	20005.2	19096.1
898.7243	1608.7182	20047.1	19139.05
898.8666	1610.4791	20108.55	19207.3
899.0088	1612.2394	20161.45	19260
899.1511	1613.9988	20306.5	19403.1
899.2933	1615.7576	20520.35	19610.75
899.4355	1617.5156	20704.1	19785.35
899.5776	1619.2728	20951.5	20035.95
899.7198	1621.0293	21092.05	20175.5
899.862	1622.785	21119.2	20207.45
900.0041	1624.54	20992.65	20085.15
900.1462	1626.2942	20824.95	19915.8
900.2883	1628.0477	20480.4	19573
900.4304	1629.8005	20193	19282.75
900.5725	1631.5525	19923.4	19015.95
900.7145	1633.3037	19643.2	18736.3
900.8566	1635.0542	19428.9	18520.05
900.9986	1636.804	19221.35	18314.3
901.1406	1638.553	19201.05	18219.55
901.2826	1640.3013	18992.15	18084.3
901.4245	1642.0488	18875.85	17965.5
901.5665	1643.7955	18819.85	17913.85
901.7085	1645.5416	18768.2	17861.4
901.8504	1647.2868	18794.4	17886.95
901.9923	1649.0313	18835.65	17927.9
902.1342	1650.7751	18934.5	18021.65
902.2761	1652.5181	19056	18151.55
902.4179	1654.2604	19214.05	18306.3
902.5598	1656.0019	19466.3	18558.8
902.7016	1657.7427	19832	18923.2
902.8434	1659.4828	20171	19264.5
902.9852	1661.222	20354.65	19445.6
903.127	1662.9606	20406.35	19498.1
903.2687	1664.6984	20232.95	19321.9
903.4105	1666.4354	19918.6	19006.8
903.5522	1668.1717	19434.9	18521
903.6939	1669.9072	18934.2	18022.6
903.8356	1671.642	18536.55	17623.95
903.9773	1673.3761	18200.3	17291.7
904.119	1675.1094	17900	16991.7
904.2606	1676.8419	17680.35	16774.1
904.4022	1678.5737	17510.15	16603.4
904.5439	1680.3048	17333.1	16423.05
904.6855	1682.0351	17191.1	16281.6
904.827	1683.7646	17068.5	16156
904.9686	1685.4934	16994.5	16087.8
905.1101	1687.2215	16890.15	15982.25
905.2517	1688.9488	16766.05	15858.55
905.3932	1690.6754	16686.85	15781.6
905.5347	1692.4012	16659.1	15751.1
905.6761	1694.1263	16595.85	15685.9
905.8176	1695.8506	16542.95	15636.85
905.9591	1697.5742	16483.55	15579.9
906.1005	1699.297	16356.55	15453.75
906.2419	1701.0191	16286.7	15385.85
906.3833	1702.7404	16235.75	15333.05
906.5246	1704.461	16127.65	15221.4
906.666	1706.1808	16059.55	15151.95
906.8073	1707.8999	15992.55	15087.85
906.9487	1709.6182	15941.6	15042.15
907.09	1711.3358	15857.25	14957.75
907.2313	1713.0527	15850.95	14951.05
907.3725	1714.7688	15774.95	14870.85
907.5138	1716.4841	15705.8	14802.25
907.655	1718.1987	15675.4	14765.9
907.7962	1719.9126	15635.95	14737.3
907.9374	1721.6257	15557.35	14654.5
908.0786	1723.338	15545.55	14645.75
908.2198	1725.0496	15419.5	14518.4
908.3609	1726.7605	15406.8	14505.6
908.502	1728.4706	15367.45	14465.25
908.6431	1730.18	15248.65	14345.5
908.7842	1731.8886	15189.55	14291.5
908.9253	1733.5964	15189.5	14268.5
909.0664	1735.3036	15136.7	14234.8
909.2074	1737.0099	15118.45	14218.6
909.3484	1738.7156	15067.35	14168.2
909.4894	1740.4204	15002.85	14100.95
909.6304	1742.1246	14955.95	14052.4
909.7714	1743.8279	14903.65	14005.7
909.9123	1745.5306	14860.95	13961.55
910.0532	1747.2325	14809.5	13908.85
910.1941	1748.9336	14775.35	13874.85
910.335	1750.634	14727.6	13824.2
910.4759	1752.3336	14691.75	13792.1
910.6168	1754.0325	14690	13795.75
910.7576	1755.7307	14667.05	13768.7
910.8984	1757.4281	14632.25	13732.7
911.0392	1759.1247	14586.5	13678.55
911.18	1760.8206	14529.4	13621.8
911.3208	1762.5158	14539.35	13633.75
911.4615	1764.2102	14433.25	13535.15
911.6022	1765.9039	14387.9	13489.4
911.7429	1767.5968	14353.7	13458.75
911.8836	1769.289	14332.85	13435.45
912.0243	1770.9804	14283.2	13384.6
912.1649	1772.6711	14262.65	13361.55
912.3056	1774.361	14204.9	13303.25
912.4462	1776.0502	14188.85	13287.65
912.5868	1777.7386	14159.45	13259.7
912.7274	1779.4263	14093.4	13195.5
912.8679	1781.1132	14086.95	13191.2
913.0084	1782.7994	14013.7	13116.25
913.149	1784.4849	13995.6	13099.75
913.2895	1786.1696	13949.7	13046.6
913.4299	1787.8535	13956.95	13062.6
913.5704	1789.5367	13863.1	12968.95
913.7108	1791.2192	13872.1	12978.05
913.8513	1792.9009	13835.4	12912.75
913.9917	1794.5818	13798.6	12897.15
914.132	1796.2621	13768.75	12871.6
914.2724	1797.9415	13716.2	12817.6
914.4128	1799.6202	13692.25	12792.8
914.5531	1801.2982	13659.65	12760.5
914.6934	1802.9755	13641.45	12740.95
914.8337	1804.6519	13586.65	12688.3
914.9739	1806.3277	13485.55	12589.15
915.1142	1808.0027	13455.75	12562.9
915.2544	1809.6769	13452.4	12560.8
915.3946	1811.3504	13409.65	12515.45
915.5348	1813.0231	13358.25	12463.1
915.675	1814.6951	13343.05	12447
915.8151	1816.3664	13361.1	12460.95
915.9553	1818.0369	13313.15	12415.2
916.0954	1819.7067	13273.8	12376.15
916.2355	1821.3757	13249.85	12350.3
916.3755	1823.044	13218.1	12319.95
916.5156	1824.7115	13148.15	12249.35
916.6556	1826.3783	13096.55	12200.1
916.7956	1828.0443	13069.65	12174.25
916.9356	1829.7096	13055.75	12154.05
917.0756	1831.3741	13009.35	12110.5
917.2155	1833.0379	12996	12101.45
917.3555	1834.701	12951.05	12056.25
917.4954	1836.3633	12952.1	12058.05
917.6353	1838.0248	12894.95	11997.5
917.7751	1839.6856	12870	11973.6
917.915	1841.3457	12839.5	11945.75
918.0548	1843.005	12826	11928.65
918.1946	1844.6636	12821.55	11926.75
918.3344	1846.3214	12757.2	11859.5
918.4742	1847.9785	12781.5	11884.25
918.6139	1849.6349	12744.7	11848.65
918.7537	1851.2904	12726.45	11818.85
918.8934	1852.9453	12658.3	11757.15
919.0331	1854.5994	12622	11720.35
919.1727	1856.2528	12637.7	11734
919.3124	1857.9054	12569.8	11671.9
919.452	1859.5572	12582.1	11685.1
919.5916	1861.2083	12547.6	11650.25
919.7312	1862.8587	12565.45	11667.5
919.8708	1864.5084	12490.65	11589.25
920.0103	1866.1572	12449.55	11549.25
920.1498	1867.8054	12375.5	11477.75
920.2893	1869.4528	12363	11463.9
920.4288	1871.0994	12338.3	11440.45
920.5683	1872.7453	12321.1	11421.55
920.7077	1874.3905	12303.25	11388.9
920.8471	1876.0349	12230.9	11332.05
920.9865	1877.6786	12244.45	11343.05
921.1259	1879.3215	12199.5	11302
921.2653	1880.9637	12180.15	11281.3
921.4046	1882.6051	12152.15	11256.05
921.5439	1884.2458	12111.35	11215.05
921.6832	1885.8858	12071.55	11175.5
921.8225	1887.525	12054.65	11156.4
921.9617	1889.1634	12006.7	11109.55
922.101	1890.8011	11956.2	11057.95
922.2402	1892.4381	11931.6	11033.45
922.3794	1894.0743	11920.6	11025.2
922.5185	1895.7098	11890.7	10993.3
922.6577	1897.3446	11856.1	10958.55
922.7968	1898.9786	11829.2	10926.5
922.9359	1900.6118	11815.75	10919.1
923.075	1902.2443	11748.85	10848.7
923.214	1903.8761	11704.7	10808.55
923.3531	1905.5071	11648.05	10751.1
923.4921	1907.1374	11641.9	10746.15
923.6311	1908.7669	11587.05	10690.25
923.77	1910.3957	11577.55	10683.35
923.909	1912.0237	11530.85	10636
924.0479	1913.651	11491.7	10594.65
924.1868	1915.2776	11442.6	10549.35
924.3257	1916.9034	11412.25	10518.4
924.4646	1918.5285	11364.65	10471.4
924.6034	1920.1528	11308.05	10411.3
924.7422	1921.7764	11303.65	10406.85
924.881	1923.3992	11262.35	10366.85
925.0198	1925.0213	11201.25	10304.8
925.1586	1926.6427	11149.8	10254.8
925.2973	1928.2633	11203.3	10237
925.436	1929.8832	11117.6	10219.05
925.5747	1931.5023	11046.9	10151.95
925.7134	1933.1207	11011.05	10115.2
925.852	1934.7383	11009	10114.35
925.9906	1936.3552	10956.95	10063.45
926.1292	1937.9714	10929.3	10033.4
926.2678	1939.5868	10889	9994.45
926.4064	1941.2015	10846.85	9948.8
926.5449	1942.8154	10812	9916.15
926.6834	1944.4286	10729.65	9832.75
926.8219	1946.041	10763.65	9845.9
926.9604	1947.6528	10678.1	9779.1
927.0988	1949.2637	10661.6	9767.4
927.2372	1950.8739	10616.7	9721.35
927.3756	1952.4834	10583.95	9686.85
927.514	1954.0921	10572.8	9679.05
927.6523	1955.7001	10516.65	9618.8
927.7907	1957.3074	10480.45	9588.8
927.929	1958.9139	10434.65	9545.45
928.0673	1960.5197	10420.65	9527.6
928.2055	1962.1247	10364.75	9471.8
928.3438	1963.729	10332.25	9440.1
928.482	1965.3325	10287.3	9372.75
928.6202	1966.9353	10274.75	9383.95
928.7584	1968.5374	10219.3	9326.95
928.8965	1970.1387	10199.5	9306.5
929.0346	1971.7393	10163.3	9270.6
929.1727	1973.3392	10153.4	9260.6
929.3108	1974.9383	10095.9	9205.4
929.4489	1976.5366	10063.45	9171.45
929.5869	1978.1342	10024.15	9131.75
929.7249	1979.7311	10008.45	9116.45
929.8629	1981.3273	9965.45	9075.8
930.0009	1982.9227	9959.6	9067.55
930.1388	1984.5173	9896.3	9005.9
930.2767	1986.1112	9860	8970.5
930.4146	1987.7044	9851.4	8960.2
930.5525	1989.2968	9843.35	8952.2
930.6904	1990.8885	9775.15	8881.65
930.8282	1992.4795	9783.35	8893.15
930.966	1994.0697	9714.35	8826.25
931.1038	1995.6592	9693	8803.7
931.2415	1997.2479	9691.8	8801.4
931.3793	1998.8359	9656	8767.1
931.517	2000.4232	9609.9	8723.15
931.6547	2002.0097	9597.9	8715.15
931.7923	2003.5955	9550.05	8661.6
931.93	2005.1805	9552.9	8664.85
932.0676	2006.7648	9492	8604.55
932.2052	2008.3484	9467.95	8578.3
932.3427	2009.9312	9479.05	8592.2
932.4803	2011.5133	9419	8533.95
932.6178	2013.0946	9417.45	8530.7
932.7553	2014.6752	9356.5	8472
932.8928	2016.2551	9349	8460.95
933.0302	2017.8342	9307.15	8421.7
933.1676	2019.4126	9274.35	8388.6
933.305	2020.9902	9244.9	8360.85
933.4424	2022.5672	9213.4	8327
933.5798	2024.1433	9211.6	8317.95
933.7171	2025.7188	9170.25	8286
933.8544	2027.2935	9140.5	8254.85
933.9917	2028.8674	9126.15	8243.65
934.129	2030.4406	9074.4	8190.4
934.2662	2032.0131	9065.95	8181.7
934.4034	2033.5849	9038.1	8148.35
934.5406	2035.1559	9038.55	8154.15
934.6778	2036.7261	8992.65	8106.1
934.8149	2038.2957	8975.95	8088.65
934.952	2039.8645	8944.1	8055.65
935.0891	2041.4325	8965.6	8074.85
935.2262	2042.9998	8904.15	8018
935.3632	2044.5664	8887.95	8000.15
935.5002	2046.1323	8884.1	8000.95
935.6372	2047.6974	8820.7	7937
935.7742	2049.2617	8802.6	7918.55
935.9111	2050.8254	8793.9	7904.2
936.048	2052.3883	8786.7	7898.35
936.1849	2053.9504	8756.3	7868.5
936.3218	2055.5118	8711.55	7822.8
936.4586	2057.0725	8671.55	7781.5
936.5955	2058.6325	8663.65	7777.6
936.7323	2060.1917	8639.1	7753.05
936.869	2061.7502	8625.45	7737
937.0058	2063.3079	8570.65	7686.25
937.1425	2064.8649	8559.9	7670.35
937.2792	2066.4212	8532.9	7644.55
937.4159	2067.9767	8500.35	7615.1
937.5525	2069.5315	8466.7	7578.75
937.6891	2071.0856	8442.25	7555.5
937.8257	2072.6389	8411.8	7526.5
937.9623	2074.1915	8354.4	7470.1
938.0989	2075.7433	8317.75	7430.15
938.2354	2077.2945	8308.35	7422.75
938.3719	2078.8448	8307.25	7421.2
938.5084	2080.3945	8261.15	7373.4
938.6448	2081.9434	8259.9	7371.05
938.7812	2083.4916	8254.55	7364.1
938.9176	2085.039	8216.8	7322.45
939.054	2086.5857	8189.9	7296
939.1903	2088.1317	8181.6	7289.5
939.3267	2089.677	8155.55	7261.6
939.463	2091.2215	8122.3	7230.95
939.5992	2092.7652	8108.25	7216.25
939.7355	2094.3083	8090.7	7196.95
939.8717	2095.8506	8065.6	7175.2
940.0079	2097.3921	8088.45	7198.6
940.1441	2098.933	8046.4	7156.25
940.2802	2100.4731	8028.1	7138.2
940.4163	2102.0124	8003.05	7105.65
940.5524	2103.5511	7972.8	7083.6
940.6885	2105.089	7958.7	7068.45
940.8245	2106.6261	7948.35	7059.35
940.9606	2108.1626	7900.6	7010
941.0965	2109.6983	7922.8	7006
941.2325	2111.2332	7891.75	7000.4
941.3684	2112.7675	7848.55	6957.3
941.5044	2114.301	7851.9	6957.45
941.6403	2115.8337	7819.5	6928.35
941.7761	2117.3657	7812.4	6923.05
941.912	2118.897	7792.9	6899.3
942.0478	2120.4276	7765.05	6868.05
942.1835	2121.9575	7726.9	6831.9
942.3193	2123.4866	7725.45	6820.05
942.455	2125.0149	7689.5	6797.65
942.5907	2126.5426	7654.75	6765.35
942.7264	2128.0695	7633.7	6742.85
942.8621	2129.5956	7633.6	6749.7
942.9977	2131.1211	7626.75	6734
943.1333	2132.6458	7594	6706
943.2689	2134.1698	7588.05	6695.9
943.4044	2135.693	7562.2	6668.2
943.54	2137.2155	7566.95	6671.9
943.6755	2138.7373	7531.35	6639.35
943.8109	2140.2584	7483.7	6595.75
943.9464	2141.7787	7480.55	6590.4
944.0818	2143.2983	7443.35	6557.95
944.2172	2144.8171	7441.95	6558.45
944.3526	2146.3353	7402.3	6513.15
944.4879	2147.8527	7380.65	6493.6
944.6232	2149.3693	7372.25	6479.9
944.7585	2150.8853	7353.05	6460.9
944.8938	2152.4005	7320.95	6430.25
945.029	2153.9149	7298.85	6408.35
945.1642	2155.4287	7374	6369.6
945.2994	2156.9417	7298.6	6406.9
945.4346	2158.454	7257.2	6366.35
945.5697	2159.9655	7218.35	6330.35
945.7048	2161.4764	7238.15	6349.8
945.8399	2162.9865	7194.9	6306.8
945.9749	2164.4958	7156.55	6266.25
946.1099	2166.0045	7151.5	6260.15
946.2449	2167.5124	7119.9	6232.2
946.3799	2169.0195	7118.9	6228.8
946.5148	2170.526	7104.7	6214
946.6498	2172.0317	7064.95	6173.7
946.7846	2173.5367	7052.25	6161.9
946.9195	2175.0409	7032.65	6142.8
947.0543	2176.5445	7027.5	6137.7
947.1891	2178.0473	7004.5	6113.55
947.3239	2179.5494	6974.65	6081.8
947.4587	2181.0507	6944.85	6053.2
947.5934	2182.5513	6939.7	6050.15
947.7281	2184.0512	6934.5	6046.45
947.8628	2185.5504	6872.95	5981.55
947.9974	2187.0488	6864.6	5977.05
948.132	2188.5465	6841.8	5953.15
948.2666	2190.0435	6827.45	5939.25
948.4012	2191.5397	6803.75	5913
948.5357	2193.0353	6783.5	5892.3
948.6702	2194.5301	6766	5871.45
948.8047	2196.0241	6738.05	5846.1
948.9392	2197.5175	6729.45	5835.85
949.0736	2199.0101	6698.5	5801.55
949.208	2200.502	6664.15	5774.25
949.3424	2201.9931	6643.85	5755.75
949.4767	2203.4835	6624.15	5734.8
949.611	2204.9733	6612.3	5719.45
949.7453	2206.4622	6606.8	5719.75
949.8796	2207.9505	6569	5677.8
950.0138	2209.438	6524.25	5639.4
950.148	2210.9248	6505.55	5616.2
950.2822	2212.4109	6504	5613.6
950.4164	2213.8962	6495.8	5601.6
950.5505	2215.3809	6479.8	5583.7
950.6846	2216.8648	6458.2	5564.1
950.8186	2218.3479	6433.35	5533.6
950.9527	2219.8304	6398.9	5502.15
951.0867	2221.3121	6399.6	5502.65
951.2207	2222.7931	6375.2	5482.8
951.3546	2224.2733	6349.9	5458.4
951.4886	2225.7529	6328.75	5437.1
951.6225	2227.2317	6315.7	5423.35
951.7563	2228.7098	6297.05	5408.4
951.8902	2230.1872	6250.65	5363.45
952.024	2231.6638	6260.85	5375.75
952.1578	2233.1397	6228.85	5337.6
952.2916	2234.6149	6221.55	5332.9
952.4253	2236.0894	6202.7	5312.8
952.559	2237.5632	6205.7	5313.7
952.6927	2239.0362	6159.9	5269.9
952.8263	2240.5085	6141.8	5249.55
952.9599	2241.9801	6120.45	5229.4
953.0935	2243.4509	6108.1	5216.6
953.2271	2244.921	6091.4	5198.2
953.3606	2246.3904	6064.1	5167
953.4941	2247.8591	6030.35	5138.5
953.6276	2249.3271	6047.45	5156.95
953.7611	2250.7943	6019.35	5125
953.8945	2252.2608	6009.1	5116.75
954.0279	2253.7266	5985.25	5093
954.1612	2255.1917	5958	5067.1
954.2946	2256.656	5934.3	5043.3
954.4279	2258.1197	5906.85	5017.1
954.5612	2259.5826	5912	5020.85
954.6944	2261.0447	5909.8	5018.75
954.8276	2262.5062	5864.35	4970.15
954.9608	2263.9669	5858.65	4963.4
955.094	2265.4269	5848.25	4957.65
955.2271	2266.8862	5834.1	4944.35
955.3602	2268.3448	5820.8	4932
955.4933	2269.8026	5811.9	4924.5
955.6264	2271.2598	5800.05	4911.4
955.7594	2272.7162	5797	4906.75
955.8924	2274.1719	5759.35	4865.3
956.0253	2275.6268	5748.3	4855.55
956.1583	2277.0811	5720.4	4827
956.2912	2278.5346	5710.05	4819.65
956.4241	2279.9874	5709.3	4819.9
956.5569	2281.4395	5706.85	4819.1
956.6897	2282.8908	5670.5	4777.85
956.8225	2284.3414	5659.35	4769.4
956.9553	2285.7914	5642.45	4751.35
957.088	2287.2406	5640.2	4746.05
957.2207	2288.689	5634.7	4739.5
957.3534	2290.1368	5605.8	4709.95
957.486	2291.5838	5604.15	4707.95
957.6186	2293.0302	5590.25	4694.45
957.7512	2294.4758	5558.95	4665.35
957.8838	2295.9206	5516.9	4621.05
958.0163	2297.3648	5512.35	4623.6
958.1488	2298.8082	5499.2	4607.4
958.2813	2300.251	5487.1	4597.05
958.4137	2301.693	5470.75	4574.6
958.5461	2303.1343	5460.05	4566.1
958.6785	2304.5748	5451.3	4561.9
958.8108	2306.0147	5439.75	4551.45
958.9432	2307.4538	5434.75	4542.15
959.0754	2308.8922	5383.75	4496.1
959.2077	2310.3299	5387.35	4498
959.3399	2311.7669	5352	4461.8
959.4721	2313.2031	5353.8	4465
959.6043	2314.6387	5340.45	4448.1
959.7365	2316.0735	5304.45	4414.35
959.8686	2317.5076	5340.05	4447.75
960.0006	2318.941	5321.45	4428.5
960.1327	2320.3737	5272.4	4377.1
960.2647	2321.8056	5264.1	4370.55
960.3967	2323.2369	5234.2	4341.75
960.5287	2324.6674	5216	4323.9
960.6606	2326.0972	5210.15	4316
960.7925	2327.5263	5217.75	4325.85
960.9244	2328.9547	5184.9	4291.4
961.0562	2330.3823	5170.1	4276.3
961.1881	2331.8092	5191.65	4291.85
961.3198	2333.2355	5144.95	4248.55
961.4516	2334.661	5137.4	4244.55
961.5833	2336.0858	5138.3	4242.3
961.715	2337.5098	5114.5	4224.15
961.8467	2338.9332	5117.05	4224.7
961.9783	2340.3558	5097.2	4203.2
962.1099	2341.7778	5058.45	4168.6
962.2415	2343.199	5040.15	4147.35
962.373	2344.6195	5039.95	4150.15
962.5045	2346.0393	5026.8	4136.9
962.636	2347.4583	5027.35	4135.8
962.7675	2348.8767	4999.05	4104.35
962.8989	2350.2943	5001.75	4106.45
963.0303	2351.7113	4997.6	4102.3
963.1617	2353.1275	4966.65	4072.5
963.293	2354.543	4996.7	4079.05
963.4243	2355.9578	4976.15	4083.15
963.5556	2357.3718	4915.85	4025.6
963.6868	2358.7852	4904.4	4012.2
963.818	2360.1978	4892.55	4002.05
963.9492	2361.6098	4866.3	3975.95
964.0803	2363.021	4867.25	3974.15
964.2114	2364.4315	4855.9	3963.7
964.3425	2365.8413	4846.8	3954.4
964.4736	2367.2504	4830.6	3940.65
964.6046	2368.6587	4793.45	3904.25
964.7356	2370.0664	4785.4	3894.8
964.8666	2371.4733	4765.05	3873.2
964.9975	2372.8795	4752.9	3861.85
965.1284	2374.285	4739.9	3848.85
965.2593	2375.6899	4723.3	3834.85
965.3901	2377.0939	4687	3797.8
965.5209	2378.4973	4683.55	3795.6
965.6517	2379.9	4673.2	3782.25
965.7825	2381.3019	4658.4	3767.9
965.9132	2382.7032	4631.95	3742.8
966.0439	2384.1037	4622	3736.3
966.1745	2385.5035	4608.05	3720.3
966.3051	2386.9027	4604.3	3718.6
966.4357	2388.3011	4605.15	3714.4
966.5663	2389.6987	4563.6	3674.85
966.6968	2391.0957	4564.45	3676.1
966.8273	2392.492	4550.55	3662.75
966.9578	2393.8876	4515.95	3627.8
967.0882	2395.2824	4503.75	3613.95
967.2186	2396.6765	4505.65	3615.55
967.349	2398.07	4476.1	3586.25
967.4793	2399.4627	4484.3	3589.2
967.6097	2400.8547	4461.9	3571.4
967.7399	2402.246	4444	3549.15
967.8702	2403.6366	4413.8	3522.95
968.0004	2405.0265	4411.5	3521.4
968.1306	2406.4156	4384.95	3492.55
968.2607	2407.8041	4383.85	3489.85
968.3909	2409.1918	4365.5	3473.85
968.521	2410.5789	4367.3	3477.5
968.651	2411.9652	4359.2	3467.8
968.781	2413.3508	4331.1	3439.45
968.911	2414.7358	4307.2	3417.55
969.041	2416.12	4310.3	3419.1
969.1709	2417.5035	4297.25	3407.1
969.3008	2418.8863	4288.95	3396.9
969.4307	2420.2684	4269.45	3379.45
969.5606	2421.6497	4238.15	3347.65
969.6904	2423.0304	4236.5	3348
969.8201	2424.4104	4216	3323.8
969.9499	2425.7896	4210.5	3318.3
970.0796	2427.1682	4191.85	3302.65
970.2093	2428.546	4191.9	3300.4
970.3389	2429.9232	4169.75	3279.7
970.4685	2431.2996	4164.4	3275.15
970.5981	2432.6753	4161.5	3270.35
970.7277	2434.0503	4153.9	3263.6
970.8572	2435.4246	4131.2	3241.75
970.9867	2436.7982	4124.1	3231.8
971.1161	2438.1711	4111.2	3220.3
971.2456	2439.5433	4093.55	3202.35
971.375	2440.9148	4076.6	3182.45
971.5043	2442.2856	4061.8	3170.1
971.6336	2443.6557	4052.15	3160.75
971.7629	2445.025	4039.85	3150.55
971.8922	2446.3937	4031.9	3141.4
972.0214	2447.7617	4034.9	3143.05
972.1506	2449.1289	4031.35	3140.4
972.2798	2450.4955	4026.55	3134.15
972.4089	2451.8613	4001.85	3112.45
972.538	2453.2265	3999.5	3106
972.6671	2454.5909	3994.45	3103.7
972.7961	2455.9546	3973.8	3084.35
972.9251	2457.3177	3952.6	3063.15
973.0541	2458.68	3961.75	3068.4
973.1831	2460.0416	3971.8	3081
973.312	2461.4025	3954	3062.5
973.4408	2462.7627	3948.05	3048.35
973.5697	2464.1222	3927.7	3040.6
973.6985	2465.4811	3906.85	3017.1
973.8273	2466.8392	3901.2	3014.55
973.956	2468.1966	3909.95	3018.65
974.0847	2469.5533	3902.5	3011
974.2134	2470.9093	3875.8	2984.8
974.3421	2472.2645	3878.2	2986.75
974.4707	2473.6191	3861.45	2970.5
974.5993	2474.973	3853.75	2964.2
974.7278	2476.3262	3835.3	2943.1
974.8563	2477.6787	3825.6	2935.45
974.9848	2479.0305	3808.9	2920.4
975.1132	2480.3816	3809.15	2917.4
975.2417	2481.7319	3792.2	2902.5
975.37	2483.0816	3787.5	2896
975.4984	2484.4306	3779.25	2890
975.6267	2485.7789	3752.65	2865.45
975.755	2487.1264	3741.85	2851.25
975.8833	2488.4733	3721.65	2830.2
976.0115	2489.8195	3744.05	2837.75
976.1397	2491.165	3716.1	2821.35
976.2678	2492.5097	3702.75	2813.2
976.3959	2493.8538	3673.7	2785.7
976.524	2495.1972	3667.25	2778.4
976.6521	2496.5398	3652.8	2761.2
976.7801	2497.8818	3638.1	2746.5
976.9081	2499.2231	3642.15	2752.45
977.036	2500.5637	3628	2733.65
977.164	2501.9035	3608.3	2716.45
977.2918	2503.2427	3609.5	2713.7
977.4197	2504.5812	3607.8	2717.1
977.5475	2505.919	3613.95	2722.7
977.6753	2507.256	3591.45	2701.05
977.8031	2508.5924	3576.85	2686
977.9308	2509.9281	3564.35	2667.9
978.0585	2511.2631	3558.95	2668.65
978.1861	2512.5974	3547.55	2657
978.3137	2513.9309	3550.1	2659.9
978.4413	2515.2638	3552.35	2637.05
978.5689	2516.596	3529.9	2639.25
978.6964	2517.9275	3512	2620.05
978.8239	2519.2583	3504.4	2613.3
978.9513	2520.5884	3491.1	2598.95
979.0788	2521.9178	3479.85	2589.5
979.2062	2523.2465	3481.7	2593.1
979.3335	2524.5745	3469.15	2579.15
979.4608	2525.9018	3444.7	2552.95
979.5881	2527.2284	3448.2	2558
979.7154	2528.5543	3421.05	2531.8
979.8426	2529.8796	3422.25	2531.7
979.9698	2531.2041	3423.7	2532.7
980.0969	2532.5279	3409.3	2521.85
980.224	2533.851	3419.8	2528.95
980.3511	2535.1735	3390.55	2498.8
980.4781	2536.4952	3397.8	2506.4
980.6052	2537.8163	3390.2	2497
980.7321	2539.1366	3372.25	2480.8
980.8591	2540.4562	3357.3	2463.3
980.986	2541.7752	3353.7	2463.1
981.1129	2543.0935	3352.85	2460.75
981.2397	2544.411	3352.15	2458.5
981.3665	2545.7279	3341.45	2449.3
981.4933	2547.0441	3332.95	2441.8
981.62	2548.3596	3326.25	2431.75
981.7467	2549.6744	3327.55	2437.45
981.8734	2550.9885	3315.65	2421.75
982.0001	2552.3019	3304.95	2413.85
982.1267	2553.6146	3307	2415.85
982.2532	2554.9266	3293.7	2401.45
982.3798	2556.2379	3286.6	2395
982.5063	2557.5485	3271.6	2382.3
982.6327	2558.8585	3271.3	2372.7
982.7592	2560.1677	3264	2369.6
982.8856	2561.4762	3258.05	2369.05
983.0119	2562.7841	3266.1	2371.45
983.1383	2564.0913	3244.65	2354.55
983.2646	2565.3977	3246.3	2356.35
983.3908	2566.7035	3238	2346.7
983.517	2568.0086	3235.6	2343.95
983.6432	2569.313	3224.85	2333.05
983.7694	2570.6167	3216.25	2321.95
983.8955	2571.9197	3225.45	2333.55
984.0216	2573.222	3215.65	2320.45
984.1476	2574.5236	3198.85	2305.55
984.2737	2575.8246	3199.2	2305.05
984.3996	2577.1248	3194.2	2300.3
984.5256	2578.4244	3187.8	2297.15
984.6515	2579.7232	3180.6	2290.05
984.7774	2581.0214	3201.35	2278.9
984.9032	2582.3189	3170.65	2281.25
985.029	2583.6157	3178.35	2283.5
985.1548	2584.9118	3165.85	2274.3
985.2806	2586.2072	3166.8	2275.9
985.4063	2587.5019	3160.45	2269.9
985.5319	2588.7959	3154.25	2264.7
985.6576	2590.0893	3151.65	2259.35
985.7832	2591.3819	3138.75	2245.8
985.9087	2592.6739	3127.15	2236.2
986.0343	2593.9652	3136.4	2245.3
986.1597	2595.2557	3137.75	2249.2
986.2852	2596.5456	3120.35	2227.75
986.4106	2597.8348	3114.15	2224.3
986.536	2599.1234	3094.45	2204
986.6614	2600.4112	3094	2201.2
986.7867	2601.6983	3089.05	2194.2
986.912	2602.9848	3076.4	2184.7
987.0372	2604.2705	3069.55	2169.55
987.1624	2605.5556	3079.1	2187.35
987.2876	2606.84	3066.2	2176.25
987.4128	2608.1237	3046.1	2154.85
987.5379	2609.4067	3036.45	2143.5
987.6629	2610.689	3043.3	2143.5
987.788	2611.9707	3035.7	2139.5
987.913	2613.2516	3027.6	2131.55
988.0379	2614.5319	3001.8	2111.15
988.1629	2615.8115	2994.3	2103.5
988.2878	2617.0903	2992.55	2099.8
988.4126	2618.3685	2981.45	2089.2
988.5375	2619.6461	2985.9	2095.5
988.6622	2620.9229	2964.65	2075
988.787	2622.199	2968.6	2076.2
988.9117	2623.4745	2972.95	2081.45
989.0364	2624.7493	2961.65	2072.1
989.161	2626.0234	2944.15	2053.85
989.2857	2627.2968	2940.45	2051.4
989.4102	2628.5695	2926.4	2035.3
989.5348	2629.8415	2927.9	2039.4
989.6593	2631.1128	2914.35	2021.5
989.7837	2632.3835	2901.55	2010.25
989.9082	2633.6535	2895.5	2002.85
990.0326	2634.9228	2892.1	2002.4
990.1569	2636.1914	2886.05	1995.1
990.2812	2637.4593	2890	1997
990.4055	2638.7265	2869	1974.85
990.5298	2639.9931	2856.45	1964.05
990.654	2641.259	2869.15	1978.55
990.7782	2642.5242	2858.25	1965.25
990.9023	2643.7887	2845.05	1952.5
991.0264	2645.0525	2855.9	1965.85
991.1505	2646.3156	2837.25	1943.25
991.2745	2647.5781	2829.25	1940.5
991.3985	2648.8398	2825.5	1937.15
991.5225	2650.1009	2833.6	1916.6
991.6464	2651.3613	2810.9	1919.75
991.7703	2652.6211	2800.5	1911
991.8942	2653.8801	2782.95	1892.95
992.018	2655.1385	2794.25	1899.9
992.1418	2656.3961	2781.55	1890.4
992.2655	2657.6531	2786.4	1895.75
992.3892	2658.9094	2773.3	1880.55
992.5129	2660.1651	2775.55	1885.75
992.6366	2661.42	2772.8	1882.9
992.7602	2662.6743	2763.55	1872.6
992.8837	2663.9279	2764.35	1875.7
993.0073	2665.1808	2756.25	1864.65
993.1307	2666.433	2760.45	1868.95
993.2542	2667.6846	2749	1858.6
993.3776	2668.9354	2740.6	1845.85
993.501	2670.1856	2743.8	1851.65
993.6244	2671.4351	2746.05	1856.45
993.7477	2672.6839	2741.3	1849.75
993.8709	2673.9321	2730.9	1840.45
993.9942	2675.1795	2731.05	1841.25
994.1174	2676.4263	2725.2	1836.65
994.2405	2677.6724	2720.95	1832.1
994.3637	2678.9179	2714.8	1823.8
994.4868	2680.1626	2716.6	1827.55
994.6098	2681.4067	2721.8	1830.75
994.7328	2682.6501	2711.95	1822.15
994.8558	2683.8928	2712.45	1820.55
994.9788	2685.1348	2691.05	1801.5
995.1017	2686.3761	2689.6	1800.1
995.2245	2687.6168	2672.85	1783.45
995.3474	2688.8568	2670.9	1783.35
995.4702	2690.0961	2659.25	1770.75
995.5929	2691.3348	2646.3	1755.05
995.7156	2692.5727	2648.25	1756.7
995.8383	2693.81	2641.9	1751.8
995.961	2695.0466	2634.15	1747.4
996.0836	2696.2826	2626.25	1735.75
996.2062	2697.5178	2615.9	1725.2
996.3287	2698.7524	2624.9	1737.05
996.4512	2699.9863	2614.45	1720.2
996.5737	2701.2195	2616.75	1729.3
996.6961	2702.452	2603.65	1710.65
996.8185	2703.6839	2611.25	1719.9
996.9408	2704.9151	2604.55	1715.8
997.0631	2706.1456	2608.05	1716.3
997.1854	2707.3755	2604.9	1714.4
997.3077	2708.6046	2614.55	1722.7
997.4299	2709.8331	2614.75	1727.6
997.552	2711.0609	2623.5	1735.85
997.6742	2712.2881	2622.35	1733.05
997.7963	2713.5145	2623.4	1733.05
997.9183	2714.7403	2611.5	1723.5
998.0403	2715.9654	2622	1731.7
998.1623	2717.1899	2645.55	1743.6
998.2842	2718.4136	2650.15	1759.35
998.4062	2719.6367	2649.65	1759.65
998.528	2720.8591	2662.65	1765.15
998.6498	2722.0809	2660.7	1770.85
998.7716	2723.3019	2664.65	1772.8
998.8934	2724.5223	2674.1	1780.9
999.0151	2725.7421	2664.65	1774.75
999.1368	2726.9611	2673.05	1783.55
999.2584	2728.1795	2670.9	1776.05
999.38	2729.3972	2646.8	1758.6
999.5016	2730.6142	2648.6	1749.5
999.6231	2731.8306	2615.5	1728
999.7446	2733.0462	2605.35	1714.7
999.8661	2734.2612	2575.1	1681.55
999.9875	2735.4756	2558.8	1665.3
1000.1089	2736.6892	2536.25	1644.85
1000.2302	2737.9022	2509	1621.4
1000.3515	2739.1145	2487.45	1595.75
1000.4728	2740.3262	2476.85	1580.15
1000.594	2741.5372	2455.3	1566.3
1000.7152	2742.7475	2448.25	1560.05
1000.8363	2743.9571	2434.65	1544.3
1000.9575	2745.1661	2435	1542.65
1001.0785	2746.3744	2405.05	1515.9
1001.1996	2747.582	2395.4	1505.3
1001.3206	2748.7889	2388.7	1499.4
1001.4415	2749.9952	2367	1478.6
1001.5625	2751.2008	2363.4	1473.05
1001.6833	2752.4057	2348.85	1455.5
1001.8042	2753.61	2342.35	1450.1
1001.925	2754.8136	2343.95	1452.6
1002.0458	2756.0165	2346.9	1459
1002.1665	2757.2188	2318.75	1433.2
1002.2872	2758.4204	2332.05	1444.35
1002.4078	2759.6213	2325.7	1433.65
1002.5285	2760.8215	2322.15	1428.35
1002.649	2762.0211	2316.5	1427.1
1002.7696	2763.22	2310.6	1419.2
1002.8901	2764.4182	2313.85	1424.75
1003.0106	2765.6158	2295.8	1406.95
1003.131	2766.8127	2284.1	1394.15
1003.2514	2768.009	2293.5	1404.6
1003.3717	2769.2045	2292.25	1404.5
1003.492	2770.3994	2281.25	1390.1
1003.6123	2771.5936	2275.3	1385.8
1003.7325	2772.7872	2253.9	1365.8
1003.8527	2773.9801	2254.55	1366.75
1003.9729	2775.1723	2274.4	1371.3
1004.093	2776.3639	2244.75	1355.25
1004.2131	2777.5548	2246.55	1357.2
1004.3331	2778.745	2249.65	1361.15
1004.4531	2779.9346	2229.95	1343.3
1004.5731	2781.1235	2249.05	1362.1
1004.693	2782.3117	2236.2	1347.05
1004.8129	2783.4992	2237	1348.65
1004.9328	2784.6861	2232.25	1346.05
1005.0526	2785.8723	2245.05	1355.9
1005.1723	2787.0579	2242.1	1352.85
1005.2921	2788.2428	2261.4	1372.5
1005.4118	2789.427	2250.35	1362.3
1005.5314	2790.6106	2254.9	1368.8
1005.651	2791.7935	2266.75	1375.85
1005.7706	2792.9757	2282.45	1396.6
1005.8902	2794.1573	2286.8	1397.35
1006.0097	2795.3382	2295.5	1408.3
1006.1291	2796.5184	2297.4	1411.4
1006.2485	2797.698	2316.55	1429.35
1006.3679	2798.8769	2325.1	1436.55
1006.4873	2800.0551	2346.1	1459.1
1006.6066	2801.2327	2359.3	1469.9
1006.7258	2802.4096	2372.7	1487.25
1006.8451	2803.5859	2397.7	1510.1
1006.9642	2804.7615	2411.4	1523.4
1007.0834	2805.9364	2430.6	1545.25
1007.2025	2807.1106	2449.8	1561.1
1007.3216	2808.2842	2493.45	1604.25
1007.4406	2809.4572	2515.35	1628.75
1007.5596	2810.6294	2547.9	1659.5
1007.6785	2811.801	2585	1699.6
1007.7975	2812.972	2633.15	1746.3
1007.9163	2814.1423	2669.85	1783.75
1008.0352	2815.3119	2714.8	1827.35
1008.154	2816.4808	2763.75	1876.1
1008.2727	2817.6491	2814	1925.85
1008.3914	2818.8167	2846.85	1960.6
1008.5101	2819.9837	2910.85	2019.35
1008.6288	2821.15	2951.25	2064.9
1008.7474	2822.3157	2979.15	2092.5
1008.8659	2823.4807	3025.15	2137.1
1008.9844	2824.645	3068.15	2180.4
1009.1029	2825.8086	3113.25	2226.65
1009.2214	2826.9716	3156.4	2271.7
1009.3398	2828.134	3195	2308.3
1009.4581	2829.2957	3227.1	2340.9
1009.5764	2830.4567	3254.25	2367.3
1009.6947	2831.617	3255.15	2366.05
1009.813	2832.7767	3274.2	2387.05
1009.9312	2833.9358	3277.6	2391.45
1010.0493	2835.0941	3263.2	2374.1
1010.1675	2836.2519	3259.3	2372
1010.2855	2837.4089	3229.95	2344.2
1010.4036	2838.5653	3226.75	2341.45
1010.5216	2839.7211	3211.55	2327.2
1010.6396	2840.8761	3225.7	2335.9
1010.7575	2842.0306	3250.05	2363.8
1010.8754	2843.1843	3301.55	2415.35
1010.9932	2844.3374	3341.65	2455.75
1011.111	2845.4899	3402.8	2514.15
1011.2288	2846.6417	3467.2	2580.6
1011.3465	2847.7928	3544.75	2658.1
1011.4642	2848.9433	3623.2	2735.6
1011.5818	2850.0931	3703.85	2817.25
1011.6995	2851.2422	3799.5	2910.85
1011.817	2852.3907	3858.9	2971.65
1011.9345	2853.5385	3922.45	3035.5
1012.052	2854.6857	3992.4	3097.85
1012.1695	2855.8323	4038.3	3152.3
1012.2869	2856.9781	4065.7	3180.95
1012.4042	2858.1233	4114.65	3227.8
1012.5216	2859.2679	4165.25	3280.2
1012.6389	2860.4118	4207.6	3320.6
1012.7561	2861.555	4246.2	3354.85
1012.8733	2862.6976	4272.65	3382.95
1012.9905	2863.8395	4302.05	3414.5
1013.1076	2864.9808	4328.25	3442.8
1013.2247	2866.1214	4345.8	3460.8
1013.3417	2867.2614	4359.85	3471.05
1013.4587	2868.4007	4370.1	3481.25
1013.5757	2869.5393	4381.35	3492.8
1013.6926	2870.6773	4381.95	3492.6
1013.8095	2871.8146	4400.6	3509.95
1013.9263	2872.9513	4400.5	3511.85
1014.0431	2874.0874	4378.7	3493.1
1014.1599	2875.2227	4376.2	3488.7
1014.2766	2876.3574	4352.2	3466.4
1014.3933	2877.4915	4329.7	3443.45
1014.51	2878.6249	4299.75	3414
1014.6266	2879.7577	4282.85	3395.2
1014.7431	2880.8898	4256.45	3357.9
1014.8596	2882.0212	4221.8	3336.3
1014.9761	2883.152	4225.45	3337.55
1015.0925	2884.2821	4197.8	3314.2
1015.2089	2885.4116	4196.6	3311.6
1015.3253	2886.5405	4192.15	3306.55
1015.4416	2887.6686	4201.05	3311.9
1015.5579	2888.7962	4201.9	3317.65
1015.6741	2889.923	4207.5	3322.05
1015.7903	2891.0493	4214.95	3328.6
1015.9065	2892.1748	4222.5	3335.3
1016.0226	2893.2997	4236.9	3351.05
1016.1387	2894.424	4241.7	3357.45
1016.2547	2895.5476	4255.75	3370.3
1016.3707	2896.6706	4264.05	3378.6
1016.4866	2897.7929	4281.5	3395.3
1016.6025	2898.9145	4327.7	3441.2
1016.7184	2900.0355	4349.7	3461.65
1016.8342	2901.1559	4393.1	3506.45
1016.95	2902.2756	4404.9	3521.35
1017.0658	2903.3946	4446.5	3559.95
1017.1815	2904.513	4495.8	3609.6
1017.2971	2905.6308	4497.15	3612.5
1017.4127	2906.7479	4513.6	3626.9
1017.5283	2907.8643	4541.2	3653.8
1017.6439	2908.9801	4551.4	3666.05
1017.7594	2910.0953	4559.85	3674.15
1017.8748	2911.2098	4557.7	3669.85
1017.9902	2912.3236	4558.2	3665
1018.1056	2913.4368	4546.85	3657.2
1018.2209	2914.5494	4509.75	3625.15
1018.3362	2915.6613	4480.9	3588.4
1018.4515	2916.7725	4433.1	3544.65
1018.5667	2917.8831	4431.15	3545.45
1018.6819	2918.9931	4403.5	3517.4
1018.797	2920.1024	4351.35	3465.85
1018.9121	2921.211	4335.65	3449.25
1019.0271	2922.319	4305.7	3419.65
1019.1421	2923.4264	4302.15	3416.7
1019.2571	2924.5331	4276.2	3390.8
1019.372	2925.6391	4242.75	3359.45
1019.4869	2926.7445	4248.25	3364.25
1019.6017	2927.8493	4254.85	3369.1
1019.7165	2928.9534	4237.55	3353.2
1019.8313	2930.0569	4224.85	3335.8
1019.946	2931.1597	4215.45	3328.5
1020.0606	2932.2619	4190.1	3304.25
1020.1753	2933.3634	4191.2	3307.25
1020.2899	2934.4643	4178.25	3284.3
1020.4044	2935.5645	4168.95	3276.25
1020.5189	2936.6641	4118.05	3228.9
1020.6334	2937.763	4074.85	3191.35
1020.7478	2938.8613	4026.55	3143.85
1020.8622	2939.959	3963.25	3075.25
1020.9765	2941.056	3891	3005.3
1021.0908	2942.1523	3795.9	2909.1
1021.2051	2943.248	3698.1	2811.6
1021.3193	2944.3431	3608	2723.05
1021.4334	2945.4375	3502.2	2615.7
1021.5476	2946.5313	3387.3	2503.15
1021.6617	2947.6244	3293.7	2409.15
1021.7757	2948.7169	3178.9	2295.65
1021.8897	2949.8087	3085.45	2199.1
1022.0037	2950.8999	2991.8	2107.45
1022.1176	2951.9904	2895.45	2011.7
1022.2315	2953.0803	2828.95	1944.15
1022.3453	2954.1696	2764.75	1879.5
1022.4591	2955.2582	2706	1822.2
1022.5728	2956.3462	2654.05	1769.45
1022.6865	2957.4335	2612.45	1727.25
1022.8002	2958.5202	2579.9	1692.2
1022.9138	2959.6062	2548.05	1661.55
1023.0274	2960.6916	2508.5	1624.5
1023.141	2961.7764	2492.25	1605.1
1023.2545	2962.8605	2482.1	1595.8
1023.3679	2963.9439	2455.75	1572.7
1023.4813	2965.0267	2448.75	1564
1023.5947	2966.1089	2467.45	1561.25
1023.708	2967.1905	2429	1543.3
1023.8213	2968.2714	2425.15	1541.1
1023.9346	2969.3516	2432.05	1546.75
1024.0478	2970.4312	2429.25	1536.6
1024.1609	2971.5102	2418.5	1533.3
1024.274	2972.5885	2421.75	1537.15
1024.3871	2973.6662	2418.3	1528.85
1024.5002	2974.7432	2411.75	1527.5
1024.6132	2975.8196	2410.4	1524.7
1024.7261	2976.8954	2399.05	1516.65
1024.839	2977.9705	2371	1485.2
1024.9519	2979.045	2362.75	1479.4
1025.0647	2980.1188	2353.1	1468.4
1025.1775	2981.192	2320.8	1438.1
1025.2902	2982.2645	2299.45	1414.5
1025.4029	2983.3364	2279.3	1395.55
1025.5156	2984.4077	2246.45	1363.05
1025.6282	2985.4783	2229.55	1338.75
1025.7407	2986.5483	2175.7	1290.85
1025.8532	2987.6177	2146.6	1261.45
1025.9657	2988.6864	2105.4	1220.95
1026.0782	2989.7545	2077.6	1191.3
1026.1906	2990.8219	2041.3	1157.85
1026.3029	2991.8887	2011.3	1125.45
1026.4152	2992.9548	1967.5	1082.75
1026.5275	2994.0204	1928.8	1045.95
1026.6397	2995.0852	1907.2	1023.9
1026.7519	2996.1495	1883.7	997.7
1026.864	2997.2131	1864	977.75
1026.9761	2998.276	1836.7	951.9
1027.0882	2999.3383	1804.85	918.75
1027.2002	3000.4	1797.35	914.1
1027.3122	3001.4611	1788.45	902.25
1027.4241	3002.5215	1760.85	876.3
1027.536	3003.5812	1743.4	858.65
1027.6478	3004.6404	1729.5	845.9
1027.7596	3005.6989	1715.75	827.7
1027.8714	3006.7567	1705.75	821.3
1027.9831	3007.8139	1716.65	810.35
1028.0947	3008.8705	1696.75	813.8
1028.2064	3009.9264	1708.85	806.2
1028.3179	3010.9818	1685.75	800.1
1028.4295	3012.0364	1670.35	786.25
1028.541	3013.0905	1674.25	787.75
1028.6524	3014.1439	1662.7	778.55
1028.7638	3015.1966	1675.85	790.7
1028.8752	3016.2487	1665.45	781.35
1028.9865	3017.3002	1664.8	772.1
1029.0978	3018.3511	1667.05	785.4
1029.209	3019.4013	1655.05	770.8
1029.3202	3020.4509	1664.7	783.3
1029.4314	3021.4998	1663.95	782.35
1029.5425	3022.5481	1661.4	777.8
1029.6535	3023.5958	1658	774.15
1029.7645	3024.6428	1664.95	778.25
1029.8755	3025.6892	1659.05	776.4
1029.9864	3026.735	1658.7	771.95
1030.0973	3027.7802	1664.3	778.75
1030.2082	3028.8247	1660.55	775.45
1030.319	3029.8685	1662.05	777.9
1030.4297	3030.9118	1659.55	775.4
1030.5404	3031.9544	1676	791.25
1030.6511	3032.9963	1665.6	781.5
1030.7617	3034.0376	1670.65	787.4
1030.8723	3035.0783	1672.3	786.7
1030.9829	3036.1184	1686.15	800.4
1031.0934	3037.1578	1686.45	803.8
1031.2038	3038.1966	1688.3	802.65
1031.3142	3039.2348	1685.6	800.65
1031.4246	3040.2723	1686.55	796.5
1031.5349	3041.3092	1675.75	791.75
1031.6452	3042.3455	1675.1	791.95
1031.7554	3043.3811	1665.5	780.15
1031.8656	3044.4161	1668.9	783.4
1031.9758	3045.4505	1666.55	782.4
1032.0859	3046.4842	1659.15	773.9
1032.1959	3047.5173	1646.3	764.2
1032.3059	3048.5498	1629.1	745.1
1032.4159	3049.5816	1630	746.25
1032.5258	3050.6128	1622.5	738.4
1032.6357	3051.6434	1616.1	729.9
1032.7455	3052.6734	1603.2	720.45
1032.8553	3053.7027	1596.3	713.15
1032.9651	3054.7314	1591.65	708.5
1033.0748	3055.7594	1590.05	706.65
1033.1845	3056.7868	1577	692.7
1033.2941	3057.8136	1572.8	688.95
1033.4037	3058.8398	1555.4	673.65
1033.5132	3059.8653	1564.6	679.5
1033.6227	3060.8902	1548.45	663.05
1033.7321	3061.9145	1545.15	661.1
1033.8415	3062.9381	1540.75	658.05
1033.9509	3063.9612	1546.4	648
1034.0602	3064.9835	1524.85	642.2
1034.1694	3066.0053	1526.2	641
1034.2787	3067.0264	1514.35	633.7
1034.3878	3068.0469	1500.25	616.6
1034.497	3069.0668	1491	606.2
1034.6061	3070.086	1479.35	595.25
1034.7151	3071.1046	1473.8	589.05
1034.8241	3072.1226	1462.75	579.35
1034.9331	3073.1399	1454.8	571.4
1035.042	3074.1567	1444.75	560.65
1035.1508	3075.1727	1428.8	545.5
1035.2597	3076.1882	1422.7	539.55
1035.3684	3077.203	1414.5	532.75
1035.4772	3078.2173	1398.9	513.2
1035.5859	3079.2308	1386.8	499.75
1035.6945	3080.2438	1390.2	503.25
1035.8031	3081.2561	1379.45	496.45
1035.9117	3082.2678	1371.8	488.45
1036.0202	3083.2789	1351.35	468.25
1036.1286	3084.2893	1351.15	468.95
1036.2371	3085.2991	1349.35	468.75
1036.3454	3086.3083	1342.45	454.6
1036.4538	3087.3169	1330.2	445.75
1036.562	3088.3248	1325.7	441.85
1036.6703	3089.3321	1320.45	435.4
1036.7785	3090.3388	1315.8	432.35
1036.8866	3091.3449	1318.9	436.05
1036.9948	3092.3503	1306.75	421.05
1037.1028	3093.3551	1301.45	418.25
1037.2108	3094.3593	1302.2	417.65
1037.3188	3095.3629	1291.5	410.25
1037.4267	3096.3658	1291.8	405.6
1037.5346	3097.3681	1287.25	405.05
1037.6425	3098.3698	1280.45	395.25
1037.7503	3099.3708	1286.3	396.85
1037.858	3100.3713	1272.05	388.95
1037.9657	3101.3711	1271.45	388.45
1038.0734	3102.3702	1394.45	377.5
1038.181	3103.3688	1274.7	389.45
1038.2886	3104.3667	1264	381.3
1038.3961	3105.364	1255.9	374.75
1038.5036	3106.3607	1255.2	369.25
1038.611	3107.3568	1247.4	363.05
1038.7184	3108.3522	1246.1	364.05
1038.8257	3109.347	1243.95	361.05
1038.933	3110.3412	1248.1	362.4
1039.0403	3111.3348	1240.05	355.6
1039.1475	3112.3277	1240.6	357.6
1039.2547	3113.32	1233.55	350
1039.3618	3114.3117	1233.1	349.35
1039.4689	3115.3028	1234.6	351.35
1039.5759	3116.2932	1229.4	344.75
1039.6829	3117.2831	1231.2	341.85
1039.7898	3118.2723	1226.3	344.7
1039.8967	3119.2608	1225.9	344.05
1040.0035	3120.2488	1218.4	335.35
1040.1103	3121.2361	1217.5	334.45
1040.2171	3122.2229	1210.95	327
1040.3238	3123.209	1216.15	332.25
1040.4305	3124.1944	1210.35	330.1
1040.5371	3125.1793	1207.9	323.55
1040.6437	3126.1635	1202.6	319.75
1040.7502	3127.1471	1203.25	321
1040.8567	3128.1301	1200.85	319.6
1040.9631	3129.1125	1197.8	316.1
1041.0695	3130.0942	1195.3	311.45
1041.1759	3131.0753	1203.75	313.55
1041.2822	3132.0558	1198.9	313.8
1041.3884	3133.0357	1192.1	310.95
1041.4946	3134.015	1191.2	310.7
1041.6008	3134.9936	1191.85	306.6
1041.7069	3135.9716	1211.9	309.4
1041.813	3136.949	1185.45	303.5
1041.919	3137.9258	1201.1	300.05
1042.025	3138.902	1194.6	306.85
1042.1309	3139.8775	1177.45	296.4
1042.2368	3140.8524	1180.5	298.15
1042.3427	3141.8267	1177.05	291.75
1042.4485	3142.8004	1176.95	294.25
1042.5542	3143.7735	1176.2	287.65
1042.6599	3144.7459	1171.35	286.15
1042.7656	3145.7178	1168.4	285.95
1042.8712	3146.689	1167	284.85
1042.9768	3147.6596	1163.9	279.05
1043.0823	3148.6295	1164.75	281.3
1043.1878	3149.5989	1161.8	278.65
1043.2932	3150.5676	1161.3	280.55
1043.3986	3151.5357	1159.05	277.45
1043.5039	3152.5032	1161.5	280.05
1043.6092	3153.4701	1155.7	274.7
1043.7145	3154.4364	1151.45	267.3
1043.8197	3155.402	1150.7	267.05
1043.9248	3156.367	1151.9	267.75
1044.03	3157.3315	1176.2	267
1044.135	3158.2952	1144.3	261.2
1044.24	3159.2584	1145.35	263.95
1044.345	3160.221	1140.25	258.3
1044.4499	3161.1829	1139.4	256.9
1044.5548	3162.1442	1141.4	259.15
1044.6596	3163.105	1137.45	256.1
1044.7644	3164.065	1140.75	258.9
1044.8692	3165.0245	1138.35	253.35
1044.9739	3165.9834	1131.1	249.3
1045.0785	3166.9416	1135.1	253.9
1045.1831	3167.8993	1130.25	246.95
1045.2877	3168.8563	1131.85	248.7
1045.3922	3169.8127	1126.8	246.15
1045.4966	3170.7684	1124.1	241.05
1045.6011	3171.7236	1120.85	236.25
1045.7054	3172.6782	1125.6	243.1
1045.8098	3173.6321	1121.25	238.9
1045.914	3174.5854	1123.05	238.1
1046.0183	3175.5381	1118.6	235.65
1046.1224	3176.4902	1112.2	230.35
1046.2266	3177.4417	1118.65	234.7
1046.3307	3178.3926	1115.3	232.3
1046.4347	3179.3428	1111.85	229.9
1046.5387	3180.2924	1111.55	227.9
1046.6427	3181.2415	1114.55	233.55
1046.7466	3182.1899	1110.4	225
1046.8504	3183.1377	1108.5	226.2
1046.9542	3184.0848	1114.55	228.6
1047.058	3185.0314	1106.05	225.85
1047.1617	3185.9773	1107.7	225.7
1047.2654	3186.9227	1100.95	217.7
1047.369	3187.8674	1102.6	220.5
1047.4726	3188.8115	1103.1	217.7
1047.5761	3189.755	1097.95	215.3
1047.6796	3190.6979	1100.35	217.75
1047.783	3191.6402	1092.8	211.8
1047.8864	3192.5818	1100	217.75
1047.9898	3193.5229	1102.85	213
1048.0931	3194.4633	1096.7	215.5
1048.1963	3195.4031	1091.1	210.7
1048.2995	3196.3423	1087.5	206.25
1048.4027	3197.2809	1091.5	210.05
1048.5058	3198.2189	1087.4	203.95
1048.6089	3199.1563	1094.25	206.2
1048.7119	3200.0931	1086.35	204.55
1048.8148	3201.0292	1080.7	199.85
1048.9178	3201.9648	1083.95	200.95
1049.0206	3202.8997	1086.75	200.05
1049.1235	3203.834	1088.9	206.7
1049.2262	3204.7677	1084.6	201.2
1049.329	3205.7008	1081.55	195.1
1049.4317	3206.6333	1080.55	201.6
1049.5343	3207.5652	1080.7	195.2
1049.6369	3208.4964	1077.1	195.4
1049.7394	3209.4271	1075.55	193.7
1049.8419	3210.3571	1073.35	194
1049.9444	3211.2865	1074.35	191.5
1050.0468	3212.2154	1077.7	196.35
1050.1491	3213.1436	1075.6	190.6
1050.2514	3214.0712	1074.1	185.5
1050.3537	3214.9982	1074.1	191.75
1050.4559	3215.9246	1067.25	182.9
1050.5581	3216.8503	1069	186.05
1050.6602	3217.7755	1066.1	182.85
1050.7623	3218.7001	1069.35	189.85
1050.8643	3219.624	1067.45	185.15
1050.9663	3220.5473	1066.1	185.05
1051.0682	3221.4701	1064	181.2
1051.1701	3222.3922	1064.65	182.15
1051.2719	3223.3137	1062.7	181.8
1051.3737	3224.2346	1059.85	176.6
1051.4754	3225.1549	1060.15	177.1
1051.5771	3226.0746	1055.6	173.55
1051.6788	3226.9937	1054.85	172.35
1051.7804	3227.9121	1056.45	176.35
1051.8819	3228.83	1059.35	175.85
1051.9834	3229.7473	1058.35	176.95
1052.0849	3230.6639	1059.85	178.3
1052.1863	3231.5799	1054.1	171.05
1052.2876	3232.4954	1050.7	168.5
1052.3889	3233.4102	1049.9	166.1
1052.4902	3234.3244	1054.25	174.05
1052.5914	3235.238	1046.65	165.35
1052.6926	3236.151	1074.6	166.65
1052.7937	3237.0634	1050.2	168.95
1052.8948	3237.9752	1047	164.85
1052.9958	3238.8864	1048.5	166.1
1053.0968	3239.797	1047.05	165.3
1053.1977	3240.7069	1043.85	160.75
1053.2986	3241.6163	1043	161.6
1053.3994	3242.5251	1043.4	161.95
1053.5002	3243.4332	1044.1	162.3
1053.6009	3244.3408	1038.75	157.35
1053.7016	3245.2477	1038.85	157.25
1053.8022	3246.154	1043	161.6
1053.9028	3247.0598	1038.2	156.75
1054.0034	3247.9649	1034.85	154.25
1054.1039	3248.8694	1033.85	151.8
1054.2043	3249.7733	1036.8	154.2
1054.3047	3250.6766	1031.9	151.15
1054.4051	3251.5793	1029.55	147.5
1054.5054	3252.4814	1030.6	147.95
1054.6056	3253.3829	1027.9	147.9
1054.7058	3254.2838	1026.7	145.8
1054.806	3255.1841	1029.5	148.9
1054.9061	3256.0838	1025.05	144.05
1055.0061	3256.9829	1024.45	144.05
1055.1062	3257.8814	1026.65	142.05
1055.2061	3258.7792	1023.5	137.65
1055.306	3259.6765	1022.15	138.9
1055.4059	3260.5731	1024.15	143.5
1055.5057	3261.4692	1016.35	133.05
1055.6055	3262.3647	1015.75	134.55
1055.7052	3263.2595	1014.5	133.85
1055.8049	3264.1538	1009.7	128.75
1055.9045	3265.0474	1012.1	131.15
1056.0041	3265.9404	1006.65	124.9
1056.1036	3266.8329	1003.6	121.7
1056.2031	3267.7247	1014.5	120.75
1056.3025	3268.616	998.1	117.75
1056.4019	3269.5066	998.6	119.35
1056.5013	3270.3966	998	115.55
1056.6005	3271.286	994.2	116
