Software Version:	3.9.2.0
Unit SN:	10000200
Spectrometer SN:	6960
Date:	3/26/2024 2:07:18 PM
Data Line Index:	25
Spectral Points:	2048
Integration time (ms):	125
Averages:	20
Delay (ms):	30000
Sequence Number:	1
Processing:	dark subtract
Laser Power (mW):	305
Laser Current (mA):	819
Laser Diode Temp (C):	25.1
Laser Case Temp (C):	27.4
System Temp (C):	27.4
Spectrometer Temp (C):	25.4
CCD Temp (C):	-0.006
Secondary Temp (C):	20.011
Heatsink Temp (C):	22.906
CCDPCB Temp (C):	36.974
SecondaryPCB Temp (C):	34.584

Wavelength	RamanShift	Raw Counts	Dark Subtracted
787.061	30.1047	680.15	268.7
787.2016	32.3739	686.15	277.9
787.3422	34.6426	706.45	294.7
787.4828	36.9109	724.3	311.55
787.6235	39.1787	758.35	339.6
787.7642	41.4461	773.45	352.4
787.9049	43.7131	804.4	379.85
788.0456	45.9796	828.4	400
788.1863	48.2456	858.75	427.85
788.3271	50.5112	889.3	453.8
788.4679	52.7764	914.4	476.65
788.6087	55.0411	945.05	504.3
788.7496	57.3054	986.8	537.2
788.8904	59.5692	1021.25	571.2
789.0313	61.8326	1064.1	612.3
789.1722	64.0955	1098.4	641.15
789.3132	66.3579	1161.05	700
789.4541	68.6199	1226.05	761.35
789.5951	70.8815	1327	861.4
789.7361	73.1426	1551.35	1081.55
789.8771	75.4032	2121.45	1645.3
790.0181	77.6634	3512.55	3028.9
790.1592	79.9231	7027.7	6532.95
790.3003	82.1824	15109.55	14598.55
790.4414	84.4412	36194.8	35647.5
790.5825	86.6995	62713.8	62124.6
790.7237	88.9574	65516.5	64880.6
790.8648	91.2148	65535	64872.1
791.006	93.4717	65535	64852.3
791.1472	95.7282	65535	64843.15
791.2885	97.9842	65535	64835.35
791.4297	100.2398	65535	64834.6
791.571	102.4949	65535	64828.3
791.7123	104.7495	65535	64826.4
791.8536	107.0036	65535	64825.75
791.9949	109.2573	65535	64827.1
792.1363	111.5105	65535	64821.9
792.2777	113.7632	65535	64820.9
792.4191	116.0154	65535	64812.1
792.5605	118.2672	65535	64819.5
792.7019	120.5185	65535	64817.6
792.8434	122.7693	65535	64815.45
792.9849	125.0197	65535	64810.1
793.1264	127.2696	65535	64805.7
793.2679	129.519	65535	64806.45
793.4094	131.7679	65535	64797.35
793.551	134.0163	65535	64799.25
793.6926	136.2642	65535	64794.4
793.8342	138.5117	65535	64789.9
793.9758	140.7587	65535	64789.8
794.1175	143.0052	65535	64784.3
794.2591	145.2512	65535	64788.3
794.4008	147.4967	65535	64790.45
794.5425	149.7417	65535	64782.7
794.6842	151.9863	65535	64778.95
794.826	154.2304	65535	64772.75
794.9677	156.4739	65535	64772.8
795.1095	158.717	65535	64778.85
795.2513	160.9596	65535	64764.75
795.3931	163.2017	65535	64766.4
795.535	165.4433	65535	64766.15
795.6768	167.6844	65535	64766.8
795.8187	169.925	65535	64760.95
795.9606	172.1651	65535	64763.45
796.1025	174.4047	65535	64760.15
796.2445	176.6439	65535	64756.5
796.3864	178.8825	65535	64749.9
796.5284	181.1206	65535	64748.5
796.6704	183.3582	65535	64742.4
796.8124	185.5954	65535	64744.4
796.9544	187.832	65535	64740.15
797.0965	190.0681	65535	64737.2
797.2386	192.3037	65535	64731.2
797.3806	194.5388	65535	64730.75
797.5228	196.7734	65535	64728.35
797.6649	199.0075	65535	64725.15
797.807	201.2411	65535	64717.35
797.9492	203.4742	65535	64719.65
798.0914	205.7068	65535	64717.55
798.2336	207.9389	65535	64720.35
798.3758	210.1704	65535	64712.4
798.518	212.4015	65535	64711.45
798.6603	214.632	65535	64717.85
798.8025	216.862	65535	64728.15
798.9448	219.0915	65535	64729.9
799.0871	221.3205	65535	64733.35
799.2294	223.549	65535	64737.45
799.3718	225.777	65535	64736.6
799.5141	228.0044	65535	64734.7
799.6565	230.2314	65535	64735.45
799.7989	232.4578	65535	64739.55
799.9413	234.6837	65535	64730.45
800.0837	236.909	65535	64727.2
800.2262	239.1339	65535	64700
800.3687	241.3582	65535	64714.7
800.5111	243.582	65535	64680.8
800.6536	245.8053	65535	64696.65
800.7961	248.0281	65535	64702.2
800.9387	250.2503	65535	64694.35
801.0812	252.472	65535	64691.1
801.2238	254.6932	65535	64690.5
801.3664	256.9139	65535	64694.25
801.509	259.134	65535	64688.5
801.6516	261.3536	65535	64689.8
801.7942	263.5727	65535	64686.9
801.9369	265.7912	65535	64686.9
802.0795	268.0092	65535	64689.65
802.2222	270.2267	65535	64690.8
802.3649	272.4436	65535	64685.8
802.5076	274.6601	65535	64674.7
802.6504	276.8759	65535	64687.55
802.7931	279.0913	65535	64678.25
802.9359	281.3061	65535	64676.75
803.0787	283.5204	65535	64674.55
803.2215	285.7341	65535	64672.9
803.3643	287.9473	65535	64661.2
803.5071	290.16	65535	64666.75
803.6499	292.3721	65535	64672.1
803.7928	294.5837	65535	64675.15
803.9357	296.7947	65535	64669.25
804.0786	299.0052	65535	64671.8
804.2215	301.2152	65535	64667.55
804.3644	303.4246	65535	64675.7
804.5074	305.6334	65535	64673.65
804.6503	307.8418	65535	64670.35
804.7933	310.0495	65535	64673.15
804.9363	312.2568	65535	64672.55
805.0793	314.4635	65535	64668.45
805.2223	316.6696	65535	64663.5
805.3653	318.8752	65535	64657.5
805.5084	321.0802	65535	64665.3
805.6514	323.2847	65535	64663
805.7945	325.4887	65535	64666
805.9376	327.692	65535	64658.65
806.0807	329.8949	65535	64661.7
806.2238	332.0972	65535	64658.8
806.367	334.2989	65535	64656.3
806.5101	336.5001	65535	64655
806.6533	338.7007	65535	64657.05
806.7965	340.9008	65535	64657.55
806.9397	343.1003	65535	64654.85
807.0829	345.2992	65535	64649.25
807.2261	347.4976	65535	64649.3
807.3693	349.6955	65535	64645.7
807.5126	351.8927	65535	64648.1
807.6559	354.0895	65535	64635.85
807.7991	356.2856	65535	64643.15
807.9424	358.4812	65535	64645.85
808.0857	360.6763	65535	64644.05
808.2291	362.8707	65535	64643.45
808.3724	365.0646	65535	64642.1
808.5158	367.258	65535	64644.8
808.6591	369.4508	65535	64635.1
808.8025	371.643	65535	64634.1
808.9459	373.8346	65535	64634.65
809.0893	376.0257	65535	64630.05
809.2327	378.2162	65535	64636.65
809.3762	380.4062	65535	64629.5
809.5196	382.5956	65535	64628.65
809.6631	384.7844	65535	64628.8
809.8066	386.9726	65535	64632.6
809.9501	389.1603	65535	64631.9
810.0936	391.3474	65535	64598.35
810.2371	393.5339	65535	64628.4
810.3806	395.7199	65535	64637.2
810.5241	397.9052	65535	64640.3
810.6677	400.09	65535	64642.3
810.8113	402.2743	65535	64641.6
810.9548	404.4579	65535	64641
811.0984	406.641	65535	64639.05
811.2421	408.8235	65535	64645.35
811.3857	411.0054	65535	64643.75
811.5293	413.1868	65535	64636.4
811.673	415.3675	65535	64633.55
811.8166	417.5477	65535	64636.5
811.9603	419.7273	65535	64631.9
812.104	421.9064	65535	64627
812.2477	424.0848	65535	64632.25
812.3914	426.2627	65535	64630.5
812.5351	428.4399	65535	64623.65
812.6788	430.6166	65535	64622.75
812.8226	432.7928	65535	64624.7
812.9663	434.9683	65535	64628.05
813.1101	437.1432	65535	64626.8
813.2539	439.3176	65535	64628.2
813.3977	441.4914	65535	64632.8
813.5415	443.6645	65535	64627.75
813.6853	445.8371	65535	64624.1
813.8291	448.0091	65535	64624.1
813.973	450.1806	65535	64628.3
814.1168	452.3514	65535	64629.85
814.2607	454.5216	65535	64621.4
814.4046	456.6913	65535	64626.2
814.5485	458.8603	65535	64630.85
814.6924	461.0288	65535	64630.3
814.8363	463.1967	65535	64632.95
814.9802	465.3639	65535	64627.1
815.1241	467.5306	65535	64624.25
815.2681	469.6967	65535	64631.35
815.412	471.8622	65535	64630.65
815.556	474.0271	65535	64627
815.7	476.1914	65535	64622.35
815.844	478.3551	65535	64626.9
815.988	480.5182	65535	64627
816.132	482.6807	65535	64633.05
816.276	484.8426	65535	64640.2
816.4201	487.0039	65535	64633.3
816.5641	489.1647	65535	64627.3
816.7082	491.3248	65535	64625.2
816.8522	493.4843	65535	64628.4
816.9963	495.6432	65535	64628.6
817.1404	497.8015	65535	64620.1
817.2845	499.9592	65535	64613.6
817.4286	502.1163	65535	64613.7
817.5727	504.2728	65535	64627.2
817.7168	506.4287	65535	64632.45
817.861	508.5839	65535	64636.55
818.0051	510.7386	65535	64628.05
818.1493	512.8927	65535	64613.6
818.2935	515.0461	65535	64617.55
818.4377	517.199	65535	64620.15
818.5818	519.3512	65535	64617
818.726	521.5029	65535	64615.4
818.8703	523.6539	65535	64621.15
819.0145	525.8043	65535	64615.95
819.1587	527.9541	65535	64613.5
819.303	530.1033	65535	64617.35
819.4472	532.2519	65535	64617.65
819.5915	534.3999	65535	64617.3
819.7357	536.5472	65535	64614.8
819.88	538.694	65535	64621.8
820.0243	540.8401	65535	64619.75
820.1686	542.9856	65535	64609.5
820.3129	545.1305	65535	64602.4
820.4572	547.2748	65535	64596.25
820.6016	549.4185	65535	64596.55
820.7459	551.5615	65535	64602.15
820.8902	553.704	65535	64604.55
821.0346	555.8458	65535	64606
821.1789	557.987	65535	64611.95
821.3233	560.1276	65535	64606.7
821.4677	562.2675	65535	64606.05
821.6121	564.4069	65535	64609.1
821.7565	566.5456	65535	64608.15
821.9009	568.6837	65535	64611.15
822.0453	570.8212	65535	64610.8
822.1897	572.958	65535	64605.95
822.3342	575.0942	65535	64612.1
822.4786	577.2299	65535	64616.75
822.6231	579.3648	65535	64628.45
822.7675	581.4992	65535	64633.5
822.912	583.6329	65535	64635.7
823.0565	585.766	65535	64629.65
823.201	587.8985	65535	64623.15
823.3454	590.0304	65535	64600.7
823.4899	592.1616	65535	64610.25
823.6345	594.2922	65535	64606.05
823.779	596.4222	65535	64603.25
823.9235	598.5515	65535	64599.45
824.068	600.6802	65535	64603.7
824.2126	602.8083	65535	64606.55
824.3571	604.9358	65535	64604.85
824.5017	607.0626	65535	64603.35
824.6462	609.1888	65535	64595.3
824.7908	611.3144	65535	64596.65
824.9354	613.4393	65535	64601.9
825.08	615.5636	65535	64599.05
825.2246	617.6873	65535	64602.2
825.3692	619.8103	65535	64599.6
825.5138	621.9327	65535	64603.25
825.6584	624.0544	65535	64608.5
825.803	626.1756	65535	64606.5
825.9477	628.2961	65535	64599.85
826.0923	630.4159	65535	64602.55
826.237	632.5351	65535	64600.5
826.3816	634.6537	65535	64595.25
826.5263	636.7716	65535	64596.45
826.6709	638.8889	65535	64592.2
826.8156	641.0056	65535	64595.05
826.9603	643.1216	65535	64596.6
827.105	645.237	65535	64596
827.2497	647.3518	65535	64604.55
827.3944	649.4659	65535	64605
827.5391	651.5793	65535	64607.3
827.6838	653.6922	65535	64606
827.8285	655.8043	65535	64602.55
827.9733	657.9159	65535	64601.55
828.118	660.0268	65535	64601.9
828.2627	662.137	65535	64601
828.4075	664.2466	65535	64595.15
828.5522	666.3556	65535	64597.75
828.697	668.4639	65535	64597.75
828.8418	670.5716	65535	64604.95
828.9865	672.6786	65535	64596.75
829.1313	674.785	65535	64591.5
829.2761	676.8907	65535	64596
829.4209	678.9958	65535	64605.45
829.5657	681.1002	65535	64599.5
829.7105	683.204	65535	64590.3
829.8553	685.3072	65535	64594.85
830.0001	687.4097	65535	64597.75
830.1449	689.5115	65535	64590.05
830.2898	691.6127	65535	64603.15
830.4346	693.7132	65535	64599.15
830.5794	695.8131	65535	64572.95
830.7243	697.9123	65535	64590.95
830.8691	700.0109	65535	64591.15
831.014	702.1089	65535	64592.25
831.1588	704.2061	65535	64595.45
831.3037	706.3028	65535	64589.35
831.4486	708.3987	65535	64591.05
831.5935	710.4941	65535	64591.7
831.7383	712.5887	65535	64594.95
831.8832	714.6827	65535	64593.7
832.0281	716.7761	65535	64599.25
832.173	718.8688	65535	64595.15
832.3179	720.9608	65535	64589.5
832.4628	723.0522	65535	64584
832.6077	725.1429	65535	64593.3
832.7527	727.233	65535	64593.45
832.8976	729.3224	65535	64593.35
833.0425	731.4112	65535	64596.2
833.1874	733.4993	65535	64591.05
833.3324	735.5867	65535	64591.65
833.4773	737.6735	65535	64590.6
833.6222	739.7596	65535	64586.55
833.7672	741.845	65535	64592.95
833.9122	743.9298	65535	64587.7
834.0571	746.014	65535	64594.65
834.2021	748.0974	65535	64587.95
834.347	750.1802	65535	64586.15
834.492	752.2624	65535	64586.25
834.637	754.3439	65535	64585.2
834.782	756.4247	65535	64580.6
834.9269	758.5048	65535	64586.05
835.0719	760.5843	65535	64587.95
835.2169	762.6631	65535	64588.45
835.3619	764.7413	65535	64585.55
835.5069	766.8188	65535	64585.9
835.6519	768.8956	65535	64584.6
835.7969	770.9718	65535	64588.7
835.9419	773.0473	65535	64586.65
836.0869	775.1221	65535	64586.7
836.232	777.1962	65535	64587.15
836.377	779.2697	65534.95	64586.05
836.522	781.3426	65535	64567.75
836.667	783.4147	65535	64589.1
836.8121	785.4862	65535	64587.9
836.9571	787.557	65534.1	64584.75
837.1021	789.6271	65535	64583.55
837.2472	791.6966	65535	64586.1
837.3922	793.7654	65520.9	64576
837.5373	795.8335	65525.1	64581.4
837.6823	797.901	65530.6	64582.15
837.8274	799.9678	65525.15	64573
837.9724	802.0339	65520.25	64570.35
838.1175	804.0993	65522.8	64562.95
838.2626	806.1641	65514.1	64564.95
838.4076	808.2282	65505.4	64560.75
838.5527	810.2916	65490.3	64543.2
838.6978	812.3544	65519	64574.3
838.8428	814.4164	65471.7	64524.95
838.9879	816.4778	65469.6	64516.95
839.133	818.5385	65483.7	64532.65
839.2781	820.5986	65477.3	64527.4
839.4232	822.658	65487.7	64531.05
839.5682	824.7166	65502.35	64555.6
839.7133	826.7747	65443.6	64494
839.8584	828.832	65450.8	64498.6
840.0035	830.8886	65494.35	64539.45
840.1486	832.9446	65504.2	64548.3
840.2937	834.9999	65399.6	64452.15
840.4388	837.0545	65453.75	64499.5
840.5839	839.1085	65498.8	64547.6
840.729	841.1618	65461.15	64505.35
840.8741	843.2143	65388.6	64440.75
841.0192	845.2662	65389.5	64440.4
841.1643	847.3175	65409.85	64457.1
841.3095	849.368	65279	64324.45
841.4546	851.4179	65407.45	64456.5
841.5997	853.467	65310.55	64363.6
841.7448	855.5155	65374.65	64421.8
841.8899	857.5633	65286.1	64335.7
842.0351	859.6105	65245.6	64294.35
842.1802	861.6569	65290.4	64341.2
842.3253	863.7027	65185	64232.9
842.4704	865.7478	65233.7	64280.55
842.6156	867.7922	65228.4	64279.4
842.7607	869.8359	65263.45	64307.35
842.9058	871.8789	65164.7	64210.9
843.0509	873.9212	65232.1	64248.4
843.1961	875.9629	65243.6	64292.75
843.3412	878.0039	65214.15	64260.8
843.4863	880.0441	65179.3	64228
843.6315	882.0837	65179.25	64229
843.7766	884.1226	65175.85	64224
843.9218	886.1609	65165.25	64212.65
844.0669	888.1984	65097.4	64143.4
844.212	890.2352	65176.25	64226.75
844.3572	892.2714	65077	64119.15
844.5023	894.3069	65135.7	64182.35
844.6475	896.3416	65070.6	64115.5
844.7926	898.3757	65061.35	64108.45
844.9377	900.4091	64925.2	63971.25
845.0829	902.4418	65104.75	64144.65
845.228	904.4739	64999.35	64042.3
845.3732	906.5052	65004.05	64048.95
845.5183	908.5358	64978.7	64024.35
845.6635	910.5658	64909.55	63957.7
845.8086	912.595	64911.9	63960.45
845.9538	914.6236	64765.1	63809.3
846.0989	916.6515	64987.65	64033.25
846.2441	918.6786	64737.75	63780.1
846.3892	920.7051	64801.75	63844.3
846.5344	922.7309	64778.8	63825.95
846.6795	924.756	64810.15	63857.4
846.8246	926.7804	64751.55	63795.2
846.9698	928.8041	64593.25	63640.5
847.1149	930.8272	64708.55	63754.85
847.2601	932.8495	64705.85	63751.25
847.4052	934.8711	64599.5	63644.6
847.5504	936.892	64521.45	63569.55
847.6955	938.9123	64554.75	63600.2
847.8407	940.9318	64490.4	63539.8
847.9858	942.9506	64460.05	63504.9
848.131	944.9688	64476.4	63524.15
848.2761	946.9862	64319.1	63363.8
848.4213	949.003	64390.95	63436.25
848.5664	951.019	64213.7	63262.25
848.7115	953.0344	64248.45	63295.3
848.8567	955.0491	64220.45	63266.55
849.0018	957.063	64281.45	63327.15
849.147	959.0763	64298.2	63335.4
849.2921	961.0888	64180.15	63222.65
849.4373	963.1007	64275.85	63324.65
849.5824	965.1119	64252	63304.55
849.7275	967.1223	64139	63197.7
849.8727	969.1321	64273.9	63334.85
850.0178	971.1412	64108.1	63161.9
850.1629	973.1495	64008.95	63055.9
850.3081	975.1572	64127.35	63121.8
850.4532	977.1641	64009.6	63058.1
850.5983	979.1704	63997.85	63044.4
850.7435	981.1759	64016.7	63061.7
850.8886	983.1808	63836.35	62879.85
851.0337	985.1849	63877.15	62914.75
851.1788	987.1884	63941.95	62986.7
851.324	989.1911	64046	63093.8
851.4691	991.1932	63651.8	62701.9
851.6142	993.1945	63744.55	62793.45
851.7593	995.1951	63848.8	62895.85
851.9045	997.1951	63570.95	62611.65
852.0496	999.1943	63553.85	62599.95
852.1947	1001.1928	63439.55	62485.05
852.3398	1003.1906	63529.05	62579.05
852.4849	1005.1877	63095.35	62138.4
852.63	1007.1841	62976.45	62024.6
852.7751	1009.1798	62974.15	62020.6
852.9202	1011.1748	62927.8	61975.95
853.0653	1013.1691	62802.45	61849.95
853.2104	1015.1627	61479.1	60526.4
853.3555	1017.1556	62189	61243.15
853.5006	1019.1477	62270.15	61322.3
853.6457	1021.1392	61665.05	60721.7
853.7908	1023.1299	60809.85	59870.05
853.9359	1025.12	61468.95	60533.5
854.081	1027.1093	61015.05	60087.05
854.2261	1029.0979	61057.75	60134.4
854.3712	1031.0859	60928.85	59997.25
854.5163	1033.0731	60204.2	59268.05
854.6613	1035.0596	60537.5	59597.55
854.8064	1037.0454	60328.15	59381.3
854.9515	1039.0304	59914.95	58968
855.0965	1041.0148	58964.1	58013.65
855.2416	1042.9985	59149.5	58202.3
855.3867	1044.9814	59699.25	58752.65
855.5317	1046.9636	58782.75	57836.05
855.6768	1048.9452	58943.4	57999.9
855.8219	1050.926	58733.7	57788.75
855.9669	1052.9061	58669.05	57720.95
856.112	1054.8855	58730.2	57782.8
856.257	1056.8642	58262.2	57312.5
856.4021	1058.8421	57919.05	56966.75
856.5471	1060.8194	58029.3	57080.5
856.6921	1062.7959	57607.4	56658.3
856.8372	1064.7717	58064.4	57117.7
856.9822	1066.7469	57700.25	56752.8
857.1272	1068.7213	57755.1	56803.3
857.2723	1070.695	57302.4	56356.1
857.4173	1072.6679	56874.8	55923.85
857.5623	1074.6402	57193.65	56243.5
857.7073	1076.6117	56679.55	55727.5
857.8523	1078.5826	56719.15	55771.1
857.9973	1080.5527	56687.5	55738.95
858.1423	1082.5221	56478.95	55532.55
858.2873	1084.4908	56665.4	55717.9
858.4323	1086.4587	56553.65	55604.65
858.5773	1088.426	56633.65	55683
858.7223	1090.3925	56514.1	55558.65
858.8673	1092.3584	56297.75	55350.8
859.0123	1094.3235	55725.05	54778.95
859.1573	1096.2879	55623.5	54677
859.3022	1098.2515	55704.25	54758.7
859.4472	1100.2145	55465	54516.1
859.5922	1102.1767	55368.05	54415.05
859.7371	1104.1382	55558	54612.55
859.8821	1106.099	55398.3	54450.9
860.027	1108.0591	55439.1	54492.95
860.172	1110.0185	54867.1	53918.8
860.3169	1111.9771	55386.65	54440.55
860.4619	1113.9351	54894.15	53949.35
860.6068	1115.8923	54347.6	53400.5
860.7517	1117.8488	53841.5	52895.15
860.8967	1119.8045	53272.4	52327.95
861.0416	1121.7596	53341.85	52396.15
861.1865	1123.7139	52965.05	52019.35
861.3314	1125.6675	52947.25	52003.35
861.4763	1127.6204	52873.2	51927.9
861.6212	1129.5726	52469	51523.5
861.7661	1131.524	52645.95	51701.05
861.911	1133.4748	52657.55	51710.75
862.0559	1135.4248	52361.85	51415.15
862.2008	1137.3741	52273.75	51328
862.3457	1139.3226	52110.65	51164.6
862.4905	1141.2705	51977.5	51031.75
862.6354	1143.2176	51760.1	50811.8
862.7803	1145.164	51519.35	50572.8
862.9251	1147.1097	51510.9	50568.7
863.07	1149.0546	51377.4	50429.7
863.2148	1150.9989	51334.05	50388.4
863.3597	1152.9424	50903.35	49952.8
863.5045	1154.8852	50799.25	49850.3
863.6493	1156.8272	50467.1	49523.6
863.7942	1158.7686	50646.8	49693.55
863.939	1160.7092	50062.75	49116.35
864.0838	1162.6491	49897.5	48943.45
864.2286	1164.5883	50040.15	49094.75
864.3734	1166.5267	49792.65	48849.45
864.5182	1168.4644	49942.9	48999
864.663	1170.4014	49916.95	48968.05
864.8078	1172.3377	50205.35	49265.3
864.9526	1174.2732	50345.9	49402.55
865.0974	1176.2081	50266.75	49324.35
865.2421	1178.1421	50280.4	49331.5
865.3869	1180.0755	50570	49627.95
865.5317	1182.0082	50286.3	49343.55
865.6764	1183.9401	50220.75	49278.75
865.8212	1185.8713	49771.75	48834.2
865.9659	1187.8017	49565.2	48632.75
866.1106	1189.7315	49296.05	48368.25
866.2554	1191.6605	48755.95	47832.65
866.4001	1193.5888	48413.15	47483.75
866.5448	1195.5163	48121.2	47183.8
866.6895	1197.4432	47897	46956
866.8342	1199.3693	47745.95	46806.05
866.9789	1201.2947	47531.45	46583.55
867.1236	1203.2193	47420	46478.35
867.2683	1205.1432	47241	46300.05
867.413	1207.0664	47157.9	46216.35
867.5576	1208.9889	47048.8	46104.45
867.7023	1210.9106	46902.5	45960.9
867.847	1212.8316	46788.7	45853.7
867.9916	1214.7519	46767.75	45815.9
868.1363	1216.6715	46568.05	45628.45
868.2809	1218.5903	46515.1	45573.45
868.4255	1220.5084	46277.35	45335.25
868.5701	1222.4257	46233.15	45290.95
868.7148	1224.3424	45909.55	44971.3
868.8594	1226.2583	45829.95	44887.5
869.004	1228.1735	45871.2	44929.55
869.1486	1230.0879	45701.2	44760.8
869.2932	1232.0016	45705.2	44761.6
869.4377	1233.9146	45598.4	44655.1
869.5823	1235.8269	45389.5	44449.65
869.7269	1237.7384	45238.95	44299.7
869.8715	1239.6492	44822.35	43885.3
870.016	1241.5592	44643.9	43704.35
870.1606	1243.4686	44419.7	43481.9
870.3051	1245.3772	44251.85	43309.85
870.4496	1247.285	44084.45	43143
870.5941	1249.1922	43909.75	42970.15
870.7387	1251.0986	43852.6	42913.25
870.8832	1253.0042	43591.95	42651
871.0277	1254.9092	43575	42637.15
871.1722	1256.8134	43457.1	42516.85
871.3167	1258.7169	43575.55	42637.55
871.4611	1260.6196	43566.55	42626.05
871.6056	1262.5216	43741.7	42801
871.7501	1264.4229	43722.3	42784.15
871.8945	1266.3234	43823.65	42884.7
872.039	1268.2232	43795.35	42855.45
872.1834	1270.1223	43645.55	42706.6
872.3278	1272.0207	43526.3	42584.8
872.4723	1273.9183	43364.1	42417.75
872.6167	1275.8151	43227.5	42290.35
872.7611	1277.7113	42985.05	42045.95
872.9055	1279.6067	42779.45	41842.2
873.0499	1281.5014	42563.8	41625.1
873.1943	1283.3953	42329.9	41388.4
873.3386	1285.2885	42203.1	41266.5
873.483	1287.181	42113.65	41175.9
873.6274	1289.0727	42142.35	41204.25
873.7717	1290.9637	42002.4	41067.35
873.9161	1292.854	42088.75	41151.15
874.0604	1294.7435	42016.2	41077.9
874.2047	1296.6323	42192.3	41256
874.349	1298.5204	42342.15	41400.35
874.4933	1300.4077	42449.55	41512.3
874.6376	1302.2943	42511.35	41573.35
874.7819	1304.1802	42501.45	41562.75
874.9262	1306.0653	42273.6	41335.8
875.0705	1307.9497	42107.9	41171.15
875.2147	1309.8333	41983.4	41049.9
875.359	1311.7162	41815.15	40880.1
875.5032	1313.5984	41813.25	40873.25
875.6475	1315.4798	41726.7	40776.35
875.7917	1317.3605	41781.75	40842.25
875.9359	1319.2405	41861.7	40922.2
876.0801	1321.1197	41796.45	40854
876.2243	1322.9982	41625.1	40685.65
876.3685	1324.876	41553.45	40616.6
876.5127	1326.753	41394.35	40457.85
876.6569	1328.6293	41390.95	40451.6
876.801	1330.5048	41411.1	40472.45
876.9452	1332.3796	41254.95	40316.7
877.0893	1334.2537	41152.1	40191.5
877.2335	1336.127	40946.1	40009.9
877.3776	1337.9996	40889.45	39953.95
877.5217	1339.8714	40744.65	39807.9
877.6658	1341.7426	40597.15	39618.55
877.8099	1343.6129	40513.45	39575.7
877.954	1345.4826	40329.1	39392.55
878.0981	1347.3515	40389.4	39450.15
878.2422	1349.2196	40208.2	39269
878.3862	1351.087	40152.75	39214.15
878.5303	1352.9537	40093.4	39154.7
878.6743	1354.8197	40170.65	39231.35
878.8184	1356.6849	40303.65	39367.1
878.9624	1358.5493	40239.55	39300.1
879.1064	1360.4131	40169.25	39233
879.2504	1362.276	40032.35	39099.25
879.3944	1364.1383	39790.05	38856.1
879.5384	1365.9998	39475.5	38534.4
879.6823	1367.8606	39046.15	38110.5
879.8263	1369.7206	38712.25	37774.75
879.9702	1371.5799	38440.25	37502
880.1142	1373.4384	38209.35	37273.9
880.2581	1375.2962	37993.45	37055.2
880.402	1377.1533	37568.35	36635.55
880.5459	1379.0096	37167.2	36235.4
880.6898	1380.8652	36866.85	35935.55
880.8337	1382.7201	36536.4	35604.25
880.9776	1384.5742	36149.3	35215.25
881.1215	1386.4275	35925.25	34987.1
881.2653	1388.2802	35682.05	34747.1
881.4092	1390.132	35439	34501.75
881.553	1391.9832	35365.4	34427.85
881.6968	1393.8336	35085.05	34152.5
881.8406	1395.6832	34975.15	34040.65
881.9844	1397.5322	34860	33925.4
882.1282	1399.3803	34728.3	33785.35
882.272	1401.2278	34545.25	33613.1
882.4158	1403.0745	34435.65	33502.4
882.5595	1404.9204	34278.1	33345
882.7033	1406.7656	34265.65	33334.05
882.847	1408.6101	34094.3	33158.9
882.9908	1410.4538	33996.6	33062.5
883.1345	1412.2968	33964	33029.45
883.2782	1414.139	33807	32872.2
883.4219	1415.9805	33882.45	32947.35
883.5656	1417.8213	33801.85	32847.8
883.7092	1419.6613	33736.65	32804.95
883.8529	1421.5006	33910.05	32975.5
883.9965	1423.3391	34020.4	33089.55
884.1402	1425.1769	34211.45	33275.85
884.2838	1427.0139	34654.7	33725.2
884.4274	1428.8502	35147.4	34214.1
884.571	1430.6858	35596.45	34662.75
884.7146	1432.5206	35815.55	34885.05
884.8582	1434.3547	36032.85	35100
885.0018	1436.188	36006.85	35075.2
885.1453	1438.0206	35875.55	34943.5
885.2889	1439.8524	35655.45	34723.7
885.4324	1441.6835	35541.7	34607.2
885.5759	1443.5139	35332.95	34397.8
885.7194	1445.3435	35128.95	34195.25
885.8629	1447.1724	35071.95	34142.75
886.0064	1449.0005	34927.8	33999.85
886.1499	1450.8279	34753.75	33823.6
886.2933	1452.6545	34714.85	33783.7
886.4368	1454.4804	34704.9	33774.2
886.5802	1456.3056	34595.6	33662.3
886.7237	1458.13	34455.2	33525.5
886.8671	1459.9536	34263.2	33332.5
887.0105	1461.7766	33839.2	32907.95
887.1539	1463.5987	33396.3	32464.9
887.2972	1465.4202	32952.3	32022.55
887.4406	1467.2409	32478.6	31551.65
887.584	1469.0608	32278.5	31346.95
887.7273	1470.88	31917.6	30987.9
887.8706	1472.6984	31703.95	30776.8
888.0139	1474.5161	31400.5	30467.75
888.1572	1476.3331	31158.55	30228.7
888.3005	1478.1493	30977.4	30045.65
888.4438	1479.9648	30897	29965.35
888.5871	1481.7795	30779.65	29851.7
888.7303	1483.5935	30646.55	29714.6
888.8736	1485.4067	30525.35	29592
889.0168	1487.2192	30487.4	29557.75
889.16	1489.031	30359.6	29425.8
889.3032	1490.842	30195.95	29267.75
889.4464	1492.6522	30143	29214.75
889.5896	1494.4618	30047.3	29117.55
889.7327	1496.2705	30005.9	29077.85
889.8759	1498.0785	29931.25	29003.75
890.019	1499.8858	29840.25	28910.05
890.1622	1501.6924	29726.6	28798.3
890.3053	1503.4981	29684.8	28755.45
890.4484	1505.3032	29587.6	28658.45
890.5914	1507.1075	29524.3	28595.1
890.7345	1508.911	29412.4	28482.45
890.8776	1510.7138	29371.15	28440.6
891.0206	1512.5159	29214.45	28287.15
891.1637	1514.3172	29138.15	28210.8
891.3067	1516.1178	29021.6	28096.15
891.4497	1517.9176	28889.35	27959.5
891.5927	1519.7166	28774.5	27850.25
891.7357	1521.515	28706.6	27771.4
891.8786	1523.3126	28635.2	27708.55
892.0216	1525.1094	28539.55	27609.7
892.1645	1526.9055	28414.1	27488.1
892.3074	1528.7008	28339.25	27415.25
892.4503	1530.4954	28140.05	27205.05
892.5932	1532.2893	28134.8	27212
892.7361	1534.0824	27949.95	27023.7
892.879	1535.8747	27905.55	26982.8
893.0218	1537.6663	27795.1	26874.8
893.1647	1539.4572	27730.85	26807.8
893.3075	1541.2473	27694	26771.85
893.4503	1543.0367	27548.95	26628.9
893.5931	1544.8253	27425.95	26497.6
893.7359	1546.6132	27447.2	26520.4
893.8787	1548.4003	27308.3	26373.4
894.0214	1550.1867	27234.1	26305.25
894.1642	1551.9723	27185.55	26259.35
894.3069	1553.7572	27147.2	26225.95
894.4496	1555.5414	27122	26199.15
894.5923	1557.3247	27127.65	26208.7
894.735	1559.1074	27071.75	26154.2
894.8777	1560.8893	27012.15	26094.9
895.0204	1562.6705	27021.45	26102.5
895.163	1564.4509	26989	26072.9
895.3056	1566.2305	26973.05	26060.5
895.4482	1568.0094	27078.15	26166.05
895.5908	1569.7876	27087.25	26170
895.7334	1571.565	27065	26146.55
895.876	1573.3417	27037.4	26119.15
896.0186	1575.1176	26988.2	26073.25
896.1611	1576.8928	26939.65	26024.35
896.3036	1578.6672	26771.9	25861.55
896.4461	1580.4409	26601.6	25692.3
896.5886	1582.2138	26384.85	25469.3
896.7311	1583.986	26225.25	25309.35
896.8736	1585.7575	26111.85	25196.4
897.0161	1587.5282	25967.15	25057.75
897.1585	1589.2981	25916.3	25007.35
897.3009	1591.0673	25734.3	24822.7
897.4433	1592.8358	25724.1	24812.55
897.5857	1594.6035	25630.95	24715.65
897.7281	1596.3704	25508.6	24594.1
897.8705	1598.1366	25484.55	24570.2
898.0128	1599.9021	25483.8	24575.05
898.1551	1601.6668	25423.2	24510.45
898.2975	1603.4308	25422.3	24511.45
898.4398	1605.194	25439.55	24522.1
898.5821	1606.9564	25469.05	24562.15
898.7243	1608.7182	25469.65	24564.95
898.8666	1610.4791	25539.05	24640.05
899.0088	1612.2394	25597.25	24699.1
899.1511	1613.9988	25717.35	24815.2
899.2933	1615.7576	25888.65	24983.15
899.4355	1617.5156	26090.3	25172.5
899.5776	1619.2728	26269.75	25354.3
899.7198	1621.0293	26316.75	25405.35
899.862	1622.785	26330.9	25423.4
900.0041	1624.54	26161.5	25256.9
900.1462	1626.2942	25972.9	25065.65
900.2883	1628.0477	25640.95	24733.45
900.4304	1629.8005	25425.9	24514.6
900.5725	1631.5525	25139.85	24235.6
900.7145	1633.3037	24898.45	23994.45
900.8566	1635.0542	24676.05	23772.6
900.9986	1636.804	24504.35	23597.6
901.1406	1638.553	24483.45	23521.55
901.2826	1640.3013	24305.65	23399.6
901.4245	1642.0488	24215.2	23309.45
901.5665	1643.7955	24187.15	23285.9
901.7085	1645.5416	24138.15	23235.6
901.8504	1647.2868	24166.25	23261.25
901.9923	1649.0313	24215.15	23309.2
902.1342	1650.7751	24304.55	23395.8
902.2761	1652.5181	24411.4	23508.6
902.4179	1654.2604	24527	23622.05
902.5598	1656.0019	24746.1	23842.65
902.7016	1657.7427	24998.65	24092.95
902.8434	1659.4828	25267.75	24362
902.9852	1661.222	25431.2	24522.75
903.127	1662.9606	25396.65	24490.15
903.2687	1664.6984	25201.9	24292.7
903.4105	1666.4354	24859.55	23948.55
903.5522	1668.1717	24306.8	23396.95
903.6939	1669.9072	23835.8	22924.25
903.8356	1671.642	23439.6	22529.55
903.9773	1673.3761	23044.3	22135.75
904.119	1675.1094	22771.2	21864.15
904.2606	1676.8419	22511.45	21605.75
904.4022	1678.5737	22259	21350.4
904.5439	1680.3048	22134.5	21226.1
904.6855	1682.0351	21958	21049.35
904.827	1683.7646	21805.95	20893.45
904.9686	1685.4934	21723.65	20819.2
905.1101	1687.2215	21609.1	20702.1
905.2517	1688.9488	21432.85	20529.8
905.3932	1690.6754	21385.35	20479.8
905.5347	1692.4012	21299.7	20393.1
905.6761	1694.1263	21206.7	20301.75
905.8176	1695.8506	21166	20259.15
905.9591	1697.5742	21067.55	20164.4
906.1005	1699.297	20935.65	20035.3
906.2419	1701.0191	20842.65	19940.5
906.3833	1702.7404	20761.9	19862.8
906.5246	1704.461	20660.5	19757.95
906.666	1706.1808	20579.7	19675.15
906.8073	1707.8999	20540.1	19636
906.9487	1709.6182	20444.05	19544.9
907.09	1711.3358	20376.3	19478.5
907.2313	1713.0527	20322.2	19425.05
907.3725	1714.7688	20257.4	19351.25
907.5138	1716.4841	20149.75	19247.85
907.655	1718.1987	20121.5	19213.5
907.7962	1719.9126	20054.3	19156.3
907.9374	1721.6257	19951.7	19050.7
908.0786	1723.338	19940.05	19042.75
908.2198	1725.0496	19785.3	18887.85
908.3609	1726.7605	19777.75	18876.4
908.502	1728.4706	19690.75	18790.95
908.6431	1730.18	19578.05	18679.1
908.7842	1731.8886	19536.65	18640.85
908.9253	1733.5964	19527.5	18610.95
909.0664	1735.3036	19460.9	18559.65
909.2074	1737.0099	19370.4	18473.65
909.3484	1738.7156	19345.55	18449.5
909.4894	1740.4204	19232.05	18333.6
909.6304	1742.1246	19216.25	18317
909.7714	1743.8279	19133.4	18235.3
909.9123	1745.5306	19093.35	18195.35
910.0532	1747.2325	19029.4	18133.4
910.1941	1748.9336	18986.7	18088.1
910.335	1750.634	18904.25	18003.8
910.4759	1752.3336	18864.2	17967.65
910.6168	1754.0325	18857.5	17964.85
910.7576	1755.7307	18790.8	17893.6
910.8984	1757.4281	18765.5	17865
911.0392	1759.1247	18768.15	17859.75
911.18	1760.8206	18684.05	17775.55
911.3208	1762.5158	18623.95	17718.45
911.4615	1764.2102	18566.25	17669.45
911.6022	1765.9039	18506.35	17611.5
911.7429	1767.5968	18482	17588.75
911.8836	1769.289	18394.15	17499.4
912.0243	1770.9804	18353.35	17454.3
912.1649	1772.6711	18365.95	17464.25
912.3056	1774.361	18299.2	17399.5
912.4462	1776.0502	18239.35	17338.8
912.5868	1777.7386	18222.7	17321.95
912.7274	1779.4263	18140.8	17243.45
912.8679	1781.1132	18110.25	17214.2
913.0084	1782.7994	18048.75	17153.9
913.149	1784.4849	18017.75	17125.85
913.2895	1786.1696	17957.5	17054.65
913.4299	1787.8535	17911.55	17018.45
913.5704	1789.5367	17871.45	16978.2
913.7108	1791.2192	17823.05	16928.65
913.8513	1792.9009	17765.65	16843.7
913.9917	1794.5818	17739.3	16841.5
914.132	1796.2621	17688.85	16791.3
914.2724	1797.9415	17657.75	16760.2
914.4128	1799.6202	17590.7	16694.25
914.5531	1801.2982	17560.85	16661.5
914.6934	1802.9755	17519.25	16620.55
914.8337	1804.6519	17494.3	16594
914.9739	1806.3277	17373.6	16477.45
915.1142	1808.0027	17320.85	16427.85
915.2544	1809.6769	17293.4	16400.2
915.3946	1811.3504	17246.4	16354.45
915.5348	1813.0231	17217.6	16325.3
915.675	1814.6951	17181.95	16286.35
915.8151	1816.3664	17189.75	16290.05
915.9553	1818.0369	17153.35	16257.75
916.0954	1819.7067	17087.5	16191.4
916.2355	1821.3757	17066.9	16169.05
916.3755	1823.044	17015.95	16119.45
916.5156	1824.7115	16946.3	16047.65
916.6556	1826.3783	16893.4	15996.15
916.7956	1828.0443	16831.85	15935.05
916.9356	1829.7096	16802.75	15904.6
917.0756	1831.3741	16779.9	15880.45
917.2155	1833.0379	16727.1	15833.4
917.3555	1834.701	16703.25	15809.25
917.4954	1836.3633	16672.8	15780.4
917.6353	1838.0248	16617.2	15721.25
917.7751	1839.6856	16612.1	15716.15
917.915	1841.3457	16572.05	15675.95
918.0548	1843.005	16546.3	15650.1
918.1946	1844.6636	16492.1	15595.1
918.3344	1846.3214	16452.85	15556.4
918.4742	1847.9785	16427.15	15532
918.6139	1849.6349	16399.1	15502.85
918.7537	1851.2904	16348.3	15442.4
918.8934	1852.9453	16309.7	15411.4
919.0331	1854.5994	16246.6	15346.85
919.1727	1856.2528	16281.85	15380.2
919.3124	1857.9054	16214.3	15316.4
919.452	1859.5572	16201.4	15304.75
919.5916	1861.2083	16158.95	15259.2
919.7312	1862.8587	16147.65	15252.55
919.8708	1864.5084	16105.4	15205.65
920.0103	1866.1572	16042.2	15144.65
920.1498	1867.8054	15946.75	15047.9
920.2893	1869.4528	15948.4	15050.65
920.4288	1871.0994	15885.6	14985.6
920.5683	1872.7453	15896.3	14995.95
920.7077	1874.3905	15853.15	14951.45
920.8471	1876.0349	15784.75	14886.9
920.9865	1877.6786	15801.75	14901.95
921.1259	1879.3215	15764.95	14868.35
921.2653	1880.9637	15745	14845.4
921.4046	1882.6051	15698.5	14805.1
921.5439	1884.2458	15651.75	14754.2
921.6832	1885.8858	15568.25	14673.5
921.8225	1887.525	15557.2	14659.2
921.9617	1889.1634	15443.6	14545.65
922.101	1890.8011	15408.6	14509.15
922.2402	1892.4381	15375.7	14479.05
922.3794	1894.0743	15366.9	14469.55
922.5185	1895.7098	15338.15	14442.3
922.6577	1897.3446	15318.45	14422.35
922.7968	1898.9786	15305.3	14404.8
922.9359	1900.6118	15227	14331
923.075	1902.2443	15184.7	14286.75
923.214	1903.8761	15127.15	14232.95
923.3531	1905.5071	15026.7	14130.25
923.4921	1907.1374	14961.95	14066.8
923.6311	1908.7669	14975.85	14081.05
923.77	1910.3957	14921.95	14028.5
923.909	1912.0237	14852.45	13957.9
924.0479	1913.651	14816.55	13920.55
924.1868	1915.2776	14815.35	13920.15
924.3257	1916.9034	14729.65	13835.15
924.4646	1918.5285	14667.45	13776
924.6034	1920.1528	14615.4	13720.4
924.7422	1921.7764	14605.5	13711.45
924.881	1923.3992	14537.5	13641.65
925.0198	1925.0213	14469.7	13576.5
925.1586	1926.6427	14396.75	13500.95
925.2973	1928.2633	14423.7	13461.35
925.436	1929.8832	14339.45	13445.5
925.5747	1931.5023	14258.25	13366.4
925.7134	1933.1207	14230.6	13334.6
925.852	1934.7383	14180.1	13284.3
925.9906	1936.3552	14130.9	13237.3
926.1292	1937.9714	14119.45	13225.85
926.2678	1939.5868	14061.75	13166.15
926.4064	1941.2015	13993.85	13096.4
926.5449	1942.8154	13970.35	13075.1
926.6834	1944.4286	13918.35	13022
926.8219	1946.041	13850.25	12938.1
926.9604	1947.6528	13785.9	12883
927.0988	1949.2637	13766.8	12873.05
927.2372	1950.8739	13669.65	12777.4
927.3756	1952.4834	13668.85	12774.35
927.514	1954.0921	13623.45	12731.2
927.6523	1955.7001	13590.2	12691.75
927.7907	1957.3074	13587.85	12697.85
927.929	1958.9139	13505.85	12616.5
928.0673	1960.5197	13465.75	12572.3
928.2055	1962.1247	13392.75	12501.5
928.3438	1963.729	13346.45	12456.1
928.482	1965.3325	13320.25	12404.2
928.6202	1966.9353	13244.95	12355.1
928.7584	1968.5374	13197.5	12307.15
928.8965	1970.1387	13175.9	12285.65
929.0346	1971.7393	13113.9	12222
929.1727	1973.3392	13086.3	12193.8
929.3108	1974.9383	13027.1	12139.85
929.4489	1976.5366	12939.65	12049.9
929.5869	1978.1342	12939.75	12050
929.7249	1979.7311	12933.2	12044.25
929.8629	1981.3273	12872.75	11983.7
930.0009	1982.9227	12838.85	11952.1
930.1388	1984.5173	12781.65	11892.65
930.2767	1986.1112	12753.3	11865.35
930.4146	1987.7044	12719.7	11833.25
930.5525	1989.2968	12685.95	11796
930.6904	1990.8885	12640.3	11749.05
930.8282	1992.4795	12605.15	11714.7
930.966	1994.0697	12535.45	11649.7
931.1038	1995.6592	12518.25	11631.5
931.2415	1997.2479	12475.85	11584.65
931.3793	1998.8359	12450.45	11561.05
931.517	2000.4232	12393.5	11510.4
931.6547	2002.0097	12376.85	11494
931.7923	2003.5955	12314.35	11431.3
931.93	2005.1805	12318.7	11431.4
932.0676	2006.7648	12291.45	11405.6
932.2052	2008.3484	12225.85	11340.9
932.3427	2009.9312	12206.3	11322.3
932.4803	2011.5133	12170.35	11289.6
932.6178	2013.0946	12136.35	11251.9
932.7553	2014.6752	12104.5	11219.85
932.8928	2016.2551	12051.3	11163.9
933.0302	2017.8342	12043	11156.55
933.1676	2019.4126	11978.95	11096.25
933.305	2020.9902	11927.75	11045.6
933.4424	2022.5672	11921.45	11036.75
933.5798	2024.1433	11898.05	11010
933.7171	2025.7188	11841.4	10957.5
933.8544	2027.2935	11812.7	10931.35
933.9917	2028.8674	11777.95	10896.25
934.129	2030.4406	11736.25	10853.65
934.2662	2032.0131	11684.8	10803.9
934.4034	2033.5849	11655.45	10769.85
934.5406	2035.1559	11640.25	10757.4
934.6778	2036.7261	11616.3	10733.85
934.8149	2038.2957	11571.3	10684.1
934.952	2039.8645	11542.45	10655.3
935.0891	2041.4325	11546.5	10657.5
935.2262	2042.9998	11481.3	10596.4
935.3632	2044.5664	11436.45	10550.4
935.5002	2046.1323	11417.3	10533.1
935.6372	2047.6974	11384.2	10501.55
935.7742	2049.2617	11351.35	10467.2
935.9111	2050.8254	11357.25	10467.2
936.048	2052.3883	11331.65	10446.7
936.1849	2053.9504	11287.25	10399.6
936.3218	2055.5118	11241.5	10355.3
936.4586	2057.0725	11192.15	10303.2
936.5955	2058.6325	11150.5	10265.2
936.7323	2060.1917	11126.15	10243.25
936.869	2061.7502	11109.3	10221.05
937.0058	2063.3079	11054.75	10171.75
937.1425	2064.8649	11042.9	10158.55
937.2792	2066.4212	11018.5	10133.7
937.4159	2067.9767	10989.8	10103.4
937.5525	2069.5315	10945.7	10060.05
937.6891	2071.0856	10889.95	10006.05
937.8257	2072.6389	10837.5	9953.4
937.9623	2074.1915	10803.5	9922.4
938.0989	2075.7433	10755.25	9867.65
938.2354	2077.2945	10731.3	9847.65
938.3719	2078.8448	10688.9	9803.3
938.5084	2080.3945	10669.7	9782.95
938.6448	2081.9434	10649.55	9762.55
938.7812	2083.4916	10623	9734.85
938.9176	2085.039	10579.35	9689.05
939.054	2086.5857	10553.4	9660.15
939.1903	2088.1317	10531.7	9639.35
939.3267	2089.677	10504.35	9612.9
939.463	2091.2215	10487.4	9597.8
939.5992	2092.7652	10461.7	9567.5
939.7355	2094.3083	10408.9	9519
939.8717	2095.8506	10442	9553.8
940.0079	2097.3921	10426.95	9540.4
940.1441	2098.933	10384.6	9496.25
940.2802	2100.4731	10335.9	9451.15
940.4163	2102.0124	10340.4	9443.5
940.5524	2103.5511	10287.85	9399.55
940.6885	2105.089	10277.35	9389.95
940.8245	2106.6261	10254.15	9365.5
940.9606	2108.1626	10216.9	9329.75
941.0965	2109.6983	10217.05	9299.5
941.2325	2111.2332	10171.05	9281.2
941.3684	2112.7675	10150.35	9259.15
941.5044	2114.301	10121.1	9232.2
941.6403	2115.8337	10101.55	9213.5
941.7761	2117.3657	10060.9	9174.1
941.912	2118.897	10055.4	9165.1
942.0478	2120.4276	10012.6	9118.9
942.1835	2121.9575	9958.4	9070.75
942.3193	2123.4866	9974.7	9080.6
942.455	2125.0149	9934.5	9044.6
942.5907	2126.5426	9876.75	8992.05
942.7264	2128.0695	9847.4	8959.7
942.8621	2129.5956	9857.35	8974.95
942.9977	2131.1211	9819.15	8930.05
943.1333	2132.6458	9753.55	8868.45
943.2689	2134.1698	9738.6	8850.35
943.4044	2135.693	9723.9	8832.1
943.54	2137.2155	9711.15	8820.65
943.6755	2138.7373	9678.4	8791.45
943.8109	2140.2584	9669.25	8784.6
943.9464	2141.7787	9633.4	8744.75
944.0818	2143.2983	9577.05	8696.4
944.2172	2144.8171	9566.75	8685.3
944.3526	2146.3353	9518.2	8632.65
944.4879	2147.8527	9504.75	8620.05
944.6232	2149.3693	9487.1	8597.55
944.7585	2150.8853	9437.9	8549.25
944.8938	2152.4005	9402.05	8512.85
945.029	2153.9149	9401.05	8511.15
945.1642	2155.4287	9464.9	8464.65
945.2994	2156.9417	9375.15	8484.8
945.4346	2158.454	9335.8	8448.05
945.5697	2159.9655	9297.4	8411.3
945.7048	2161.4764	9288.95	8404.4
945.8399	2162.9865	9228.25	8342.95
945.9749	2164.4958	9211	8324.4
946.1099	2166.0045	9172.25	8284.3
946.2449	2167.5124	9167.3	8282.2
946.3799	2169.0195	9161.5	8273.65
946.5148	2170.526	9131.85	8241.85
946.6498	2172.0317	9111.2	8222.8
946.7846	2173.5367	9082.3	8196.15
946.9195	2175.0409	9050.8	8163.8
947.0543	2176.5445	9037.2	8149.75
947.1891	2178.0473	8998.9	8109.45
947.3239	2179.5494	8960.45	8068.35
947.4587	2181.0507	8943.4	8055.6
947.5934	2182.5513	8941.75	8054.15
947.7281	2184.0512	8902.8	8015.35
947.8628	2185.5504	8870.1	7980.95
947.9974	2187.0488	8837.6	7952.75
948.132	2188.5465	8783.3	7899.55
948.2666	2190.0435	8786.05	7898.9
948.4012	2191.5397	8749.3	7862.45
948.5357	2193.0353	8700.35	7811.35
948.6702	2194.5301	8668.9	7778.6
948.8047	2196.0241	8647.4	7757.35
948.9392	2197.5175	8659.25	7766.1
949.0736	2199.0101	8619.3	7726.1
949.208	2200.502	8570.95	7684.4
949.3424	2201.9931	8543.8	7657.1
949.4767	2203.4835	8481.55	7592.95
949.611	2204.9733	8498.6	7598.3
949.7453	2206.4622	8483.55	7600.85
949.8796	2207.9505	8450.1	7562.9
950.0138	2209.438	8373.15	7490.25
950.148	2210.9248	8367.6	7480.5
950.2822	2212.4109	8360.85	7471.5
950.4164	2213.8962	8323.35	7431.35
950.5505	2215.3809	8315.8	7422.75
950.6846	2216.8648	8284.35	7392.75
950.8186	2218.3479	8274.65	7378.3
950.9527	2219.8304	8219.75	7325.05
951.0867	2221.3121	8198.05	7305.3
951.2207	2222.7931	8173.5	7283.25
951.3546	2224.2733	8146.25	7257.35
951.4886	2225.7529	8122.75	7233.7
951.6225	2227.2317	8082.25	7191.8
951.7563	2228.7098	8084.5	7201.4
951.8902	2230.1872	8028.3	7144.3
952.024	2231.6638	8040.4	7155.65
952.1578	2233.1397	7999	7110.55
952.2916	2234.6149	7966.2	7081.8
952.4253	2236.0894	7954.05	7069.5
952.559	2237.5632	7935.7	7045.05
952.6927	2239.0362	7895.5	7008.3
952.8263	2240.5085	7872	6986.35
952.9599	2241.9801	7830.35	6942.2
953.0935	2243.4509	7813.8	6923.85
953.2271	2244.921	7786.45	6895.7
953.3606	2246.3904	7771.85	6877.85
953.4941	2247.8591	7734.2	6845
953.6276	2249.3271	7724.2	6836.35
953.7611	2250.7943	7691.6	6801.95
953.8945	2252.2608	7664.4	6773.6
954.0279	2253.7266	7621.15	6734.15
954.1612	2255.1917	7617.85	6728.85
954.2946	2256.656	7586.6	6698.8
954.4279	2258.1197	7569.25	6685.15
954.5612	2259.5826	7562.9	6673.75
954.6944	2261.0447	7564.55	6675.15
954.8276	2262.5062	7511.7	6621.1
954.9608	2263.9669	7484.55	6591.3
955.094	2265.4269	7495.4	6608.6
955.2271	2266.8862	7451.8	6562.55
955.3602	2268.3448	7454.95	6567.4
955.4933	2269.8026	7441.45	6553.8
955.6264	2271.2598	7413.7	6528.8
955.7594	2272.7162	7379.85	6493.5
955.8924	2274.1719	7357.4	6467.2
956.0253	2275.6268	7347.1	6456.45
956.1583	2277.0811	7336.4	6445.75
956.2912	2278.5346	7325.35	6437.6
956.4241	2279.9874	7298.8	6411.85
956.5569	2281.4395	7285.55	6401.15
956.6897	2282.8908	7254.25	6363.3
956.8225	2284.3414	7240.2	6349.5
956.9553	2285.7914	7239.9	6351.75
957.088	2287.2406	7195.3	6304.45
957.2207	2288.689	7168.85	6279.85
957.3534	2290.1368	7174	6283.15
957.486	2291.5838	7138.3	6244.45
957.6186	2293.0302	7110.5	6216.7
957.7512	2294.4758	7078.95	6188
957.8838	2295.9206	7039.6	6147.05
958.0163	2297.3648	7019.5	6132.4
958.1488	2298.8082	7033.85	6145.8
958.2813	2300.251	6994.15	6104.05
958.4137	2301.693	6988.15	6094.1
958.5461	2303.1343	6995.35	6106.3
958.6785	2304.5748	6946.45	6058.75
958.8108	2306.0147	6912.15	6026.85
958.9432	2307.4538	6912.9	6026.8
959.0754	2308.8922	6890.05	6006.75
959.2077	2310.3299	6854.7	5968.55
959.3399	2311.7669	6838.35	5949.65
959.4721	2313.2031	6815.85	5928
959.6043	2314.6387	6804.15	5914.1
959.7365	2316.0735	6781.45	5892.3
959.8686	2317.5076	6738.85	5847.95
960.0006	2318.941	6757.35	5865.5
960.1327	2320.3737	6716.45	5825.6
960.2647	2321.8056	6698.45	5805.65
960.3967	2323.2369	6694.7	5805.4
960.5287	2324.6674	6674.85	5785.95
960.6606	2326.0972	6652.5	5762.5
960.7925	2327.5263	6628.85	5739.1
960.9244	2328.9547	6611.45	5721.8
961.0562	2330.3823	6595.95	5701.8
961.1881	2331.8092	6599.35	5706.5
961.3198	2333.2355	6550.85	5660.4
961.4516	2334.661	6557.95	5665.85
961.5833	2336.0858	6533.15	5640.75
961.715	2337.5098	6507.9	5618.3
961.8467	2338.9332	6493.1	5604.8
961.9783	2340.3558	6474.4	5582.85
962.1099	2341.7778	6444.5	5556.5
962.2415	2343.199	6431.25	5541.4
962.373	2344.6195	6407.2	5516.9
962.5045	2346.0393	6410.1	5524.25
962.636	2347.4583	6401.7	5511.15
962.7675	2348.8767	6380.1	5490.1
962.8989	2350.2943	6372.2	5480.15
963.0303	2351.7113	6349.95	5457.45
963.1617	2353.1275	6325.6	5433
963.293	2354.543	6325	5423.7
963.4243	2355.9578	6275.75	5384.4
963.5556	2357.3718	6233.35	5345.4
963.6868	2358.7852	6227	5336.25
963.818	2360.1978	6206.5	5317.6
963.9492	2361.6098	6198.7	5311.65
964.0803	2363.021	6180.5	5286.35
964.2114	2364.4315	6159.85	5271.7
964.3425	2365.8413	6148.6	5258.45
964.4736	2367.2504	6140.2	5253.1
964.6046	2368.6587	6109.55	5223.35
964.7356	2370.0664	6068.25	5180.45
964.8666	2371.4733	6048.15	5159.35
964.9975	2372.8795	6017.6	5127.9
965.1284	2374.285	6013.95	5125.45
965.2593	2375.6899	5966.7	5078.9
965.3901	2377.0939	5952.85	5065.5
965.5209	2378.4973	5947.1	5060.15
965.6517	2379.9	5934.2	5046.9
965.7825	2381.3019	5892.4	5005.3
965.9132	2382.7032	5877.45	4989.7
966.0439	2384.1037	5869.1	4983.65
966.1745	2385.5035	5837.4	4951.6
966.3051	2386.9027	5836	4950.8
966.4357	2388.3011	5832.3	4943.25
966.5663	2389.6987	5806	4918.75
966.6968	2391.0957	5772.6	4885.65
966.8273	2392.492	5767.35	4881.1
966.9578	2393.8876	5739.05	4853.2
967.0882	2395.2824	5714.1	4825.55
967.2186	2396.6765	5681.3	4793.3
967.349	2398.07	5681.8	4793.1
967.4793	2399.4627	5662.2	4770.4
967.6097	2400.8547	5653.55	4765.5
967.7399	2402.246	5624.35	4729.95
967.8702	2403.6366	5610.4	4723.75
968.0004	2405.0265	5568.85	4682.85
968.1306	2406.4156	5570.45	4678
968.2607	2407.8041	5550.75	4658.95
968.3909	2409.1918	5535.4	4643.7
968.521	2410.5789	5511.45	4625.7
968.651	2411.9652	5497.05	4607
968.781	2413.3508	5495	4605.5
968.911	2414.7358	5462	4572.7
969.041	2416.12	5457.75	4570.6
969.1709	2417.5035	5428.1	4542.6
969.3008	2418.8863	5406.45	4518.05
969.4307	2420.2684	5395.45	4506.4
969.5606	2421.6497	5357.15	4466.3
969.6904	2423.0304	5331	4442.35
969.8201	2424.4104	5324.6	4438.05
969.9499	2425.7896	5303.6	4415.15
970.0796	2427.1682	5296.05	4409
970.2093	2428.546	5294.55	4405.6
970.3389	2429.9232	5275.3	4385.55
970.4685	2431.2996	5258.55	4369.35
970.5981	2432.6753	5255.15	4367.3
970.7277	2434.0503	5241.55	4351.85
970.8572	2435.4246	5228.95	4340.35
970.9867	2436.7982	5199.45	4306.95
971.1161	2438.1711	5187.5	4299.85
971.2456	2439.5433	5178.4	4286.6
971.375	2440.9148	5153.7	4261
971.5043	2442.2856	5136.8	4247.25
971.6336	2443.6557	5113.2	4222.85
971.7629	2445.025	5099.65	4211.1
971.8922	2446.3937	5089.5	4198.35
972.0214	2447.7617	5073.7	4184.15
972.1506	2449.1289	5070.15	4178.85
972.2798	2450.4955	5071.75	4183.25
972.4089	2451.8613	5036.35	4150.75
972.538	2453.2265	5018.85	4130.55
972.6671	2454.5909	5010.5	4121.7
972.7961	2455.9546	5003.85	4117.75
972.9251	2457.3177	5007.1	4120.15
973.0541	2458.68	4979.1	4088.75
973.1831	2460.0416	4971.95	4081.95
973.312	2461.4025	4967.75	4077.35
973.4408	2462.7627	4939.3	4042.2
973.5697	2464.1222	4918.7	4031.9
973.6985	2465.4811	4911.75	4025.8
973.8273	2466.8392	4925.35	4038.15
973.956	2468.1966	4866.9	3975.75
974.0847	2469.5533	4881.6	3993.5
974.2134	2470.9093	4867.7	3981.25
974.3421	2472.2645	4852.25	3961.45
974.4707	2473.6191	4844.85	3957.65
974.5993	2474.973	4819.05	3930
974.7278	2476.3262	4820.55	3931.5
974.8563	2477.6787	4806.1	3919.1
974.9848	2479.0305	4774.5	3890.6
975.1132	2480.3816	4743.2	3854.3
975.2417	2481.7319	4754.7	3868.45
975.37	2483.0816	4728.45	3839.5
975.4984	2484.4306	4714.05	3826
975.6267	2485.7789	4685.35	3800.15
975.755	2487.1264	4676.25	3788.35
975.8833	2488.4733	4674.15	3787.9
976.0115	2489.8195	4655.8	3753
976.1397	2491.165	4639.65	3748.85
976.2678	2492.5097	4628.55	3739
976.3959	2493.8538	4612.75	3726
976.524	2495.1972	4580	3693.45
976.6521	2496.5398	4565.9	3677.4
976.7801	2497.8818	4577.25	3688.45
976.9081	2499.2231	4553.05	3664.6
977.036	2500.5637	4536.4	3645.75
977.164	2501.9035	4510.55	3619.45
977.2918	2503.2427	4515	3623.4
977.4197	2504.5812	4495.2	3607.95
977.5475	2505.919	4471.9	3580.35
977.6753	2507.256	4478.35	3590.65
977.8031	2508.5924	4454.65	3565.85
977.9308	2509.9281	4449.15	3555.55
978.0585	2511.2631	4435.85	3550.05
978.1861	2512.5974	4407.1	3520.95
978.3137	2513.9309	4408.95	3522.75
978.4413	2515.2638	4408.65	3497.4
978.5689	2516.596	4397.8	3510.7
978.6964	2517.9275	4374.1	3485.4
978.8239	2519.2583	4348.45	3460.7
978.9513	2520.5884	4342.45	3451.25
979.0788	2521.9178	4325.15	3436
979.2062	2523.2465	4325.35	3438.85
979.3335	2524.5745	4294.15	3406.05
979.4608	2525.9018	4272.2	3385.25
979.5881	2527.2284	4273.1	3385.55
979.7154	2528.5543	4251.2	3363.7
979.8426	2529.8796	4258.55	3368
979.9698	2531.2041	4242.85	3355.9
980.0969	2532.5279	4258.1	3371.8
980.224	2533.851	4236.45	3348.35
980.3511	2535.1735	4223.65	3336.7
980.4781	2536.4952	4224.1	3334.25
980.6052	2537.8163	4215.7	3326.95
980.7321	2539.1366	4188.4	3301.4
980.8591	2540.4562	4193.8	3302.6
980.986	2541.7752	4183.7	3297.2
981.1129	2543.0935	4174.1	3284.9
981.2397	2544.411	4164.5	3275.55
981.3665	2545.7279	4154.05	3266.25
981.4933	2547.0441	4149.6	3259.85
981.62	2548.3596	4144.05	3252.4
981.7467	2549.6744	4135.4	3247.5
981.8734	2550.9885	4118.95	3227.25
982.0001	2552.3019	4099.15	3210.8
982.1267	2553.6146	4098.45	3210.85
982.2532	2554.9266	4068.8	3181.1
982.3798	2556.2379	4057.35	3167.6
982.5063	2557.5485	4048.65	3161.65
982.6327	2558.8585	4072.9	3177.25
982.7592	2560.1677	4054.15	3159.15
982.8856	2561.4762	4043.15	3151.75
983.0119	2562.7841	4031.6	3141.45
983.1383	2564.0913	4007.45	3119.5
983.2646	2565.3977	4007.8	3122.2
983.3908	2566.7035	3998.35	3109.7
983.517	2568.0086	3999.55	3108.2
983.6432	2569.313	3986.5	3098.5
983.7694	2570.6167	3978	3084.9
983.8955	2571.9197	3968.45	3080.1
984.0216	2573.222	3966.35	3073.85
984.1476	2574.5236	3955.9	3066.45
984.2737	2575.8246	3941.3	3049.3
984.3996	2577.1248	3947.45	3057.55
984.5256	2578.4244	3949.45	3059.55
984.6515	2579.7232	3931.65	3042.9
984.7774	2581.0214	3949.8	3030.55
984.9032	2582.3189	3926.55	3038.85
985.029	2583.6157	3914.8	3021.75
985.1548	2584.9118	3898.45	3010.1
985.2806	2586.2072	3871.25	2980.6
985.4063	2587.5019	3878.75	2990.2
985.5319	2588.7959	3880.25	2991.1
985.6576	2590.0893	3875.2	2984.65
985.7832	2591.3819	3874.75	2986.2
985.9087	2592.6739	3855.35	2965
986.0343	2593.9652	3847.5	2956.85
986.1597	2595.2557	3845.95	2959.65
986.2852	2596.5456	3820.45	2930.25
986.4106	2597.8348	3810.3	2924.6
986.536	2599.1234	3801.55	2914.3
986.6614	2600.4112	3801.7	2912.6
986.7867	2601.6983	3785.25	2893.1
986.912	2602.9848	3783.05	2895.3
987.0372	2604.2705	3775.35	2877.5
987.1624	2605.5556	3754.25	2864.75
987.2876	2606.84	3752.25	2864.4
987.4128	2608.1237	3746.7	2856.6
987.5379	2609.4067	3717.1	2827.4
987.6629	2610.689	3714.75	2818.4
987.788	2611.9707	3703.95	2812.05
987.913	2613.2516	3707.45	2813.4
988.0379	2614.5319	3672.25	2786.25
988.1629	2615.8115	3676.45	2787.85
988.2878	2617.0903	3660.05	2768.75
988.4126	2618.3685	3648.45	2758.2
988.5375	2619.6461	3633.35	2742.15
988.6622	2620.9229	3626.15	2737.5
988.787	2622.199	3628.6	2738.05
988.9117	2623.4745	3626.2	2737.75
989.0364	2624.7493	3609.1	2722.5
989.161	2626.0234	3576.85	2689.4
989.2857	2627.2968	3579.35	2690.5
989.4102	2628.5695	3569.95	2676.3
989.5348	2629.8415	3557.4	2668.75
989.6593	2631.1128	3545.15	2656.65
989.7837	2632.3835	3532.95	2644.45
989.9082	2633.6535	3523.4	2633
990.0326	2634.9228	3513.55	2628.3
990.1569	2636.1914	3508.8	2621.6
990.2812	2637.4593	3492.4	2605.25
990.4055	2638.7265	3478.9	2588.65
990.5298	2639.9931	3478.8	2590.6
990.654	2641.259	3463.8	2574.75
990.7782	2642.5242	3461.75	2573
990.9023	2643.7887	3464.05	2576
991.0264	2645.0525	3441.25	2552.9
991.1505	2646.3156	3451.75	2545.75
991.2745	2647.5781	3422.5	2536.1
991.3985	2648.8398	3422.5	2533.25
991.5225	2650.1009	3414.25	2522.1
991.6464	2651.3613	3406.75	2519.1
991.7703	2652.6211	3394.6	2506.55
991.8942	2653.8801	3380.1	2492.9
992.018	2655.1385	3383.35	2493.35
992.1418	2656.3961	3380.65	2492.85
992.2655	2657.6531	3375.3	2487.7
992.3892	2658.9094	3369.3	2480.1
992.5129	2660.1651	3342.3	2454.45
992.6366	2661.42	3350.2	2463.2
992.7602	2662.6743	3341.85	2454.6
992.8837	2663.9279	3336.1	2447.7
993.0073	2665.1808	3334.2	2445.7
993.1307	2666.433	3332.4	2443.75
993.2542	2667.6846	3316.3	2429.55
993.3776	2668.9354	3312	2421.1
993.501	2670.1856	3302.55	2411.25
993.6244	2671.4351	3294.4	2407.25
993.7477	2672.6839	3304.9	2416.1
993.8709	2673.9321	3298.05	2411.95
993.9942	2675.1795	3271.65	2383.35
994.1174	2676.4263	3275.65	2390.55
994.2405	2677.6724	3263.6	2376.75
994.3637	2678.9179	3257.4	2369.65
994.4868	2680.1626	3255.5	2366.95
994.6098	2681.4067	3256	2366.85
994.7328	2682.6501	3240.4	2352.15
994.8558	2683.8928	3241.9	2356.5
994.9788	2685.1348	3230.4	2344.85
995.1017	2686.3761	3224.85	2338.5
995.2245	2687.6168	3207	2320.75
995.3474	2688.8568	3191.4	2300.95
995.4702	2690.0961	3187.55	2299.9
995.5929	2691.3348	3169	2281
995.7156	2692.5727	3171.95	2282.35
995.8383	2693.81	3153.25	2263.7
995.961	2695.0466	3149.8	2263.15
996.0836	2696.2826	3153.35	2264.5
996.2062	2697.5178	3147.85	2256.6
996.3287	2698.7524	3134.8	2247.55
996.4512	2699.9863	3132.2	2242.3
996.5737	2701.2195	3117.1	2232.75
996.6961	2702.452	3128.5	2239.2
996.8185	2703.6839	3122.65	2233.55
996.9408	2704.9151	3122.75	2235.85
997.0631	2706.1456	3112.1	2221.8
997.1854	2707.3755	3103.65	2213.55
997.3077	2708.6046	3110	2220.45
997.4299	2709.8331	3115.65	2229
997.552	2711.0609	3105.85	2217.65
997.6742	2712.2881	3108.45	2221.9
997.7963	2713.5145	3113.2	2224.85
997.9183	2714.7403	3100.5	2213.6
998.0403	2715.9654	3098.35	2210.85
998.1623	2717.1899	3127	2225.15
998.2842	2718.4136	3113.6	2227.65
998.4062	2719.6367	3126.2	2238.95
998.528	2720.8591	3128.95	2235.95
998.6498	2722.0809	3119.45	2231.25
998.7716	2723.3019	3106.9	2216.65
998.8934	2724.5223	3119	2230.7
999.0151	2725.7421	3115.7	2228.6
999.1368	2726.9611	3106.3	2217.95
999.2584	2728.1795	3111.75	2219.55
999.38	2729.3972	3104.3	2217.05
999.5016	2730.6142	3078.95	2185.45
999.6231	2731.8306	3054.6	2166.45
999.7446	2733.0462	3039.35	2149.2
999.8661	2734.2612	3015.8	2123.9
999.9875	2735.4756	2994.45	2106.2
1000.1089	2736.6892	2978.75	2091.1
1000.2302	2737.9022	2950.05	2063.9
1000.3515	2739.1145	2927.65	2041.05
1000.4728	2740.3262	2931.4	2037.25
1000.594	2741.5372	2899.45	2011.85
1000.7152	2742.7475	2886.15	1999.5
1000.8363	2743.9571	2861.25	1974.55
1000.9575	2745.1661	2851.8	1959.05
1001.0785	2746.3744	2848.05	1962.15
1001.1996	2747.582	2822.95	1935.65
1001.3206	2748.7889	2802	1912.95
1001.4415	2749.9952	2796.15	1909.7
1001.5625	2751.2008	2795.3	1907.5
1001.6833	2752.4057	2784.1	1895.75
1001.8042	2753.61	2769.2	1880.65
1001.925	2754.8136	2778.25	1889.35
1002.0458	2756.0165	2759.1	1872.5
1002.1665	2757.2188	2751.05	1864.9
1002.2872	2758.4204	2749.9	1863.6
1002.4078	2759.6213	2752.1	1864
1002.5285	2760.8215	2749	1857.35
1002.649	2762.0211	2724.95	1835.95
1002.7696	2763.22	2714.95	1824.35
1002.8901	2764.4182	2708.8	1822.5
1003.0106	2765.6158	2702.65	1815.6
1003.131	2766.8127	2692	1803.15
1003.2514	2768.009	2687.6	1800.9
1003.3717	2769.2045	2680.2	1792.2
1003.492	2770.3994	2682.8	1795
1003.6123	2771.5936	2672.5	1785.45
1003.7325	2772.7872	2656.85	1774.7
1003.8527	2773.9801	2650.65	1761.85
1003.9729	2775.1723	2658.3	1757.45
1004.093	2776.3639	2633.2	1747.6
1004.2131	2777.5548	2633.25	1746.55
1004.3331	2778.745	2628.9	1743.15
1004.4531	2779.9346	2617.15	1731
1004.5731	2781.1235	2612.2	1723.85
1004.693	2782.3117	2611.75	1727.5
1004.8129	2783.4992	2621.85	1736.05
1004.9328	2784.6861	2621.1	1734.45
1005.0526	2785.8723	2629.2	1743.6
1005.1723	2787.0579	2616.8	1732.85
1005.2921	2788.2428	2615.85	1730.3
1005.4118	2789.427	2619.6	1732.3
1005.5314	2790.6106	2619.15	1733.85
1005.651	2791.7935	2624.1	1736.6
1005.7706	2792.9757	2607.2	1722.5
1005.8902	2794.1573	2626.3	1738.9
1006.0097	2795.3382	2638.25	1752.7
1006.1291	2796.5184	2647.85	1764.5
1006.2485	2797.698	2661.45	1776.3
1006.3679	2798.8769	2666.9	1781.55
1006.4873	2800.0551	2673	1787.7
1006.6066	2801.2327	2688.55	1802.85
1006.7258	2802.4096	2699.4	1814.15
1006.8451	2803.5859	2720.65	1834.95
1006.9642	2804.7615	2721.1	1837.1
1007.0834	2805.9364	2732.5	1849.95
1007.2025	2807.1106	2763.1	1880.05
1007.3216	2808.2842	2797.2	1912.05
1007.4406	2809.4572	2808.35	1923.5
1007.5596	2810.6294	2832.1	1944.4
1007.6785	2811.801	2866.45	1981.35
1007.7975	2812.972	2900.55	2015.1
1007.9163	2814.1423	2930.5	2045.5
1008.0352	2815.3119	2986.85	2100.45
1008.154	2816.4808	3028.4	2144.6
1008.2727	2817.6491	3074	2186.85
1008.3914	2818.8167	3108.05	2223.75
1008.5101	2819.9837	3160.1	2269.15
1008.6288	2821.15	3189.4	2304.8
1008.7474	2822.3157	3238.2	2353.55
1008.8659	2823.4807	3267.3	2381.45
1008.9844	2824.645	3314.9	2427.7
1009.1029	2825.8086	3341.15	2458.65
1009.2214	2826.9716	3366.55	2482.95
1009.3398	2828.134	3419.1	2534.1
1009.4581	2829.2957	3452.3	2567.9
1009.5764	2830.4567	3464.15	2582.5
1009.6947	2831.617	3486.7	2601.75
1009.813	2832.7767	3499.75	2616.35
1009.9312	2833.9358	3486.8	2603.5
1010.0493	2835.0941	3483.45	2596.6
1010.1675	2836.2519	3471.05	2586.95
1010.2855	2837.4089	3455.7	2567.8
1010.4036	2838.5653	3446.7	2562.4
1010.5216	2839.7211	3435.4	2553.75
1010.6396	2840.8761	3447.25	2561.2
1010.7575	2842.0306	3457.25	2573.55
1010.8754	2843.1843	3484.65	2600.85
1010.9932	2844.3374	3534.3	2650.85
1011.111	2845.4899	3587	2701.2
1011.2288	2846.6417	3651	2767.55
1011.3465	2847.7928	3725.5	2841.7
1011.4642	2848.9433	3777.6	2892.8
1011.5818	2850.0931	3847.1	2961.75
1011.6995	2851.2422	3931.75	3046.85
1011.817	2852.3907	3977.85	3093.7
1011.9345	2853.5385	4044.5	3160.5
1012.052	2854.6857	4100.7	3208.15
1012.1695	2855.8323	4132.3	3247.4
1012.2869	2856.9781	4188.65	3303.35
1012.4042	2858.1233	4221.15	3337.5
1012.5216	2859.2679	4250.25	3364.8
1012.6389	2860.4118	4285.2	3403.15
1012.7561	2861.555	4321	3431.95
1012.8733	2862.6976	4357.3	3471.35
1012.9905	2863.8395	4377.9	3495.6
1013.1076	2864.9808	4405.65	3522.3
1013.2247	2866.1214	4409.55	3527.45
1013.3417	2867.2614	4430.35	3544.05
1013.4587	2868.4007	4445.35	3560.3
1013.5757	2869.5393	4430.55	3543.7
1013.6926	2870.6773	4444.35	3556.5
1013.8095	2871.8146	4466.35	3579.1
1013.9263	2872.9513	4447.25	3561.1
1014.0431	2874.0874	4438.95	3555.6
1014.1599	2875.2227	4432.1	3548.8
1014.2766	2876.3574	4412.45	3528.35
1014.3933	2877.4915	4380.55	3497.45
1014.51	2878.6249	4348.7	3467
1014.6266	2879.7577	4322	3437.35
1014.7431	2880.8898	4312.7	3418.2
1014.8596	2882.0212	4277.35	3395
1014.9761	2883.152	4281.5	3396
1015.0925	2884.2821	4273	3389.9
1015.2089	2885.4116	4251.7	3369.15
1015.3253	2886.5405	4235.3	3352.5
1015.4416	2887.6686	4253.15	3364.55
1015.5579	2888.7962	4255.95	3372.6
1015.6741	2889.923	4233.3	3350.5
1015.7903	2891.0493	4249.8	3368.4
1015.9065	2892.1748	4248.4	3364.2
1016.0226	2893.2997	4268.3	3384.15
1016.1387	2894.424	4290.6	3409.15
1016.2547	2895.5476	4281.9	3399.8
1016.3707	2896.6706	4306.85	3424.05
1016.4866	2897.7929	4332.25	3449.55
1016.6025	2898.9145	4348.95	3465.25
1016.7184	2900.0355	4384.9	3501.1
1016.8342	2901.1559	4410.25	3525.8
1016.95	2902.2756	4429.5	3546.9
1017.0658	2903.3946	4472.1	3587.15
1017.1815	2904.513	4479.15	3593.7
1017.2971	2905.6308	4503	3619.45
1017.4127	2906.7479	4495.75	3611.6
1017.5283	2907.8643	4535.35	3651.2
1017.6439	2908.9801	4549.75	3666
1017.7594	2910.0953	4553.6	3671.65
1017.8748	2911.2098	4554.35	3667.45
1017.9902	2912.3236	4526.9	3635.7
1018.1056	2913.4368	4515.55	3629.25
1018.2209	2914.5494	4518.4	3633.6
1018.3362	2915.6613	4474.95	3586.35
1018.4515	2916.7725	4437.95	3553.05
1018.5667	2917.8831	4411.45	3527.65
1018.6819	2918.9931	4391.3	3503.7
1018.797	2920.1024	4355.95	3470.35
1018.9121	2921.211	4323.95	3438.65
1019.0271	2922.319	4306.5	3424.3
1019.1421	2923.4264	4271.55	3389.85
1019.2571	2924.5331	4270.05	3388.35
1019.372	2925.6391	4249.2	3366.15
1019.4869	2926.7445	4240.35	3360.2
1019.6017	2927.8493	4218.6	3334.1
1019.7165	2928.9534	4217	3332.55
1019.8313	2930.0569	4220.8	3331.95
1019.946	2931.1597	4207.7	3323.3
1020.0606	2932.2619	4194.4	3309.6
1020.1753	2933.3634	4182.9	3300.15
1020.2899	2934.4643	4187.25	3298.25
1020.4044	2935.5645	4162.15	3274.3
1020.5189	2936.6641	4117.5	3229.9
1020.6334	2937.763	4084.9	3203.6
1020.7478	2938.8613	4039.9	3155.95
1020.8622	2939.959	3979.1	3090.8
1020.9765	2941.056	3908.05	3026.6
1021.0908	2942.1523	3819.4	2934.9
1021.2051	2943.248	3741.3	2860.1
1021.3193	2944.3431	3658.35	2775.45
1021.4334	2945.4375	3562.15	2677.95
1021.5476	2946.5313	3458.95	2578.5
1021.6617	2947.6244	3346.2	2464
1021.7757	2948.7169	3247.05	2364.4
1021.8897	2949.8087	3159.2	2277.2
1022.0037	2950.8999	3077.7	2195.55
1022.1176	2951.9904	3000.7	2119.45
1022.2315	2953.0803	2934.8	2050.75
1022.3453	2954.1696	2873.25	1990.2
1022.4591	2955.2582	2818	1934.3
1022.5728	2956.3462	2771.4	1890.45
1022.6865	2957.4335	2734	1850.05
1022.8002	2958.5202	2683.5	1797.65
1022.9138	2959.6062	2667.35	1786.1
1023.0274	2960.6916	2637.9	1756.05
1023.141	2961.7764	2610.75	1727.7
1023.2545	2962.8605	2596.2	1711.4
1023.3679	2963.9439	2578.35	1697.35
1023.4813	2965.0267	2565.65	1680.05
1023.5947	2966.1089	2583.7	1677.9
1023.708	2967.1905	2550.65	1666.6
1023.8213	2968.2714	2549.65	1668.6
1023.9346	2969.3516	2537.45	1656.15
1024.0478	2970.4312	2537.75	1648.05
1024.1609	2971.5102	2543.6	1662.3
1024.274	2972.5885	2541.7	1661.1
1024.3871	2973.6662	2536.4	1650.45
1024.5002	2974.7432	2530.55	1648.5
1024.6132	2975.8196	2514.1	1631.65
1024.7261	2976.8954	2496.45	1615.25
1024.839	2977.9705	2487.9	1605.7
1024.9519	2979.045	2471.75	1590.1
1025.0647	2980.1188	2454.3	1571.45
1025.1775	2981.192	2435.5	1553.3
1025.2902	2982.2645	2419.5	1535.7
1025.4029	2983.3364	2391.6	1511.25
1025.5156	2984.4077	2361.3	1480.9
1025.6282	2985.4783	2336.85	1447.75
1025.7407	2986.5483	2307	1423.25
1025.8532	2987.6177	2269.4	1388.4
1025.9657	2988.6864	2230.75	1348.55
1026.0782	2989.7545	2194.85	1312.35
1026.1906	2990.8219	2173.55	1293
1026.3029	2991.8887	2143.65	1262.4
1026.4152	2992.9548	2091	1209
1026.5275	2994.0204	2076.35	1195.35
1026.6397	2995.0852	2042.6	1161.55
1026.7519	2996.1495	2025.8	1141.85
1026.864	2997.2131	1989.15	1106.1
1026.9761	2998.276	1969.95	1088.05
1027.0882	2999.3383	1950.7	1068
1027.2002	3000.4	1926.3	1044.75
1027.3122	3001.4611	1920.9	1038.45
1027.4241	3002.5215	1887.6	1006.05
1027.536	3003.5812	1871.65	990.65
1027.6478	3004.6404	1867.15	985.1
1027.7596	3005.6989	1852.7	968.05
1027.8714	3006.7567	1841.9	959.95
1027.9831	3007.8139	1849.3	947.15
1028.0947	3008.8705	1829.8	948.85
1028.2064	3009.9264	1827.45	928.25
1028.3179	3010.9818	1818.95	936.55
1028.4295	3012.0364	1814.15	930.5
1028.541	3013.0905	1802.95	920.5
1028.6524	3014.1439	1791.55	910.8
1028.7638	3015.1966	1797.25	915.45
1028.8752	3016.2487	1787.25	906.2
1028.9865	3017.3002	1797.8	909.45
1029.0978	3018.3511	1786.6	907.15
1029.209	3019.4013	1789.1	908
1029.3202	3020.4509	1780.8	897.95
1029.4314	3021.4998	1785.05	903.6
1029.5425	3022.5481	1784.75	905.25
1029.6535	3023.5958	1781.1	901.1
1029.7645	3024.6428	1772.1	889.1
1029.8755	3025.6892	1781.95	903.65
1029.9864	3026.735	1776.9	896.55
1030.0973	3027.7802	1776.9	895.05
1030.2082	3028.8247	1770.8	887.5
1030.319	3029.8685	1771.55	888.3
1030.4297	3030.9118	1774.8	892.25
1030.5404	3031.9544	1769.55	889.4
1030.6511	3032.9963	1778.9	898.35
1030.7617	3034.0376	1775.6	894.55
1030.8723	3035.0783	1778.95	896.2
1030.9829	3036.1184	1783.5	900.25
1031.0934	3037.1578	1790.65	909.65
1031.2038	3038.1966	1785.4	903.15
1031.3142	3039.2348	1781.75	900.75
1031.4246	3040.2723	1787.4	899.05
1031.5349	3041.3092	1777.45	897.15
1031.6452	3042.3455	1772.05	890.65
1031.7554	3043.3811	1767.9	885.85
1031.8656	3044.4161	1765.1	884.2
1031.9758	3045.4505	1759	878.7
1032.0859	3046.4842	1753.2	869.6
1032.1959	3047.5173	1737.6	857
1032.3059	3048.5498	1746.75	866
1032.4159	3049.5816	1729.1	846.6
1032.5258	3050.6128	1722.25	839.1
1032.6357	3051.6434	1708.7	822.95
1032.7455	3052.6734	1709.4	827.1
1032.8553	3053.7027	1702.35	822.2
1032.9651	3054.7314	1693.75	813.55
1033.0748	3055.7594	1684	805.85
1033.1845	3056.7868	1682.25	799.8
1033.2941	3057.8136	1672.4	790.95
1033.4037	3058.8398	1673.65	791.65
1033.5132	3059.8653	1663.15	782.55
1033.6227	3060.8902	1654.1	772.1
1033.7321	3061.9145	1648.25	766.5
1033.8415	3062.9381	1643.95	762.45
1033.9509	3063.9612	1643.55	747.6
1034.0602	3064.9835	1628.2	746.55
1034.1694	3066.0053	1621.9	738.95
1034.2787	3067.0264	1605.05	724.7
1034.3878	3068.0469	1608.45	725.5
1034.497	3069.0668	1602.4	717.4
1034.6061	3070.086	1581.95	702.8
1034.7151	3071.1046	1585.95	702.85
1034.8241	3072.1226	1571.35	687.95
1034.9331	3073.1399	1559.9	680.05
1035.042	3074.1567	1547.2	665.55
1035.1508	3075.1727	1539.45	657.85
1035.2597	3076.1882	1532.9	651.35
1035.3684	3077.203	1530.35	648.95
1035.4772	3078.2173	1511.5	631.2
1035.5859	3079.2308	1510.2	626.4
1035.6945	3080.2438	1497.85	615.95
1035.8031	3081.2561	1482.85	601.85
1035.9117	3082.2678	1476.45	595.85
1036.0202	3083.2789	1465.75	585.75
1036.1286	3084.2893	1466.75	586.1
1036.2371	3085.2991	1455.75	573.8
1036.3454	3086.3083	1452.05	566.35
1036.4538	3087.3169	1445.9	564
1036.562	3088.3248	1435	552.3
1036.6703	3089.3321	1432	548.35
1036.7785	3090.3388	1422.6	542.6
1036.8866	3091.3449	1420.35	538.7
1036.9948	3092.3503	1420.75	539.25
1037.1028	3093.3551	1410.55	532.2
1037.2108	3094.3593	1401	521.95
1037.3188	3095.3629	1406.8	528.15
1037.4267	3096.3658	1393.1	510.95
1037.5346	3097.3681	1390.8	508.45
1037.6425	3098.3698	1390.1	508.4
1037.7503	3099.3708	1394.85	508.05
1037.858	3100.3713	1376.45	496.2
1037.9657	3101.3711	1378.8	496.7
1038.0734	3102.3702	1505.8	491.65
1038.181	3103.3688	1373.9	493.1
1038.2886	3104.3667	1363.85	483.65
1038.3961	3105.364	1358.4	477.9
1038.5036	3106.3607	1365.2	483.9
1038.611	3107.3568	1353.55	470.95
1038.7184	3108.3522	1348.05	467.4
1038.8257	3109.347	1347.25	463.6
1038.933	3110.3412	1351.85	468
1039.0403	3111.3348	1343.35	462.5
1039.1475	3112.3277	1335.9	456.6
1039.2547	3113.32	1333.25	454.35
1039.3618	3114.3117	1327.5	444.85
1039.4689	3115.3028	1325.5	444.7
1039.5759	3116.2932	1322.6	441.9
1039.6829	3117.2831	1330.8	442.45
1039.7898	3118.2723	1322.2	441.45
1039.8967	3119.2608	1318.1	438.5
1040.0035	3120.2488	1316.4	434.5
1040.1103	3121.2361	1308.05	426.45
1040.2171	3122.2229	1311.9	432.2
1040.3238	3123.209	1309.2	427.75
1040.4305	3124.1944	1307.65	428.9
1040.5371	3125.1793	1304.6	422.2
1040.6437	3126.1635	1301.95	422.5
1040.7502	3127.1471	1294.4	416.1
1040.8567	3128.1301	1295.95	414.35
1040.9631	3129.1125	1285.3	405.65
1041.0695	3130.0942	1292.8	411.85
1041.1759	3131.0753	1299.35	409
1041.2822	3132.0558	1288.8	404.1
1041.3884	3133.0357	1287.2	405.5
1041.4946	3134.015	1273.75	394.3
1041.6008	3134.9936	1283.35	402.35
1041.7069	3135.9716	1297.05	394.05
1041.813	3136.949	1274.85	395.15
1041.919	3137.9258	1293.85	394.85
1042.025	3138.902	1269.95	385.45
1042.1309	3139.8775	1271.25	391.25
1042.2368	3140.8524	1264.25	385.8
1042.3427	3141.8267	1265.5	381.55
1042.4485	3142.8004	1259.9	378.5
1042.5542	3143.7735	1266.15	380.55
1042.6599	3144.7459	1263.85	383.3
1042.7656	3145.7178	1260.95	379.05
1042.8712	3146.689	1251.1	371.65
1042.9768	3147.6596	1255.8	374.2
1043.0823	3148.6295	1250.5	368.6
1043.1878	3149.5989	1246.55	367.4
1043.2932	3150.5676	1241.4	361.1
1043.3986	3151.5357	1240.7	362.55
1043.5039	3152.5032	1241.1	361.5
1043.6092	3153.4701	1237.05	359.25
1043.7145	3154.4364	1233.55	350.25
1043.8197	3155.402	1234.45	354.5
1043.9248	3156.367	1233.75	351.25
1044.03	3157.3315	1271.9	348.55
1044.135	3158.2952	1222.45	341.05
1044.24	3159.2584	1223.4	342.95
1044.345	3160.221	1223.4	340.3
1044.4499	3161.1829	1217.4	336.8
1044.5548	3162.1442	1216.85	337.5
1044.6596	3163.105	1214.9	335.85
1044.7644	3164.065	1211.75	331.95
1044.8692	3165.0245	1217.25	333.75
1044.9739	3165.9834	1207.4	327.95
1045.0785	3166.9416	1209.05	330.45
1045.1831	3167.8993	1204.85	325.35
1045.2877	3168.8563	1207.05	325.95
1045.3922	3169.8127	1202.55	322.65
1045.4966	3170.7684	1197.6	316.15
1045.6011	3171.7236	1196.45	315.45
1045.7054	3172.6782	1199.5	319
1045.8098	3173.6321	1192.8	311.5
1045.914	3174.5854	1197.65	310.85
1046.0183	3175.5381	1190.6	311.55
1046.1224	3176.4902	1190.75	310
1046.2266	3177.4417	1189.65	310.6
1046.3307	3178.3926	1184.1	304.3
1046.4347	3179.3428	1185.5	307.7
1046.5387	3180.2924	1185.5	306.1
1046.6427	3181.2415	1187.35	308.45
1046.7466	3182.1899	1179.75	297.95
1046.8504	3183.1377	1178.9	300.25
1046.9542	3184.0848	1178.3	294.85
1047.058	3185.0314	1172.4	292.3
1047.1617	3185.9773	1175.5	293.95
1047.2654	3186.9227	1172.55	290.55
1047.369	3187.8674	1169.55	289.75
1047.4726	3188.8115	1175.4	291.8
1047.5761	3189.755	1170.65	291.35
1047.6796	3190.6979	1167.9	287.6
1047.783	3191.6402	1158.65	279.85
1047.8864	3192.5818	1157.85	278.85
1047.9898	3193.5229	1166.7	278.95
1048.0931	3194.4633	1153.45	274.4
1048.1963	3195.4031	1155.55	273.95
1048.2995	3196.3423	1150	270.5
1048.4027	3197.2809	1156.9	278.7
1048.5058	3198.2189	1157	278.3
1048.6089	3199.1563	1164.7	277.85
1048.7119	3200.0931	1148.9	271.4
1048.8148	3201.0292	1149.25	269.75
1048.9178	3201.9648	1148.45	271.15
1049.0206	3202.8997	1150.9	268.1
1049.1235	3203.834	1149.6	270.4
1049.2262	3204.7677	1144.75	265.5
1049.329	3205.7008	1142.4	259.85
1049.4317	3206.6333	1147.3	268.05
1049.5343	3207.5652	1140.8	258.9
1049.6369	3208.4964	1142.2	263.3
1049.7394	3209.4271	1132	251.95
1049.8419	3210.3571	1133.5	253.1
1049.9444	3211.2865	1137.4	258
1050.0468	3212.2154	1137.15	256.75
1050.1491	3213.1436	1129.6	248.2
1050.2514	3214.0712	1136.85	250.95
1050.3537	3214.9982	1129.95	249.85
1050.4559	3215.9246	1127.6	247.75
1050.5581	3216.8503	1124.25	246.2
1050.6602	3217.7755	1122.55	243.15
1050.7623	3218.7001	1125.4	245.25
1050.8643	3219.624	1123.5	243.3
1050.9663	3220.5473	1119.7	238.35
1051.0682	3221.4701	1120.6	239.65
1051.1701	3222.3922	1120.35	236.4
1051.2719	3223.3137	1121.25	241.95
1051.3737	3224.2346	1119.3	237.7
1051.4754	3225.1549	1117.1	238.7
1051.5771	3226.0746	1107.8	230.2
1051.6788	3226.9937	1111.45	230.6
1051.7804	3227.9121	1109.15	230.25
1051.8819	3228.83	1112.5	232.65
1051.9834	3229.7473	1111.85	233.35
1052.0849	3230.6639	1108.05	227.2
1052.1863	3231.5799	1101.3	221.65
1052.2876	3232.4954	1103	222.9
1052.3889	3233.4102	1105.55	226.2
1052.4902	3234.3244	1099.75	219.85
1052.5914	3235.238	1099.15	219.5
1052.6926	3236.151	1125.15	221.7
1052.7937	3237.0634	1098.05	219.65
1052.8948	3237.9752	1098.35	219.35
1052.9958	3238.8864	1096.1	214.2
1053.0968	3239.797	1096.1	216.8
1053.1977	3240.7069	1101	220.95
1053.2986	3241.6163	1088.65	207.3
1053.3994	3242.5251	1090.75	211.55
1053.5002	3243.4332	1089.3	209.1
1053.6009	3244.3408	1086.3	207.8
1053.7016	3245.2477	1081.25	201.9
1053.8022	3246.154	1085.7	206.1
1053.9028	3247.0598	1083.45	203.4
1054.0034	3247.9649	1086.4	206.9
1054.1039	3248.8694	1081.9	201.7
1054.2043	3249.7733	1076.15	196.2
1054.3047	3250.6766	1076.4	198.7
1054.4051	3251.5793	1080.05	199.35
1054.5054	3252.4814	1072.6	193.2
1054.6056	3253.3829	1073.85	195.7
1054.7058	3254.2838	1068.7	188.2
1054.806	3255.1841	1070.25	191
1054.9061	3256.0838	1072.05	191.7
1055.0061	3256.9829	1072.35	195.05
1055.1062	3257.8814	1069.5	188.3
1055.2061	3258.7792	1067.15	185.4
1055.306	3259.6765	1066.25	183.9
1055.4059	3260.5731	1061.45	180.45
1055.5057	3261.4692	1060.8	181.25
1055.6055	3262.3647	1056.55	177.25
1055.7052	3263.2595	1056.05	176
1055.8049	3264.1538	1055.3	177.4
1055.9045	3265.0474	1051.85	171.35
1056.0041	3265.9404	1046.55	167.45
1056.1036	3266.8329	1041.65	164.4
1056.2031	3267.7247	1051.5	162
1056.3025	3268.616	1034.25	157.4
1056.4019	3269.5066	1032.5	154.25
1056.5013	3270.3966	1033.75	153.15
1056.6005	3271.286	1019.85	143.25
