Software Version:	3.9.2.0
Unit SN:	10000200
Spectrometer SN:	6960
Date:	3/26/2024 2:49:53 PM
Data Line Index:	25
Spectral Points:	2048
Integration time (ms):	125
Averages:	20
Delay (ms):	30000
Sequence Number:	1
Processing:	dark subtract
Laser Power (mW):	300
Laser Current (mA):	820
Laser Diode Temp (C):	25
Laser Case Temp (C):	28
System Temp (C):	28
Spectrometer Temp (C):	25.9
CCD Temp (C):	0.004
Secondary Temp (C):	20.007
Heatsink Temp (C):	23.422
CCDPCB Temp (C):	37.296
SecondaryPCB Temp (C):	34.873

Wavelength	RamanShift	Raw Counts	Dark Subtracted
787.061	30.1047	626.85	216.15
787.2016	32.3739	640.2	231.6
787.3422	34.6426	652.1	242.25
787.4828	36.9109	668.7	255.75
787.6235	39.1787	686.3	270.7
787.7642	41.4461	716.4	297.35
787.9049	43.7131	738.55	315.1
788.0456	45.9796	759	331.25
788.1863	48.2456	790	360.2
788.3271	50.5112	811.4	376.95
788.4679	52.7764	834.5	397.8
788.6087	55.0411	861.7	420.9
788.7496	57.3054	896.25	452.35
788.8904	59.5692	934.8	485.65
789.0313	61.8326	968.4	516.45
789.1722	64.0955	998.55	541.1
789.3132	66.3579	1052.1	591.7
789.4541	68.6199	1105.35	641.9
789.5951	70.8815	1190.4	721.1
789.7361	73.1426	1394.25	921.9
789.8771	75.4032	1888.2	1411.3
790.0181	77.6634	3095.4	2611.45
790.1592	79.9231	6178.8	5686.05
790.3003	82.1824	13214.35	12703.05
790.4414	84.4412	28756.2	28212.55
790.5825	86.6995	55860.95	55269.35
790.7237	88.9574	65369.6	64737.3
790.8648	91.2148	65535	64871.55
791.006	93.4717	65535	64857.4
791.1472	95.7282	65535	64845
791.2885	97.9842	65535	64838.15
791.4297	100.2398	65535	64830.4
791.571	102.4949	65535	64833.7
791.7123	104.7495	65535	64832.1
791.8536	107.0036	65535	64831.9
791.9949	109.2573	65535	64827.45
792.1363	111.5105	65535	64824.85
792.2777	113.7632	65535	64823.5
792.4191	116.0154	65535	64811.7
792.5605	118.2672	65535	64821.35
792.7019	120.5185	65535	64822.9
792.8434	122.7693	65535	64812.25
792.9849	125.0197	65535	64812.15
793.1264	127.2696	65535	64810.8
793.2679	129.519	65535	64806.55
793.4094	131.7679	65535	64800.05
793.551	134.0163	65535	64799.5
793.6926	136.2642	65535	64790.8
793.8342	138.5117	65535	64791.35
793.9758	140.7587	65535	64791.85
794.1175	143.0052	65535	64792.65
794.2591	145.2512	65535	64792.3
794.4008	147.4967	65535	64786.8
794.5425	149.7417	65535	64788
794.6842	151.9863	65535	64784.6
794.826	154.2304	65535	64779
794.9677	156.4739	65535	64771.3
795.1095	158.717	65535	64773.15
795.2513	160.9596	65535	64766.15
795.3931	163.2017	65535	64768.85
795.535	165.4433	65535	64765.8
795.6768	167.6844	65535	64765.7
795.8187	169.925	65535	64761.5
795.9606	172.1651	65535	64759.65
796.1025	174.4047	65535	64759.5
796.2445	176.6439	65535	64755.55
796.3864	178.8825	65535	64756
796.5284	181.1206	65535	64747.05
796.6704	183.3582	65535	64742.3
796.8124	185.5954	65535	64742.5
796.9544	187.832	65535	64737.55
797.0965	190.0681	65535	64739.45
797.2386	192.3037	65535	64732.2
797.3806	194.5388	65535	64731.1
797.5228	196.7734	65535	64729.65
797.6649	199.0075	65535	64727.15
797.807	201.2411	65535	64724.2
797.9492	203.4742	65535	64723.95
798.0914	205.7068	65535	64722.8
798.2336	207.9389	65535	64717.9
798.3758	210.1704	65535	64716.25
798.518	212.4015	65535	64716.85
798.6603	214.632	65535	64719.25
798.8025	216.862	65535	64733
798.9448	219.0915	65535	64733.65
799.0871	221.3205	65535	64733.45
799.2294	223.549	65535	64737.3
799.3718	225.777	65535	64738.3
799.5141	228.0044	65535	64736.95
799.6565	230.2314	65535	64737.35
799.7989	232.4578	65535	64736.15
799.9413	234.6837	65535	64733.6
800.0837	236.909	65535	64724.5
800.2262	239.1339	65535	64700.05
800.3687	241.3582	65535	64713.5
800.5111	243.582	65535	64684.3
800.6536	245.8053	65535	64702.45
800.7961	248.0281	65535	64708.35
800.9387	250.2503	65535	64696.45
801.0812	252.472	65535	64694.45
801.2238	254.6932	65535	64694.05
801.3664	256.9139	65535	64694.2
801.509	259.134	65535	64691.3
801.6516	261.3536	65535	64687.05
801.7942	263.5727	65535	64690.05
801.9369	265.7912	65535	64689.2
802.0795	268.0092	65535	64689.8
802.2222	270.2267	65535	64684.8
802.3649	272.4436	65535	64684.45
802.5076	274.6601	65535	64680.9
802.6504	276.8759	65535	64683.8
802.7931	279.0913	65535	64680.55
802.9359	281.3061	65535	64680.55
803.0787	283.5204	65535	64680.45
803.2215	285.7341	65535	64677.9
803.3643	287.9473	65535	64663.75
803.5071	290.16	65535	64670.65
803.6499	292.3721	65535	64672.9
803.7928	294.5837	65535	64669.4
803.9357	296.7947	65535	64672.4
804.0786	299.0052	65535	64669.25
804.2215	301.2152	65535	64675.3
804.3644	303.4246	65535	64676.4
804.5074	305.6334	65535	64681.15
804.6503	307.8418	65535	64674.4
804.7933	310.0495	65535	64669.95
804.9363	312.2568	65535	64666.5
805.0793	314.4635	65535	64669.1
805.2223	316.6696	65535	64665.55
805.3653	318.8752	65535	64655.15
805.5084	321.0802	65535	64664.55
805.6514	323.2847	65535	64666.25
805.7945	325.4887	65535	64666
805.9376	327.692	65535	64664.2
806.0807	329.8949	65535	64663.15
806.2238	332.0972	65535	64655.95
806.367	334.2989	65535	64657.1
806.5101	336.5001	65535	64661.1
806.6533	338.7007	65535	64655.55
806.7965	340.9008	65535	64656.45
806.9397	343.1003	65535	64652.35
807.0829	345.2992	65535	64652.8
807.2261	347.4976	65535	64653.7
807.3693	349.6955	65535	64643
807.5126	351.8927	65535	64641.2
807.6559	354.0895	65535	64631.4
807.7991	356.2856	65535	64647.75
807.9424	358.4812	65535	64648.75
808.0857	360.6763	65535	64644.4
808.2291	362.8707	65535	64647.8
808.3724	365.0646	65535	64648.1
808.5158	367.258	65535	64644.5
808.6591	369.4508	65535	64638.35
808.8025	371.643	65535	64638.35
808.9459	373.8346	65535	64635.8
809.0893	376.0257	65535	64632.2
809.2327	378.2162	65535	64632.35
809.3762	380.4062	65535	64633.2
809.5196	382.5956	65535	64636.35
809.6631	384.7844	65535	64632.6
809.8066	386.9726	65535	64631.8
809.9501	389.1603	65535	64638.95
810.0936	391.3474	65535	64591.5
810.2371	393.5339	65535	64637.15
810.3806	395.7199	65535	64642.15
810.5241	397.9052	65535	64641.25
810.6677	400.09	65535	64642.95
810.8113	402.2743	65535	64646.1
810.9548	404.4579	65535	64641.85
811.0984	406.641	65535	64643.45
811.2421	408.8235	65535	64644.5
811.3857	411.0054	65535	64637.9
811.5293	413.1868	65535	64638.1
811.673	415.3675	65535	64636.55
811.8166	417.5477	65535	64635
811.9603	419.7273	65535	64632.9
812.104	421.9064	65535	64629.75
812.2477	424.0848	65535	64637.95
812.3914	426.2627	65535	64627.45
812.5351	428.4399	65535	64629.45
812.6788	430.6166	65535	64623.05
812.8226	432.7928	65535	64624.8
812.9663	434.9683	65535	64624.4
813.1101	437.1432	65535	64625.65
813.2539	439.3176	65535	64628.15
813.3977	441.4914	65535	64636.15
813.5415	443.6645	65535	64630.25
813.6853	445.8371	65535	64627.8
813.8291	448.0091	65535	64622.2
813.973	450.1806	65535	64630.05
814.1168	452.3514	65535	64632.05
814.2607	454.5216	65535	64621.15
814.4046	456.6913	65535	64625.15
814.5485	458.8603	65535	64627.95
814.6924	461.0288	65535	64631.25
814.8363	463.1967	65535	64636.3
814.9802	465.3639	65535	64629
815.1241	467.5306	65535	64627.5
815.2681	469.6967	65535	64634.5
815.412	471.8622	65535	64632.9
815.556	474.0271	65535	64632.7
815.7	476.1914	65535	64622.2
815.844	478.3551	65535	64625.1
815.988	480.5182	65535	64630
816.132	482.6807	65535	64634.2
816.276	484.8426	65535	64644.05
816.4201	487.0039	65535	64635.9
816.5641	489.1647	65535	64626.85
816.7082	491.3248	65535	64628.55
816.8522	493.4843	65535	64630.55
816.9963	495.6432	65535	64630.45
817.1404	497.8015	65535	64623.65
817.2845	499.9592	65535	64617.05
817.4286	502.1163	65535	64617.25
817.5727	504.2728	65535	64626.9
817.7168	506.4287	65535	64634.05
817.861	508.5839	65535	64630.5
818.0051	510.7386	65535	64632.65
818.1493	512.8927	65535	64616.3
818.2935	515.0461	65535	64622
818.4377	517.199	65535	64618.25
818.5818	519.3512	65535	64618.95
818.726	521.5029	65535	64616.85
818.8703	523.6539	65535	64624.2
819.0145	525.8043	65535	64620.5
819.1587	527.9541	65535	64615.25
819.303	530.1033	65535	64619.85
819.4472	532.2519	65535	64613.95
819.5915	534.3999	65535	64616.25
819.7357	536.5472	65535	64619.9
819.88	538.694	65535	64624.2
820.0243	540.8401	65535	64614.45
820.1686	542.9856	65535	64606.25
820.3129	545.1305	65535	64603.25
820.4572	547.2748	65535	64600.05
820.6016	549.4185	65535	64603.95
820.7459	551.5615	65535	64605.75
820.8902	553.704	65535	64601.55
821.0346	555.8458	65535	64607.85
821.1789	557.987	65535	64609.2
821.3233	560.1276	65535	64606.4
821.4677	562.2675	65535	64605.3
821.6121	564.4069	65535	64604.25
821.7565	566.5456	65535	64609.8
821.9009	568.6837	65535	64611.15
822.0453	570.8212	65535	64611.35
822.1897	572.958	65535	64611.7
822.3342	575.0942	65535	64613.7
822.4786	577.2299	65535	64620.45
822.6231	579.3648	65535	64623.5
822.7675	581.4992	65535	64635.15
822.912	583.6329	65535	64637.35
823.0565	585.766	65535	64632
823.201	587.8985	65535	64623.35
823.3454	590.0304	65535	64606.65
823.4899	592.1616	65535	64608.5
823.6345	594.2922	65535	64608
823.779	596.4222	65535	64610.65
823.9235	598.5515	65535	64605.95
824.068	600.6802	65535	64605.6
824.2126	602.8083	65535	64608
824.3571	604.9358	65535	64606.6
824.5017	607.0626	65535	64605.5
824.6462	609.1888	65535	64601.3
824.7908	611.3144	65535	64598.9
824.9354	613.4393	65535	64599.75
825.08	615.5636	65529.75	64590
825.2246	617.6873	65535	64599.75
825.3692	619.8103	65523.3	64593.05
825.5138	621.9327	65535	64601.2
825.6584	624.0544	65535	64607.2
825.803	626.1756	65535	64607.95
825.9477	628.2961	65534.05	64602.15
826.0923	630.4159	65528.35	64596.8
826.237	632.5351	65522.05	64589.8
826.3816	634.6537	65535	64602.95
826.5263	636.7716	65520.45	64584.2
826.6709	638.8889	65529.65	64591.3
826.8156	641.0056	65527.45	64587.9
826.9603	643.1216	65526.8	64590
827.105	645.237	65531.75	64593.6
827.2497	647.3518	65517.8	64587.2
827.3944	649.4659	65524.8	64598.65
827.5391	651.5793	65527.5	64601.35
827.6838	653.6922	65532.75	64606.6
827.8285	655.8043	65481.85	64549.5
827.9733	657.9159	65532.9	64601.15
828.118	660.0268	65401.75	64472.85
828.2627	662.137	65518.85	64588.95
828.4075	664.2466	65520.4	64579.6
828.5522	666.3556	65481.7	64546.95
828.697	668.4639	65520.7	64585.55
828.8418	670.5716	65466.6	64535.1
828.9865	672.6786	65515.5	64580.25
829.1313	674.785	65471.5	64534.05
829.2761	676.8907	65476.8	64543.5
829.4209	678.9958	65505.6	64575.75
829.5657	681.1002	65509.25	64578.4
829.7105	683.204	65454.9	64507.75
829.8553	685.3072	65392.95	64453.6
830.0001	687.4097	65436.4	64500.45
830.1449	689.5115	65376.6	64436
830.2898	691.6127	65461.2	64529.25
830.4346	693.7132	65372.5	64438.05
830.5794	695.8131	65366.15	64408.6
830.7243	697.9123	65389.6	64446.45
830.8691	700.0109	65404.25	64457.4
831.014	702.1089	65302.1	64363.15
831.1588	704.2061	65316.95	64380.3
831.3037	706.3028	65333.2	64388.4
831.4486	708.3987	65360.6	64422.2
831.5935	710.4941	65300.95	64363.05
831.7383	712.5887	65391.4	64452.35
831.8832	714.6827	65345.2	64407
832.0281	716.7761	65435.1	64502
832.173	718.8688	65462.75	64523.2
832.3179	720.9608	65405.9	64461.4
832.4628	723.0522	65392.4	64442.05
832.6077	725.1429	65301.7	64360.35
832.7527	727.233	65466.15	64522.5
832.8976	729.3224	65036.95	64096.45
833.0425	731.4112	65197.75	64259.55
833.1874	733.4993	65192.45	64251.35
833.3324	735.5867	65207.4	64268.4
833.4773	737.6735	65085.8	64140.75
833.6222	739.7596	64920.8	63980.75
833.7672	741.845	64898.8	63956.6
833.9122	743.9298	65141.95	64199.45
834.0571	746.014	64920.4	63978.9
834.2021	748.0974	64747.65	63799.75
834.347	750.1802	65088.8	64142.6
834.492	752.2624	64667	63722.1
834.637	754.3439	64728.3	63783.65
834.782	756.4247	64863.7	63909.9
834.9269	758.5048	64662.25	63720.3
835.0719	760.5843	64754	63808.45
835.2169	762.6631	64870.65	63923.35
835.3619	764.7413	64825.6	63883.5
835.5069	766.8188	64920.8	63976.3
835.6519	768.8956	65090.95	64145.65
835.7969	770.9718	65068.25	64122.5
835.9419	773.0473	64983.25	64037.95
836.0869	775.1221	64653.65	63707.35
836.232	777.1962	64603.1	63655.75
836.377	779.2697	64179.8	63229.3
836.522	781.3426	64504.6	63547.85
836.667	783.4147	64676.8	63729.95
836.8121	785.4862	64667.3	63722.65
836.9571	787.557	64269.2	63320.15
837.1021	789.6271	64585.55	63637.45
837.2472	791.6966	64125.95	63178.3
837.3922	793.7654	63584.5	62637.35
837.5373	795.8335	63539.45	62592.95
837.6823	797.901	63650.5	62704
837.8274	799.9678	63383.85	62435.2
837.9724	802.0339	63310.05	62362.85
838.1175	804.0993	63396.3	62436.25
838.2626	806.1641	63186.1	62241.35
838.4076	808.2282	63063.15	62118.5
838.5527	810.2916	62854.65	61905.75
838.6978	812.3544	63175	62231.4
838.8428	814.4164	62451.6	61504.15
838.9879	816.4778	62513.65	61561.25
839.133	818.5385	62578.2	61628.75
839.2781	820.5986	62426.55	61475.55
839.4232	822.658	62513.85	61563.4
839.5682	824.7166	62584.8	61636.45
839.7133	826.7747	61842.85	60894.15
839.8584	828.832	62168.8	61217.85
840.0035	830.8886	62555.7	61600.45
840.1486	832.9446	62609.25	61659.2
840.2937	834.9999	61421.25	60475.8
840.4388	837.0545	62145.75	61192.85
840.5839	839.1085	62496.4	61546.05
840.729	841.1618	62230.6	61277.85
840.8741	843.2143	61319.85	60368.85
841.0192	845.2662	61315.1	60367.25
841.1643	847.3175	61635.5	60686.55
841.3095	849.368	60428.45	59481.05
841.4546	851.4179	61210.85	60264
841.5997	853.467	60401.75	59450.15
841.7448	855.5155	60686.15	59735.9
841.8899	857.5633	59950.45	59006.45
842.0351	859.6105	59566.8	58616.6
842.1802	861.6569	59868.65	58916.05
842.3253	863.7027	59090.05	58139.45
842.4704	865.7478	59361.25	58412.3
842.6156	867.7922	59180.3	58231.5
842.7607	869.8359	59616.3	58669.15
842.9058	871.8789	58734	57781.45
843.0509	873.9212	59359.6	58377
843.1961	875.9629	59446.25	58493.6
843.3412	878.0039	59354.05	58404.5
843.4863	880.0441	59099.95	58152.9
843.6315	882.0837	58931.05	57978.55
843.7766	884.1226	58901.05	57950.7
843.9218	886.1609	58694.15	57745.3
844.0669	888.1984	58233.4	57288.15
844.212	890.2352	58639.15	57688.7
844.3572	892.2714	57739.75	56786.8
844.5023	894.3069	58022.2	57069.85
844.6475	896.3416	57666	56718.7
844.7926	898.3757	57591.1	56639.5
844.9377	900.4091	56798.85	55843
845.0829	902.4418	57689.8	56731.8
845.228	904.4739	56995.85	56043.05
845.3732	906.5052	57123.85	56169.95
845.5183	908.5358	56683.95	55734.4
845.6635	910.5658	56297.5	55340.9
845.8086	912.595	56208.5	55257
845.9538	914.6236	55519.4	54569.9
846.0989	916.6515	56387.7	55433.3
846.2441	918.6786	55232.85	54278.55
846.3892	920.7051	55516.9	54560.85
846.5344	922.7309	55490.2	54536.4
846.6795	924.756	55572.3	54619.9
846.8246	926.7804	55257.8	54305.2
846.9698	928.8041	54654.05	53703.7
847.1149	930.8272	54978.45	54026.45
847.2601	932.8495	54832.55	53878.65
847.4052	934.8711	54257.7	53302.75
847.5504	936.892	53905.15	52952.4
847.6955	938.9123	53829.1	52875.4
847.8407	940.9318	53346.45	52395.8
847.9858	942.9506	53161.95	52210.5
848.131	944.9688	53040.5	52087.35
848.2761	946.9862	52406.4	51455
848.4213	949.003	52497.45	51545.2
848.5664	951.019	51973.15	51023
848.7115	953.0344	52027.85	51074.85
848.8567	955.0491	51926.95	50972
849.0018	957.063	52143.4	51190.95
849.147	959.0763	52172.25	51213.75
849.2921	961.0888	51886.6	50930.5
849.4373	963.1007	51961.3	51016.25
849.5824	965.1119	51907.1	50963
849.7275	967.1223	51703.15	50763.65
849.8727	969.1321	51838.75	50902.9
850.0178	971.1412	51515.7	50575.65
850.1629	973.1495	51310.85	50362.7
850.3081	975.1572	51436.9	50442.35
850.4532	977.1641	51291.35	50339.2
850.5983	979.1704	51094.35	50142.3
850.7435	981.1759	50945.85	49992
850.8886	983.1808	50802.75	49848.35
851.0337	985.1849	50817.65	49853.4
851.1788	987.1884	50835.55	49883.75
851.324	989.1911	51089.95	50138.55
851.4691	991.1932	50859.5	49908.75
851.6142	993.1945	50782.05	49831.75
851.7593	995.1951	50606.65	49653.05
851.9045	997.1951	50304.2	49341.65
852.0496	999.1943	50073.55	49120.2
852.1947	1001.1928	49815.05	48862.2
852.3398	1003.1906	49678.5	48727.9
852.4849	1005.1877	49479.1	48526.95
852.63	1007.1841	49199.9	48252.65
852.7751	1009.1798	48909.8	47958.7
852.9202	1011.1748	48514.75	47568.5
853.0653	1013.1691	48226.3	47277.15
853.2104	1015.1627	47807.7	46858.65
853.3555	1017.1556	47342.1	46393.6
853.5006	1019.1477	47219.7	46271.2
853.6457	1021.1392	46775.45	45828.9
853.7908	1023.1299	46583.55	45643.55
853.9359	1025.12	46490.8	45555.3
854.081	1027.1093	46248.6	45323.55
854.2261	1029.0979	46153.35	45230.15
854.3712	1031.0859	46034.75	45106.05
854.5163	1033.0731	45896.15	44959.3
854.6613	1035.0596	45667.3	44725.8
854.8064	1037.0454	45270.6	44322.1
854.9515	1039.0304	45044.65	44097.05
855.0965	1041.0148	44711.25	43762.75
855.2416	1042.9985	44495.6	43547.7
855.3867	1044.9814	44409.7	43467.3
855.5317	1046.9636	44199.05	43251.65
855.6768	1048.9452	43953.75	43010.5
855.8219	1050.926	43949.45	43003.3
855.9669	1052.9061	43751.25	42805.75
856.112	1054.8855	43588.25	42643.75
856.257	1056.8642	43565.8	42616.3
856.4021	1058.8421	43499.95	42550.9
856.5471	1060.8194	43349.65	42401.35
856.6921	1062.7959	43219.4	42269.55
856.8372	1064.7717	43136.75	42190.3
856.9822	1066.7469	42990.2	42039.35
857.1272	1068.7213	42800.9	41848.35
857.2723	1070.695	42642.55	41698.1
857.4173	1072.6679	42384.05	41434.2
857.5623	1074.6402	42282.8	41335.7
857.7073	1076.6117	42177.95	41226.2
857.8523	1078.5826	42162.95	41212.65
857.9973	1080.5527	42050.55	41099.9
858.1423	1082.5221	42080.55	41136.9
858.2873	1084.4908	42246.2	41300.25
858.4323	1086.4587	42315	41364.6
858.5773	1088.426	42411.45	41462.95
858.7223	1090.3925	42220.05	41263.85
858.8673	1092.3584	42099.75	41153.15
859.0123	1094.3235	41650.85	40703.55
859.1573	1096.2879	41405.35	40458.55
859.3022	1098.2515	41276.75	40330.6
859.4472	1100.2145	41216.75	40268.95
859.5922	1102.1767	41092.8	40146.55
859.7371	1104.1382	41141.2	40195.1
859.8821	1106.099	41296.2	40350.8
860.027	1108.0591	41337.35	40392
860.172	1110.0185	41358.45	40410.45
860.3169	1111.9771	41311.15	40363.35
860.4619	1113.9351	40815.05	39871.4
860.6068	1115.8923	40323.75	39378.2
860.7517	1117.8488	39876.7	38928.9
860.8967	1119.8045	39408.55	38463.05
861.0416	1121.7596	39205.7	38266.05
861.1865	1123.7139	38943.95	37998.1
861.3314	1125.6675	38855.55	37911.35
861.4763	1127.6204	38962.55	38015.7
861.6212	1129.5726	38832.45	37886.35
861.7661	1131.524	38792.85	37847.95
861.911	1133.4748	38748.1	37802.35
862.0559	1135.4248	38633.05	37683.95
862.2008	1137.3741	38597.8	37654.5
862.3457	1139.3226	38464.3	37516.85
862.4905	1141.2705	38388	37443.75
862.6354	1143.2176	38104.6	37154.75
862.7803	1145.164	38115.25	37165.85
862.9251	1147.1097	38000.55	37054.3
863.07	1149.0546	37956.95	37009.45
863.2148	1150.9989	37841.1	36895.55
863.3597	1152.9424	37621.75	36676.45
863.5045	1154.8852	37348.65	36405
863.6493	1156.8272	37116.45	36171.15
863.7942	1158.7686	36917.5	35962.85
863.939	1160.7092	36764.9	35824.45
864.0838	1162.6491	36585.75	35638.8
864.2286	1164.5883	36625.9	35680.8
864.3734	1166.5267	36563.45	35615.8
864.5182	1168.4644	36634.9	35690.1
864.663	1170.4014	36707	35762
864.8078	1172.3377	36907.45	35967.1
864.9526	1174.2732	37040.65	36096.95
865.0974	1176.2081	37142	36198.1
865.2421	1178.1421	37192.15	36244.35
865.3869	1180.0755	37289.95	36347.2
865.5317	1182.0082	37111.15	36165.45
865.6764	1183.9401	36926.2	35986.7
865.8212	1185.8713	36627.75	35691.55
865.9659	1187.8017	36338.1	35404.85
866.1106	1189.7315	35984.6	35058.6
866.2554	1191.6605	35547.3	34620.6
866.4001	1193.5888	35266.15	34334.55
866.5448	1195.5163	35106.2	34169.9
866.6895	1197.4432	34894.35	33953.55
866.8342	1199.3693	34681.65	33741.8
866.9789	1201.2947	34494.45	33543.4
867.1236	1203.2193	34340.55	33402
867.2683	1205.1432	34324.4	33381
867.413	1207.0664	34264.85	33324
867.5576	1208.9889	34239.95	33297.05
867.7023	1210.9106	34205.9	33265.05
867.847	1212.8316	34166.35	33227.35
867.9916	1214.7519	34131.35	33180.35
868.1363	1216.6715	34045.45	33106.35
868.2809	1218.5903	33934.25	32992.7
868.4255	1220.5084	33737	32795.05
868.5701	1222.4257	33674.4	32735.5
868.7148	1224.3424	33395.1	32458.2
868.8594	1226.2583	33378.55	32438.65
869.004	1228.1735	33432.25	32491.45
869.1486	1230.0879	33402.25	32461.55
869.2932	1232.0016	33496.3	32557.6
869.4377	1233.9146	33408.85	32467.55
869.5823	1235.8269	33159.6	32218.85
869.7269	1237.7384	33005.75	32065.5
869.8715	1239.6492	32662.05	31718.9
870.016	1241.5592	32524	31583.9
870.1606	1243.4686	32249	31309.4
870.3051	1245.3772	32156.75	31220.35
870.4496	1247.285	31933	30993.85
870.5941	1249.1922	31792.95	30856.75
870.7387	1251.0986	31748.3	30810.35
870.8832	1253.0042	31603.9	30664.8
871.0277	1254.9092	31621.15	30681.6
871.1722	1256.8134	31610.45	30675.85
871.3167	1258.7169	31735.05	30795.6
871.4611	1260.6196	31790.6	30851.3
871.6056	1262.5216	31934.9	30995.45
871.7501	1264.4229	31933.85	31001.3
871.8945	1266.3234	32045.55	31105.65
872.039	1268.2232	31990.05	31052.25
872.1834	1270.1223	31918.4	30976.75
872.3278	1272.0207	31782.8	30845.8
872.4723	1273.9183	31705.1	30760.65
872.6167	1275.8151	31488.75	30552.35
872.7611	1277.7113	31405.6	30467.25
872.9055	1279.6067	31172.35	30234.5
873.0499	1281.5014	30888.05	29948.5
873.1943	1283.3953	30668.85	29733
873.3386	1285.2885	30533.95	29599.25
873.483	1287.181	30376.25	29438.25
873.6274	1289.0727	30356.5	29419.25
873.7717	1290.9637	30297.75	29359.35
873.9161	1292.854	30380.7	29445.05
874.0604	1294.7435	30345.25	29410.3
874.2047	1296.6323	30589.35	29653.35
874.349	1298.5204	30805.8	29867.45
874.4933	1300.4077	31034.9	30092.55
874.6376	1302.2943	31166.85	30228.8
874.7819	1304.1802	31201.65	30269.05
874.9262	1306.0653	30996	30059.5
875.0705	1307.9497	30828.15	29888.3
875.2147	1309.8333	30681.85	29748.65
875.359	1311.7162	30613.65	29676.45
875.5032	1313.5984	30678.3	29736.05
875.6475	1315.4798	30763.95	29807.55
875.7917	1317.3605	30841.75	29889.75
875.9359	1319.2405	30991.65	30055.7
876.0801	1321.1197	30959.4	30021.25
876.2243	1322.9982	30822.85	29884.2
876.3685	1324.876	30810.2	29877.05
876.5127	1326.753	30679.4	29742.25
876.6569	1328.6293	30735.1	29794.3
876.801	1330.5048	30736.3	29794.9
876.9452	1332.3796	30589.4	29654.3
877.0893	1334.2537	30542.15	29583.7
877.2335	1336.127	30404.55	29468.8
877.3776	1337.9996	30311.05	29375.35
877.5217	1339.8714	30189.35	29252.6
877.6658	1341.7426	30079.35	29099.15
877.8099	1343.6129	29939.3	29003.55
877.954	1345.4826	29765.95	28829.3
878.0981	1347.3515	29683.55	28742.95
878.2422	1349.2196	29577.6	28640.7
878.3862	1351.087	29547.8	28609.25
878.5303	1352.9537	29562.3	28623.8
878.6743	1354.8197	29664.15	28727.6
878.8184	1356.6849	29767.6	28832.45
878.9624	1358.5493	29752.45	28816.2
879.1064	1360.4131	29706.5	28773.4
879.2504	1362.276	29554.7	28622.5
879.3944	1364.1383	29286.15	28348.65
879.5384	1365.9998	28959.55	28017.1
879.6823	1367.8606	28638	27701.8
879.8263	1369.7206	28301.4	27368.05
879.9702	1371.5799	28086.65	27147.8
880.1142	1373.4384	27888.6	26954.7
880.2581	1375.2962	27762.45	26827.55
880.402	1377.1533	27391.55	26456.95
880.5459	1379.0096	26993.25	26060.25
880.6898	1380.8652	26670.8	25741.05
880.8337	1382.7201	26407.75	25475.55
880.9776	1384.5742	26102.8	25168.75
881.1215	1386.4275	25874.25	24939.6
881.2653	1388.2802	25695.3	24761.3
881.4092	1390.132	25505.5	24571.15
881.553	1391.9832	25433.3	24499.65
881.6968	1393.8336	25208.05	24272.55
881.8406	1395.6832	25146.75	24211.5
881.9844	1397.5322	24995.35	24061
882.1282	1399.3803	24901.4	23961.3
882.272	1401.2278	24765.65	23831.75
882.4158	1403.0745	24717.45	23784
882.5595	1404.9204	24594.8	23663.8
882.7033	1406.7656	24586	23652.4
882.847	1408.6101	24489.7	23557.35
882.9908	1410.4538	24421.1	23486.95
883.1345	1412.2968	24365.1	23429.5
883.2782	1414.139	24331.45	23398.25
883.4219	1415.9805	24337.35	23406
883.5656	1417.8213	24296.25	23343.2
883.7092	1419.6613	24390.45	23458.75
883.8529	1421.5006	24538.1	23605.9
883.9965	1423.3391	24755.7	23821.95
884.1402	1425.1769	25055.55	24122.1
884.2838	1427.0139	25523.55	24593.65
884.4274	1428.8502	26073.35	25142.25
884.571	1430.6858	26629.5	25695.25
884.7146	1432.5206	26950.15	26018.6
884.8582	1434.3547	27179.35	26245.75
885.0018	1436.188	27157.8	26225.25
885.1453	1438.0206	27067.85	26133.6
885.2889	1439.8524	26834.35	25901.05
885.4324	1441.6835	26735.75	25805.7
885.5759	1443.5139	26584.6	25647.4
885.7194	1445.3435	26437.35	25507.65
885.8629	1447.1724	26390	25459.3
886.0064	1449.0005	26217.65	25288.9
886.1499	1450.8279	26048.15	25118.2
886.2933	1452.6545	26003.45	25073.35
886.4368	1454.4804	26018.8	25089.05
886.5802	1456.3056	25929.8	24992.45
886.7237	1458.13	25801.95	24873.2
886.8671	1459.9536	25585.95	24653
887.0105	1461.7766	25153.65	24222.3
887.1539	1463.5987	24694.8	23763.6
887.2972	1465.4202	24238.45	23305.4
887.4406	1467.2409	23811.3	22883.4
887.584	1469.0608	23530.5	22598.75
887.7273	1470.88	23235.2	22307.5
887.8706	1472.6984	22954.45	22024.6
888.0139	1474.5161	22669.8	21736.4
888.1572	1476.3331	22468.55	21537.7
888.3005	1478.1493	22281.15	21349.85
888.4438	1479.9648	22193.25	21265.1
888.5871	1481.7795	22038.55	21109.15
888.7303	1483.5935	21983.95	21054.85
888.8736	1485.4067	21875.15	20944.4
889.0168	1487.2192	21805.1	20874
889.16	1489.031	21751.25	20821.15
889.3032	1490.842	21588.6	20660.85
889.4464	1492.6522	21556.55	20626.7
889.5896	1494.4618	21470.65	20543
889.7327	1496.2705	21465.6	20536.5
889.8759	1498.0785	21369.75	20444.75
890.019	1499.8858	21307.3	20379.15
890.1622	1501.6924	21225.45	20297.2
890.3053	1503.4981	21187.2	20259.95
890.4484	1505.3032	21135.25	20207.55
890.5914	1507.1075	21083.45	20154.45
890.7345	1508.911	20999.15	20072.95
890.8776	1510.7138	20957.3	20027.45
891.0206	1512.5159	20815.1	19884.8
891.1637	1514.3172	20745.6	19820.3
891.3067	1516.1178	20666.65	19739.8
891.4497	1517.9176	20614	19683.05
891.5927	1519.7166	20518.2	19590.75
891.7357	1521.515	20443.5	19509.95
891.8786	1523.3126	20336.7	19408.6
892.0216	1525.1094	20312.1	19382
892.1645	1526.9055	20191.8	19267.75
892.3074	1528.7008	20094.75	19170
892.4503	1530.4954	20025.7	19093.1
892.5932	1532.2893	19988.75	19066.55
892.7361	1534.0824	19835.3	18905.75
892.879	1535.8747	19848.65	18926.3
893.0218	1537.6663	19749.8	18825.85
893.1647	1539.4572	19682.2	18757.75
893.3075	1541.2473	19665.9	18741.1
893.4503	1543.0367	19614.45	18693.35
893.5931	1544.8253	19508.1	18581.35
893.7359	1546.6132	19503.4	18578.75
893.8787	1548.4003	19394	18463.05
894.0214	1550.1867	19374.7	18445.5
894.1642	1551.9723	19340.9	18414.55
894.3069	1553.7572	19337.4	18415.85
894.4496	1555.5414	19278.3	18357.05
894.5923	1557.3247	19256.65	18336.9
894.735	1559.1074	19222.7	18307.1
894.8777	1560.8893	19226.05	18308.8
895.0204	1562.6705	19232.8	18315.45
895.163	1564.4509	19260.9	18344.65
895.3056	1566.2305	19260.25	18348.95
895.4482	1568.0094	19395.25	18482.45
895.5908	1569.7876	19422	18509.2
895.7334	1571.565	19470.15	18552.95
895.876	1573.3417	19505.8	18589.4
896.0186	1575.1176	19462.85	18547.4
896.1611	1576.8928	19376.05	18464.65
896.3036	1578.6672	19244.35	18334.85
896.4461	1580.4409	19084.4	18178.5
896.5886	1582.2138	18916.4	18004.75
896.7311	1583.986	18742.75	17831.25
896.8736	1585.7575	18616.7	17703.95
897.0161	1587.5282	18455.85	17547.15
897.1585	1589.2981	18365.1	17456.75
897.3009	1591.0673	18274.75	17368.1
897.4433	1592.8358	18226.35	17318.4
897.5857	1594.6035	18165.6	17251.2
897.7281	1596.3704	18132.1	17221.55
897.8705	1598.1366	18077.1	17165.9
898.0128	1599.9021	18041.1	17131.85
898.1551	1601.6668	17971.6	17059.25
898.2975	1603.4308	17955.95	17040.95
898.4398	1605.194	18012.65	17097.3
898.5821	1606.9564	18042.3	17138
898.7243	1608.7182	18130.55	17224.35
898.8666	1610.4791	18187.85	17288.35
899.0088	1612.2394	18262.25	17365.8
899.1511	1613.9988	18398.95	17498.75
899.2933	1615.7576	18615.35	17711.1
899.4355	1617.5156	18854.95	17940
899.5776	1619.2728	19057.65	18145.4
899.7198	1621.0293	19212.45	18300.85
899.862	1622.785	19235.05	18327.05
900.0041	1624.54	19117.65	18213.55
900.1462	1626.2942	18955.75	18047.25
900.2883	1628.0477	18642.7	17736.2
900.4304	1629.8005	18323.25	17414.6
900.5725	1631.5525	18039.05	17133.75
900.7145	1633.3037	17760.25	16857.8
900.8566	1635.0542	17586.15	16685.65
900.9986	1636.804	17392.25	16488.1
901.1406	1638.553	17330.25	16350.5
901.2826	1640.3013	17165.3	16260.5
901.4245	1642.0488	17057.95	16153.4
901.5665	1643.7955	16982.5	16081.5
901.7085	1645.5416	16983.9	16080.45
901.8504	1647.2868	16993.25	16088.8
901.9923	1649.0313	17024.25	16117.9
902.1342	1650.7751	17135.2	16226.2
902.2761	1652.5181	17260.5	16356.6
902.4179	1654.2604	17410.25	16508.7
902.5598	1656.0019	17722.35	16819.75
902.7016	1657.7427	18066	17160.4
902.8434	1659.4828	18423.5	17517.75
902.9852	1661.222	18637.15	17731.45
903.127	1662.9606	18644.3	17738.15
903.2687	1664.6984	18501.7	17595.4
903.4105	1666.4354	18097.5	17188.25
903.5522	1668.1717	17647.25	16740.3
903.6939	1669.9072	17129.2	16220.55
903.8356	1671.642	16753.1	15844.4
903.9773	1673.3761	16422.25	15516
904.119	1675.1094	16146.1	15241.3
904.2606	1676.8419	15947.55	15042.9
904.4022	1678.5737	15770.4	14863.5
904.5439	1680.3048	15622.2	14714.45
904.6855	1682.0351	15504.65	14597.25
904.827	1683.7646	15393	14484
904.9686	1685.4934	15309.25	14404.85
905.1101	1687.2215	15222.25	14319.7
905.2517	1688.9488	15123.3	14222.05
905.3932	1690.6754	15075	14173.05
905.5347	1692.4012	15009.35	14104
905.6761	1694.1263	14947.3	14041.25
905.8176	1695.8506	14871.95	13969.6
905.9591	1697.5742	14822.4	13920.5
906.1005	1699.297	14770.95	13872.55
906.2419	1701.0191	14692.85	13795.5
906.3833	1702.7404	14619	13720.5
906.5246	1704.461	14536.75	13635.45
906.666	1706.1808	14457.65	13553.9
906.8073	1707.8999	14442.8	13541.55
906.9487	1709.6182	14368.25	13470.55
907.09	1711.3358	14310.5	13414.3
907.2313	1713.0527	14275	13380.8
907.3725	1714.7688	14226.3	13323.35
907.5138	1716.4841	14154.5	13253.95
907.655	1718.1987	14114.4	13211.7
907.7962	1719.9126	14057.4	13159.5
907.9374	1721.6257	14021.7	13122.95
908.0786	1723.338	13960.95	13065.6
908.2198	1725.0496	13874.6	12978.7
908.3609	1726.7605	13866.2	12967.4
908.502	1728.4706	13842.4	12941.15
908.6431	1730.18	13744.4	12847.2
908.7842	1731.8886	13719.6	12822.75
908.9253	1733.5964	13682.55	12766.2
909.0664	1735.3036	13637.9	12739.35
909.2074	1737.0099	13624.6	12727.9
909.3484	1738.7156	13578.4	12685.05
909.4894	1740.4204	13489.75	12590.85
909.6304	1742.1246	13509.6	12611.45
909.7714	1743.8279	13456	12561.25
909.9123	1745.5306	13422.3	12528.5
910.0532	1747.2325	13380.3	12485.7
910.1941	1748.9336	13337.55	12441.95
910.335	1750.634	13290.6	12390.8
910.4759	1752.3336	13254	12356.8
910.6168	1754.0325	13232.75	12342.75
910.7576	1755.7307	13207.25	12311.45
910.8984	1757.4281	13170.45	12276.4
911.0392	1759.1247	13164.35	12257.1
911.18	1760.8206	13097.8	12193.4
911.3208	1762.5158	13084.9	12182.4
911.4615	1764.2102	13021.8	12125.65
911.6022	1765.9039	12963	12067.5
911.7429	1767.5968	12953.95	12059.05
911.8836	1769.289	12919	12025.4
912.0243	1770.9804	12891.2	11995.6
912.1649	1772.6711	12858	11960.05
912.3056	1774.361	12804.5	11905.9
912.4462	1776.0502	12796.05	11896.45
912.5868	1777.7386	12762.85	11866.3
912.7274	1779.4263	12716.85	11820.4
912.8679	1781.1132	12678.8	11786.5
913.0084	1782.7994	12652.25	11760.85
913.149	1784.4849	12602.45	11712.05
913.2895	1786.1696	12576.6	11676.35
913.4299	1787.8535	12540.25	11647.75
913.5704	1789.5367	12506.5	11617.4
913.7108	1791.2192	12462	11570.1
913.8513	1792.9009	12454.55	11532.65
913.9917	1794.5818	12420.2	11521.35
914.132	1796.2621	12372.15	11479.15
914.2724	1797.9415	12328.4	11432.7
914.4128	1799.6202	12321.95	11427
914.5531	1801.2982	12283.8	11388.9
914.6934	1802.9755	12250.8	11352.15
914.8337	1804.6519	12219.35	11323.85
914.9739	1806.3277	12187.4	11292.6
915.1142	1808.0027	12142.85	11252.4
915.2544	1809.6769	12121.05	11230.4
915.3946	1811.3504	12089.5	11198.2
915.5348	1813.0231	12048.15	11153.8
915.675	1814.6951	12055.6	11163.15
915.8151	1816.3664	12033	11136.75
915.9553	1818.0369	12027	11132.8
916.0954	1819.7067	11953.2	11058.1
916.2355	1821.3757	11945.8	11048.05
916.3755	1823.044	11923.4	11027.75
916.5156	1824.7115	11899.05	11004.3
916.6556	1826.3783	11826.45	10933.65
916.7956	1828.0443	11822.5	10928.9
916.9356	1829.7096	11786.1	10892.1
917.0756	1831.3741	11737.5	10841.1
917.2155	1833.0379	11693.2	10801.85
917.3555	1834.701	11670.05	10776.85
917.4954	1836.3633	11672.2	10780.55
917.6353	1838.0248	11630.95	10735.35
917.7751	1839.6856	11602.5	10708.05
917.915	1841.3457	11596.15	10704.1
918.0548	1843.005	11576.2	10682.55
918.1946	1844.6636	11555.15	10664.85
918.3344	1846.3214	11487.85	10594.35
918.4742	1847.9785	11484.55	10590.55
918.6139	1849.6349	11449.3	10553.95
918.7537	1851.2904	11441.05	10537.05
918.8934	1852.9453	11399.65	10501.4
919.0331	1854.5994	11370.25	10475.15
919.1727	1856.2528	11378.6	10478.75
919.3124	1857.9054	11347.25	10452.4
919.452	1859.5572	11332.95	10439.4
919.5916	1861.2083	11295.75	10401.85
919.7312	1862.8587	11294.8	10398.8
919.8708	1864.5084	11255.7	10360.5
920.0103	1866.1572	11231.95	10336
920.1498	1867.8054	11182.25	10285.8
920.2893	1869.4528	11156.5	10259.55
920.4288	1871.0994	11103.9	10208.05
920.5683	1872.7453	11095.6	10200.55
920.7077	1874.3905	11090.1	10178.05
920.8471	1876.0349	11038.2	10143.45
920.9865	1877.6786	11025.5	10129.5
921.1259	1879.3215	11019.05	10125.5
921.2653	1880.9637	10985.45	10092.45
921.4046	1882.6051	10945.9	10053.95
921.5439	1884.2458	10930.1	10037
921.6832	1885.8858	10879	9985.45
921.8225	1887.525	10868.55	9974.6
921.9617	1889.1634	10828.65	9933.1
922.101	1890.8011	10795.6	9899.6
922.2402	1892.4381	10774.1	9880.85
922.3794	1894.0743	10764.65	9872.05
922.5185	1895.7098	10738.1	9843.65
922.6577	1897.3446	10674.15	9780.5
922.7968	1898.9786	10654.35	9756.55
922.9359	1900.6118	10629.1	9737.15
923.075	1902.2443	10571.7	9676.7
923.214	1903.8761	10556.45	9662.05
923.3531	1905.5071	10499.7	9605.05
923.4921	1907.1374	10487.35	9595.5
923.6311	1908.7669	10467.3	9576.05
923.77	1910.3957	10448.65	9557.9
923.909	1912.0237	10404.15	9512.45
924.0479	1913.651	10397.5	9504.8
924.1868	1915.2776	10354.75	9462.8
924.3257	1916.9034	10311.45	9418.15
924.4646	1918.5285	10240.6	9349.75
924.6034	1920.1528	10207	9312.65
924.7422	1921.7764	10189.15	9296.25
924.881	1923.3992	10169.15	9278.35
925.0198	1925.0213	10100.6	9208.15
925.1586	1926.6427	10063.3	9171.65
925.2973	1928.2633	10116.85	9154.2
925.436	1929.8832	10032.1	9136.25
925.5747	1931.5023	9988.55	9095.05
925.7134	1933.1207	9982.35	9090.35
925.852	1934.7383	9939.2	9045.6
925.9906	1936.3552	9905.4	9012.9
926.1292	1937.9714	9875.8	8982.5
926.2678	1939.5868	9832.05	8937.7
926.4064	1941.2015	9784.05	8889.15
926.5449	1942.8154	9758.45	8863.1
926.6834	1944.4286	9715.65	8823.45
926.8219	1946.041	9681.9	8769.05
926.9604	1947.6528	9625.1	8726.95
927.0988	1949.2637	9608.95	8717.55
927.2372	1950.8739	9574	8682.1
927.3756	1952.4834	9556.55	8663.35
927.514	1954.0921	9543.15	8650.85
927.6523	1955.7001	9478.15	8586.2
927.7907	1957.3074	9462.3	8572.45
927.929	1958.9139	9448.9	8559.15
928.0673	1960.5197	9430.4	8540
928.2055	1962.1247	9376.55	8486.05
928.3438	1963.729	9325.05	8438
928.482	1965.3325	9312.95	8399.15
928.6202	1966.9353	9265.95	8377.85
928.7584	1968.5374	9251.2	8361.05
928.8965	1970.1387	9223.5	8334.1
929.0346	1971.7393	9160.75	8271.85
929.1727	1973.3392	9163.45	8274.3
929.3108	1974.9383	9119.15	8230.5
929.4489	1976.5366	9057.2	8169.95
929.5869	1978.1342	9076.6	8186.9
929.7249	1979.7311	9041.95	8153.85
929.8629	1981.3273	9042	8153.4
930.0009	1982.9227	8995.7	8108.5
930.1388	1984.5173	8967.3	8080
930.2767	1986.1112	8905.1	8020.25
930.4146	1987.7044	8884.85	7997.6
930.5525	1989.2968	8895.05	8007.2
930.6904	1990.8885	8875.7	7985.15
930.8282	1992.4795	8825.3	7940.3
930.966	1994.0697	8791.15	7905.8
931.1038	1995.6592	8764.7	7879.5
931.2415	1997.2479	8720.7	7834.25
931.3793	1998.8359	8721.2	7835.7
931.517	2000.4232	8697.2	7812.85
931.6547	2002.0097	8670.85	7790.35
931.7923	2003.5955	8607.95	7725.75
931.93	2005.1805	8637.9	7752.4
932.0676	2006.7648	8616.45	7733.1
932.2052	2008.3484	8544.25	7659.4
932.3427	2009.9312	8564.2	7679.65
932.4803	2011.5133	8529.9	7649.6
932.6178	2013.0946	8504.4	7623.85
932.7553	2014.6752	8488.2	7605.2
932.8928	2016.2551	8448.9	7562.6
933.0302	2017.8342	8397.55	7512.55
933.1676	2019.4126	8381.95	7499.9
933.305	2020.9902	8363.85	7483.3
933.4424	2022.5672	8326.1	7441.2
933.5798	2024.1433	8316.35	7428.1
933.7171	2025.7188	8290.1	7410.45
933.8544	2027.2935	8289.3	7410.05
933.9917	2028.8674	8251.8	7370.15
934.129	2030.4406	8220.2	7340.15
934.2662	2032.0131	8190.65	7310.15
934.4034	2033.5849	8159.85	7274.1
934.5406	2035.1559	8162	7282.2
934.6778	2036.7261	8126.5	7243.1
934.8149	2038.2957	8148.55	7263.8
934.952	2039.8645	8119.1	7233.65
935.0891	2041.4325	8107.05	7217.9
935.2262	2042.9998	8055.1	7171.25
935.3632	2044.5664	8011.2	7126.2
935.5002	2046.1323	8024.2	7141.8
935.6372	2047.6974	7986.6	7107.15
935.7742	2049.2617	7972.25	7092.9
935.9111	2050.8254	7956	7068.2
936.048	2052.3883	7956.2	7069.95
936.1849	2053.9504	7916.65	7029.8
936.3218	2055.5118	7877.25	6991.65
936.4586	2057.0725	7848.35	6959.65
936.5955	2058.6325	7833.05	6949.95
936.7323	2060.1917	7808.55	6926.35
936.869	2061.7502	7805.55	6919.65
937.0058	2063.3079	7779.65	6898
937.1425	2064.8649	7747.85	6865.8
937.2792	2066.4212	7759.1	6874.9
937.4159	2067.9767	7718.85	6837.1
937.5525	2069.5315	7680.3	6796.55
937.6891	2071.0856	7649.75	6768.15
937.8257	2072.6389	7601.15	6716.75
937.9623	2074.1915	7575.2	6693.35
938.0989	2075.7433	7527.3	6643.45
938.2354	2077.2945	7536.85	6654.4
938.3719	2078.8448	7539	6655.25
938.5084	2080.3945	7491.05	6606.6
938.6448	2081.9434	7499.85	6615.1
938.7812	2083.4916	7463.4	6579.35
938.9176	2085.039	7462.05	6569.35
939.054	2086.5857	7426.3	6535
939.1903	2088.1317	7403.6	6513.25
939.3267	2089.677	7395.3	6504.25
939.463	2091.2215	7360.25	6470.6
939.5992	2092.7652	7342.2	6452.55
939.7355	2094.3083	7308.9	6419.35
939.8717	2095.8506	7281.9	6394.4
940.0079	2097.3921	7297.3	6409.1
940.1441	2098.933	7301.8	6414.55
940.2802	2100.4731	7260.55	6374.25
940.4163	2102.0124	7271.05	6375.2
940.5524	2103.5511	7214.75	6328.05
940.6885	2105.089	7221	6332.75
940.8245	2106.6261	7172.6	6285.85
940.9606	2108.1626	7173.35	6286.35
941.0965	2109.6983	7185.05	6266.85
941.2325	2111.2332	7144.15	6255.3
941.3684	2112.7675	7113.1	6224.2
941.5044	2114.301	7101.2	6208.95
941.6403	2115.8337	7109.1	6220.2
941.7761	2117.3657	7062.8	6176.45
941.912	2118.897	7049.7	6161.7
942.0478	2120.4276	7043.55	6151.5
942.1835	2121.9575	7016.65	6128.4
942.3193	2123.4866	7016.2	6114.6
942.455	2125.0149	7000.8	6111
942.5907	2126.5426	6958.25	6072.1
942.7264	2128.0695	6944.8	6057.65
942.8621	2129.5956	6916.8	6033.15
942.9977	2131.1211	6905.55	6020.7
943.1333	2132.6458	6896.9	6008.75
943.2689	2134.1698	6890.5	6001.65
943.4044	2135.693	6884.5	5994.25
943.54	2137.2155	6861.3	5968.85
943.6755	2138.7373	6825.4	5938.75
943.8109	2140.2584	6793.45	5907.7
943.9464	2141.7787	6785.05	5896.95
944.0818	2143.2983	6755.4	5874.2
944.2172	2144.8171	6724.25	5841.3
944.3526	2146.3353	6717.85	5831.25
944.4879	2147.8527	6684.45	5797.4
944.6232	2149.3693	6689.9	5801.6
944.7585	2150.8853	6664.6	5775.85
944.8938	2152.4005	6622.6	5732.4
945.029	2153.9149	6620.05	5730.1
945.1642	2155.4287	6705.15	5708.9
945.2994	2156.9417	6619.4	5727.8
945.4346	2158.454	6583.25	5695.1
945.5697	2159.9655	6550.7	5664.9
945.7048	2161.4764	6541.2	5658.9
945.8399	2162.9865	6524.2	5639.65
945.9749	2164.4958	6517.95	5630.35
946.1099	2166.0045	6472.7	5583.15
946.2449	2167.5124	6473.55	5586.8
946.3799	2169.0195	6457	5571.05
946.5148	2170.526	6449.85	5560.1
946.6498	2172.0317	6424.3	5537.75
946.7846	2173.5367	6399.4	5512.15
946.9195	2175.0409	6414.15	5529.6
947.0543	2176.5445	6396.6	5511
947.1891	2178.0473	6369.35	5479.95
947.3239	2179.5494	6335.95	5443.6
947.4587	2181.0507	6315.6	5428.75
947.5934	2182.5513	6289.7	5401.9
947.7281	2184.0512	6275.65	5388.15
947.8628	2185.5504	6257.45	5369.75
947.9974	2187.0488	6229.8	5343.45
948.132	2188.5465	6230.65	5346.35
948.2666	2190.0435	6208.75	5323.35
948.4012	2191.5397	6187.15	5297.8
948.5357	2193.0353	6173.25	5286.7
948.6702	2194.5301	6150.55	5260.2
948.8047	2196.0241	6125.4	5235
948.9392	2197.5175	6120.95	5228.65
949.0736	2199.0101	6102.45	5207.5
949.208	2200.502	6057.35	5170.05
949.3424	2201.9931	6037.25	5150
949.4767	2203.4835	6010.4	5126.05
949.611	2204.9733	6034.5	5143.45
949.7453	2206.4622	6010.15	5127.3
949.8796	2207.9505	5983.1	5096.05
950.0138	2209.438	5939.2	5057.1
950.148	2210.9248	5956.75	5069.2
950.2822	2212.4109	5930.35	5043.2
950.4164	2213.8962	5910.6	5018.95
950.5505	2215.3809	5897	5003.85
950.6846	2216.8648	5885.7	4992.15
950.8186	2218.3479	5853.15	4957
950.9527	2219.8304	5849.5	4953.2
951.0867	2221.3121	5822.45	4927.65
951.2207	2222.7931	5799.1	4909.5
951.3546	2224.2733	5763.15	4873.7
951.4886	2225.7529	5780.4	4892.45
951.6225	2227.2317	5738.4	4849.05
951.7563	2228.7098	5731.2	4845.7
951.8902	2230.1872	5713.35	4828.9
952.024	2231.6638	5706.65	4822.6
952.1578	2233.1397	5664.55	4776.15
952.2916	2234.6149	5658.45	4772.95
952.4253	2236.0894	5659.85	4772.6
952.559	2237.5632	5633.3	4745.2
952.6927	2239.0362	5607.15	4719.75
952.8263	2240.5085	5579.6	4692.1
952.9599	2241.9801	5566.25	4680.2
953.0935	2243.4509	5565.6	4673.1
953.2271	2244.921	5546.25	4656.3
953.3606	2246.3904	5540.55	4648.45
953.4941	2247.8591	5527.05	4639.2
953.6276	2249.3271	5521.1	4633.95
953.7611	2250.7943	5476.9	4583.9
953.8945	2252.2608	5446.2	4555.25
954.0279	2253.7266	5453	4564.7
954.1612	2255.1917	5430.25	4542.1
954.2946	2256.656	5395.95	4507.55
954.4279	2258.1197	5390.8	4506.9
954.5612	2259.5826	5381.6	4492.75
954.6944	2261.0447	5375	4486.1
954.8276	2262.5062	5355.1	4463.65
954.9608	2263.9669	5352.6	4461.35
955.094	2265.4269	5336.75	4447
955.2271	2266.8862	5310.3	4421.45
955.3602	2268.3448	5300.85	4415.4
955.4933	2269.8026	5313.8	4427.9
955.6264	2271.2598	5292.8	4406.95
955.7594	2272.7162	5270.55	4384.3
955.8924	2274.1719	5259.55	4370.75
956.0253	2275.6268	5241.1	4351.3
956.1583	2277.0811	5227.7	4339.6
956.2912	2278.5346	5225	4338.3
956.4241	2279.9874	5216.15	4331.1
956.5569	2281.4395	5188.6	4304.4
956.6897	2282.8908	5171.25	4278.25
956.8225	2284.3414	5162.45	4273.85
956.9553	2285.7914	5153.5	4265.4
957.088	2287.2406	5128.35	4238.35
957.2207	2288.689	5112.6	4220.45
957.3534	2290.1368	5121.55	4227.45
957.486	2291.5838	5084	4188.25
957.6186	2293.0302	5081.25	4185.05
957.7512	2294.4758	5071.4	4177.45
957.8838	2295.9206	5048.7	4156.15
958.0163	2297.3648	5053	4165.15
958.1488	2298.8082	5054.4	4164.35
958.2813	2300.251	5019.5	4129.55
958.4137	2301.693	4993.3	4099.8
958.5461	2303.1343	5000.35	4108.85
958.6785	2304.5748	4969.85	4083.25
958.8108	2306.0147	4964.7	4077.15
958.9432	2307.4538	4942.85	4055.35
959.0754	2308.8922	4925.1	4040.05
959.2077	2310.3299	4925.5	4040.35
959.3399	2311.7669	4905.3	4019.75
959.4721	2313.2031	4881.35	3992.65
959.6043	2314.6387	4884.65	3997.4
959.7365	2316.0735	4861.2	3972.7
959.8686	2317.5076	4858.8	3969.85
960.0006	2318.941	4849.75	3961.55
960.1327	2320.3737	4834.1	3943.45
960.2647	2321.8056	4811.6	3918.55
960.3967	2323.2369	4787.6	3897.75
960.5287	2324.6674	4757.3	3865
960.6606	2326.0972	4755.95	3865.25
960.7925	2327.5263	4755.75	3866.05
960.9244	2328.9547	4745.45	3855.4
961.0562	2330.3823	4732.7	3840.55
961.1881	2331.8092	4716.9	3823.8
961.3198	2333.2355	4717.75	3826.15
961.4516	2334.661	4702.4	3809.95
961.5833	2336.0858	4689.85	3797.7
961.715	2337.5098	4679.25	3789.5
961.8467	2338.9332	4672.75	3784.3
961.9783	2340.3558	4660.45	3767.4
962.1099	2341.7778	4634.45	3747.8
962.2415	2343.199	4620.25	3732
962.373	2344.6195	4617.5	3729.8
962.5045	2346.0393	4607.25	3719.2
962.636	2347.4583	4599.6	3709.2
962.7675	2348.8767	4583.55	3692.3
962.8989	2350.2943	4583.3	3692.25
963.0303	2351.7113	4575.4	3682.6
963.1617	2353.1275	4555.5	3661.05
963.293	2354.543	4553.8	3640.1
963.4243	2355.9578	4530.1	3637.75
963.5556	2357.3718	4507.85	3618.85
963.6868	2358.7852	4467.8	3578.45
963.818	2360.1978	4462.8	3574.4
963.9492	2361.6098	4447	3557.7
964.0803	2363.021	4449.95	3559.15
964.2114	2364.4315	4445.45	3556.75
964.3425	2365.8413	4432.7	3538.2
964.4736	2367.2504	4396.1	3508.4
964.6046	2368.6587	4374.75	3487.6
964.7356	2370.0664	4391.05	3505.05
964.8666	2371.4733	4369.65	3480
964.9975	2372.8795	4366.2	3478.55
965.1284	2374.285	4339.9	3451.1
965.2593	2375.6899	4319.1	3433.55
965.3901	2377.0939	4312.2	3424.8
965.5209	2378.4973	4279.95	3394.2
965.6517	2379.9	4278.2	3389.95
965.7825	2381.3019	4272.35	3386.75
965.9132	2382.7032	4245.4	3358.6
966.0439	2384.1037	4230.3	3346.75
966.1745	2385.5035	4226.4	3340.95
966.3051	2386.9027	4219.5	3335
966.4357	2388.3011	4202.15	3313.35
966.5663	2389.6987	4193.6	3307.95
966.6968	2391.0957	4172.75	3287.2
966.8273	2392.492	4168.2	3284.35
966.9578	2393.8876	4140.15	3253.05
967.0882	2395.2824	4144.3	3260.1
967.2186	2396.6765	4140.8	3253.7
967.349	2398.07	4106.3	3219.2
967.4793	2399.4627	4103.1	3211.85
967.6097	2400.8547	4079.15	3189.7
967.7399	2402.246	4079.45	3186.55
967.8702	2403.6366	4060.35	3173.8
968.0004	2405.0265	4053.65	3166.7
968.1306	2406.4156	4033.55	3143.8
968.2607	2407.8041	4027.55	3137.05
968.3909	2409.1918	4014.8	3125.15
968.521	2410.5789	3995.15	3107
968.651	2411.9652	3980.7	3091
968.781	2413.3508	3988.55	3101.4
968.911	2414.7358	3964.9	3077.35
969.041	2416.12	3949.2	3063
969.1709	2417.5035	3945.4	3057.55
969.3008	2418.8863	3941.3	3052.9
969.4307	2420.2684	3920.55	3033.7
969.5606	2421.6497	3888.3	2998.5
969.6904	2423.0304	3877.7	2989.55
969.8201	2424.4104	3878.3	2988.75
969.9499	2425.7896	3876.2	2989.55
970.0796	2427.1682	3863	2975.35
970.2093	2428.546	3874.15	2984.95
970.3389	2429.9232	3848.25	2959.4
970.4685	2431.2996	3844.95	2957.45
970.5981	2432.6753	3829.85	2944.35
970.7277	2434.0503	3818.35	2931.1
970.8572	2435.4246	3795.3	2909.3
970.9867	2436.7982	3799.3	2908.65
971.1161	2438.1711	3783.75	2895.75
971.2456	2439.5433	3771.35	2882.4
971.375	2440.9148	3765.4	2874.4
971.5043	2442.2856	3745.25	2857.8
971.6336	2443.6557	3742.9	2851.9
971.7629	2445.025	3720.8	2832.55
971.8922	2446.3937	3725.45	2837.3
972.0214	2447.7617	3714.65	2826.15
972.1506	2449.1289	3717.4	2829.9
972.2798	2450.4955	3699.35	2808.6
972.4089	2451.8613	3690.4	2803.75
972.538	2453.2265	3672.95	2785.6
972.6671	2454.5909	3678.6	2792.5
972.7961	2455.9546	3661.15	2774.85
972.9251	2457.3177	3648.85	2762.6
973.0541	2458.68	3644.75	2756.2
973.1831	2460.0416	3644.2	2758.85
973.312	2461.4025	3638.8	2749.95
973.4408	2462.7627	3625.7	2730.65
973.5697	2464.1222	3613.65	2728.2
973.6985	2465.4811	3613.6	2727.45
973.8273	2466.8392	3604	2717.95
973.956	2468.1966	3597.35	2706.65
974.0847	2469.5533	3581.4	2692.05
974.2134	2470.9093	3563.9	2675.9
974.3421	2472.2645	3563.55	2674.95
974.4707	2473.6191	3581.95	2696.8
974.5993	2474.973	3552.3	2665.1
974.7278	2476.3262	3543.85	2655.15
974.8563	2477.6787	3525.05	2638.65
974.9848	2479.0305	3507.3	2619.25
975.1132	2480.3816	3506	2616.85
975.2417	2481.7319	3489.4	2602.85
975.37	2483.0816	3477.1	2587.15
975.4984	2484.4306	3474.35	2585.1
975.6267	2485.7789	3459.8	2573.7
975.755	2487.1264	3453	2565.85
975.8833	2488.4733	3448.85	2564
976.0115	2489.8195	3440.1	2546.7
976.1397	2491.165	3429.05	2537.3
976.2678	2492.5097	3404.1	2514.55
976.3959	2493.8538	3387.2	2500.55
976.524	2495.1972	3384.7	2495.55
976.6521	2496.5398	3379.9	2491.35
976.7801	2497.8818	3374.05	2484.35
976.9081	2499.2231	3369.05	2479.85
977.036	2500.5637	3350.55	2462.05
977.164	2501.9035	3346.1	2457.8
977.2918	2503.2427	3347.65	2454.4
977.4197	2504.5812	3327.8	2440.85
977.5475	2505.919	3319.4	2428.2
977.6753	2507.256	3317.25	2430.6
977.8031	2508.5924	3304.5	2418.95
977.9308	2509.9281	3306.75	2414.6
978.0585	2511.2631	3281.1	2395.35
978.1861	2512.5974	3279.85	2393.1
978.3137	2513.9309	3270.3	2383.35
978.4413	2515.2638	3293.05	2380.85
978.5689	2516.596	3256.4	2367.9
978.6964	2517.9275	3242.15	2353.55
978.8239	2519.2583	3237.7	2350.05
978.9513	2520.5884	3226.65	2336.15
979.0788	2521.9178	3222.15	2335.4
979.2062	2523.2465	3212.55	2325.95
979.3335	2524.5745	3198.55	2311.45
979.4608	2525.9018	3192.35	2305.65
979.5881	2527.2284	3170.05	2283.35
979.7154	2528.5543	3190	2304.45
979.8426	2529.8796	3170.8	2282.9
979.9698	2531.2041	3161.25	2271.85
980.0969	2532.5279	3150.8	2265.25
980.224	2533.851	3147.7	2261.5
980.3511	2535.1735	3148.8	2262
980.4781	2536.4952	3136.1	2247.8
980.6052	2537.8163	3139.85	2250.85
980.7321	2539.1366	3133.5	2246
980.8591	2540.4562	3137.55	2247.75
980.986	2541.7752	3104.7	2217.65
981.1129	2543.0935	3110.95	2222.3
981.2397	2544.411	3095.65	2206.4
981.3665	2545.7279	3089.7	2202.6
981.4933	2547.0441	3095.9	2207.55
981.62	2548.3596	3094.3	2203.3
981.7467	2549.6744	3084.6	2195.9
981.8734	2550.9885	3073.3	2176.25
982.0001	2552.3019	3066.65	2179.55
982.1267	2553.6146	3063.5	2174.45
982.2532	2554.9266	3053.05	2163.8
982.3798	2556.2379	3044.4	2156
982.5063	2557.5485	3027.6	2141.4
982.6327	2558.8585	3035.15	2140.55
982.7592	2560.1677	3024.7	2132.2
982.8856	2561.4762	3018.85	2129.05
983.0119	2562.7841	3027.5	2136.35
983.1383	2564.0913	3012.45	2123.5
983.2646	2565.3977	2998.35	2112
983.3908	2566.7035	2998.7	2109
983.517	2568.0086	3002.3	2113
983.6432	2569.313	3000.6	2113.05
983.7694	2570.6167	2990.1	2098.85
983.8955	2571.9197	2979.65	2091.85
984.0216	2573.222	2977.4	2083.1
984.1476	2574.5236	2967.65	2077.5
984.2737	2575.8246	2964.15	2072.9
984.3996	2577.1248	2968.4	2076.25
984.5256	2578.4244	2959.5	2073.55
984.6515	2579.7232	2955.55	2067.5
984.7774	2581.0214	2971.35	2053
984.9032	2582.3189	2955.2	2066.9
985.029	2583.6157	2947.45	2055.85
985.1548	2584.9118	2936.2	2048.45
985.2806	2586.2072	2931.55	2043.05
985.4063	2587.5019	2926.2	2034.9
985.5319	2588.7959	2931.9	2044.05
985.6576	2590.0893	2931.15	2039.8
985.7832	2591.3819	2914.2	2027.35
985.9087	2592.6739	2897.5	2008.1
986.0343	2593.9652	2902.75	2012.05
986.1597	2595.2557	2907.35	2017.75
986.2852	2596.5456	2894.75	2000.45
986.4106	2597.8348	2878.85	1990.25
986.536	2599.1234	2877.9	1990.5
986.6614	2600.4112	2878.8	1987.95
986.7867	2601.6983	2878.25	1985.65
986.912	2602.9848	2878.25	1988.15
987.0372	2604.2705	2878.95	1982.45
987.1624	2605.5556	2856.25	1967.6
987.2876	2606.84	2839.5	1952.45
987.4128	2608.1237	2850.45	1962.65
987.5379	2609.4067	2827.15	1937.15
987.6629	2610.689	2824.35	1926.25
987.788	2611.9707	2817.8	1925.1
987.913	2613.2516	2812.9	1918.15
988.0379	2614.5319	2803.65	1916.9
988.1629	2615.8115	2787.35	1895.65
988.2878	2617.0903	2769.15	1879.45
988.4126	2618.3685	2779.15	1891
988.5375	2619.6461	2780.75	1890.35
988.6622	2620.9229	2764.65	1874.45
988.787	2622.199	2756.95	1867.4
988.9117	2623.4745	2761	1870.2
989.0364	2624.7493	2752.65	1866.1
989.161	2626.0234	2752.4	1862.9
989.2857	2627.2968	2745.2	1857.45
989.4102	2628.5695	2735.1	1846.45
989.5348	2629.8415	2720.95	1834.45
989.6593	2631.1128	2720.95	1830.5
989.7837	2632.3835	2700.3	1811.5
989.9082	2633.6535	2699.45	1812.65
990.0326	2634.9228	2703.2	1816.75
990.1569	2636.1914	2692.5	1803.45
990.2812	2637.4593	2691.55	1801.9
990.4055	2638.7265	2681.4	1791.45
990.5298	2639.9931	2683.55	1794.15
990.654	2641.259	2679.2	1791.05
990.7782	2642.5242	2670.3	1781
990.9023	2643.7887	2669.45	1781.75
991.0264	2645.0525	2659.7	1774.65
991.1505	2646.3156	2670.6	1768.45
991.2745	2647.5781	2646.1	1759.35
991.3985	2648.8398	2642.5	1755.25
991.5225	2650.1009	2640.45	1726.85
991.6464	2651.3613	2623.95	1733.8
991.7703	2652.6211	2619.1	1733.65
991.8942	2653.8801	2612.9	1726.35
992.018	2655.1385	2611.65	1721.4
992.1418	2656.3961	2595.55	1708.5
992.2655	2657.6531	2593.4	1704.95
992.3892	2658.9094	2598.35	1710.05
992.5129	2660.1651	2587.55	1702.2
992.6366	2661.42	2589.6	1698.6
992.7602	2662.6743	2597.2	1706.85
992.8837	2663.9279	2589.25	1702.5
993.0073	2665.1808	2575	1684.35
993.1307	2666.433	2593.75	1703.6
993.2542	2667.6846	2576.35	1688.15
993.3776	2668.9354	2571.75	1680.95
993.501	2670.1856	2580.25	1690.4
993.6244	2671.4351	2578.3	1690.6
993.7477	2672.6839	2573.85	1684.95
993.8709	2673.9321	2558.85	1671.9
993.9942	2675.1795	2563.3	1674.2
994.1174	2676.4263	2551.35	1662.2
994.2405	2677.6724	2553.15	1664.3
994.3637	2678.9179	2549.2	1659.95
994.4868	2680.1626	2556.25	1669.1
994.6098	2681.4067	2548.9	1660.7
994.7328	2682.6501	2533.15	1645.85
994.8558	2683.8928	2536.8	1649.65
994.9788	2685.1348	2525.25	1638.05
995.1017	2686.3761	2518.95	1632.65
995.2245	2687.6168	2523.45	1636.65
995.3474	2688.8568	2516.8	1630.75
995.4702	2690.0961	2501.2	1614.9
995.5929	2691.3348	2475.85	1588.65
995.7156	2692.5727	2486.75	1598.15
995.8383	2693.81	2479.25	1590.25
995.961	2695.0466	2464.8	1578.8
996.0836	2696.2826	2464.4	1575.4
996.2062	2697.5178	2465.4	1573.95
996.3287	2698.7524	2462.4	1572.3
996.4512	2699.9863	2472.5	1580.35
996.5737	2701.2195	2440.2	1551.85
996.6961	2702.452	2452.3	1563.1
996.8185	2703.6839	2454.9	1566.65
996.9408	2704.9151	2445.7	1559.55
997.0631	2706.1456	2444.6	1558.6
997.1854	2707.3755	2458.3	1571.45
997.3077	2708.6046	2454.1	1563.4
997.4299	2709.8331	2457.05	1568
997.552	2711.0609	2459.6	1573.85
997.6742	2712.2881	2468.7	1578.85
997.7963	2713.5145	2475.4	1586
997.9183	2714.7403	2483.6	1597.4
998.0403	2715.9654	2480.5	1592.45
998.1623	2717.1899	2495.2	1594.7
998.2842	2718.4136	2505	1619.05
998.4062	2719.6367	2504.15	1618.9
998.528	2720.8591	2504.8	1611.75
998.6498	2722.0809	2508.4	1620.7
998.7716	2723.3019	2517.95	1629.1
998.8934	2724.5223	2527.8	1638.75
999.0151	2725.7421	2519.7	1630.75
999.1368	2726.9611	2520.85	1630.85
999.2584	2728.1795	2512.4	1622.25
999.38	2729.3972	2494.05	1606.65
999.5016	2730.6142	2497.2	1597.9
999.6231	2731.8306	2465.75	1579.85
999.7446	2733.0462	2444.55	1555.85
999.8661	2734.2612	2443.45	1553.3
999.9875	2735.4756	2408.25	1520.6
1000.1089	2736.6892	2403.2	1514.85
1000.2302	2737.9022	2363.7	1477.7
1000.3515	2739.1145	2352.6	1466.05
1000.4728	2740.3262	2343.1	1447.65
1000.594	2741.5372	2323	1436.35
1000.7152	2742.7475	2304.15	1416.75
1000.8363	2743.9571	2302.2	1414.5
1000.9575	2745.1661	2290.95	1399.3
1001.0785	2746.3744	2266.25	1378.5
1001.1996	2747.582	2257.85	1371.4
1001.3206	2748.7889	2251	1361
1001.4415	2749.9952	2236.75	1351.55
1001.5625	2751.2008	2230.8	1344.55
1001.6833	2752.4057	2219.2	1330.7
1001.8042	2753.61	2212.8	1327.1
1001.925	2754.8136	2211.05	1322.95
1002.0458	2756.0165	2202.65	1316.05
1002.1665	2757.2188	2200.2	1314.65
1002.2872	2758.4204	2195.65	1309.85
1002.4078	2759.6213	2193.7	1306.1
1002.5285	2760.8215	2202.35	1312.15
1002.649	2762.0211	2194.6	1306.8
1002.7696	2763.22	2184.4	1295.25
1002.8901	2764.4182	2177.9	1291.7
1003.0106	2765.6158	2182.15	1295.45
1003.131	2766.8127	2161.55	1275.85
1003.2514	2768.009	2149	1264.75
1003.3717	2769.2045	2154.45	1266.75
1003.492	2770.3994	2155.15	1265.55
1003.6123	2771.5936	2144.1	1259.15
1003.7325	2772.7872	2134.25	1251.5
1003.8527	2773.9801	2125.85	1239.8
1003.9729	2775.1723	2146.9	1245
1004.093	2776.3639	2131.45	1245.1
1004.2131	2777.5548	2133.85	1244.85
1004.3331	2778.745	2117	1231.3
1004.4531	2779.9346	2111.15	1227.3
1004.5731	2781.1235	2123.2	1235.05
1004.693	2782.3117	2117.35	1231
1004.8129	2783.4992	2110.5	1226.05
1004.9328	2784.6861	2120.2	1237.05
1005.0526	2785.8723	2122.8	1235.5
1005.1723	2787.0579	2124.55	1238.7
1005.2921	2788.2428	2128.65	1242.95
1005.4118	2789.427	2125.3	1240.8
1005.5314	2790.6106	2144.65	1260.4
1005.651	2791.7935	2152.65	1267.9
1005.7706	2792.9757	2157.7	1272.5
1005.8902	2794.1573	2165.55	1277.45
1006.0097	2795.3382	2177.05	1292.3
1006.1291	2796.5184	2193.7	1307.85
1006.2485	2797.698	2207.15	1320.55
1006.3679	2798.8769	2226.8	1340.2
1006.4873	2800.0551	2230.3	1344.7
1006.6066	2801.2327	2252.75	1364.25
1006.7258	2802.4096	2263.7	1379.75
1006.8451	2803.5859	2274.45	1388.4
1006.9642	2804.7615	2296.3	1409.5
1007.0834	2805.9364	2323.85	1439.75
1007.2025	2807.1106	2350.05	1466.85
1007.3216	2808.2842	2385.5	1497.75
1007.4406	2809.4572	2409.7	1525.4
1007.5596	2810.6294	2436.8	1550.85
1007.6785	2811.801	2478.6	1593.45
1007.7975	2812.972	2518.3	1635.7
1007.9163	2814.1423	2560.05	1674.45
1008.0352	2815.3119	2604.1	1720.8
1008.154	2816.4808	2652.3	1768
1008.2727	2817.6491	2693.8	1809.05
1008.3914	2818.8167	2753.35	1869.45
1008.5101	2819.9837	2787.55	1897.7
1008.6288	2821.15	2829	1942.8
1008.7474	2822.3157	2867.6	1984.6
1008.8659	2823.4807	2918.6	2033.85
1008.9844	2824.645	2971.8	2086.85
1009.1029	2825.8086	3000.7	2115.75
1009.2214	2826.9716	3037.1	2155.35
1009.3398	2828.134	3078.5	2195.5
1009.4581	2829.2957	3109.7	2224.95
1009.5764	2830.4567	3138.2	2254.2
1009.6947	2831.617	3153	2267.7
1009.813	2832.7767	3155.7	2273
1009.9312	2833.9358	3157.9	2274.35
1010.0493	2835.0941	3149.85	2262.95
1010.1675	2836.2519	3132.25	2248.4
1010.2855	2837.4089	3122.5	2238.55
1010.4036	2838.5653	3109.05	2222.45
1010.5216	2839.7211	3128.4	2246.4
1010.6396	2840.8761	3120.3	2234.05
1010.7575	2842.0306	3142	2258.2
1010.8754	2843.1843	3183.9	2300.7
1010.9932	2844.3374	3232.8	2350.1
1011.111	2845.4899	3296.85	2411.25
1011.2288	2846.6417	3375.3	2490.4
1011.3465	2847.7928	3444.7	2561.45
1011.4642	2848.9433	3515.35	2631.65
1011.5818	2850.0931	3606.5	2721.3
1011.6995	2851.2422	3690.3	2804.05
1011.817	2852.3907	3745.95	2861.65
1011.9345	2853.5385	3814.15	2927.45
1012.052	2854.6857	3864.95	2972.4
1012.1695	2855.8323	3916.5	3032.15
1012.2869	2856.9781	3953.7	3071.85
1012.4042	2858.1233	4005.9	3121.5
1012.5216	2859.2679	4063	3179.2
1012.6389	2860.4118	4099.6	3215.2
1012.7561	2861.555	4136.75	3247.85
1012.8733	2862.6976	4181.8	3293.8
1012.9905	2863.8395	4197.55	3313.1
1013.1076	2864.9808	4218	3333.15
1013.2247	2866.1214	4239.85	3358.1
1013.3417	2867.2614	4245.75	3362.7
1013.4587	2868.4007	4241.6	3356.9
1013.5757	2869.5393	4265.7	3379.8
1013.6926	2870.6773	4282.15	3394.45
1013.8095	2871.8146	4287.25	3399.9
1013.9263	2872.9513	4288.3	3400.3
1014.0431	2874.0874	4280.2	3396.85
1014.1599	2875.2227	4273	3387.2
1014.2766	2876.3574	4230.55	3347.5
1014.3933	2877.4915	4215.7	3330.95
1014.51	2878.6249	4196.55	3313.8
1014.6266	2879.7577	4163.6	3278.3
1014.7431	2880.8898	4137.3	3242.15
1014.8596	2882.0212	4110.95	3228.55
1014.9761	2883.152	4114.6	3230.45
1015.0925	2884.2821	4103.35	3220.85
1015.2089	2885.4116	4081.75	3198.35
1015.3253	2886.5405	4070.9	3187.65
1015.4416	2887.6686	4072.9	3185.9
1015.5579	2888.7962	4079.1	3196.65
1015.6741	2889.923	4099.5	3215.75
1015.7903	2891.0493	4108.2	3227.7
1015.9065	2892.1748	4100.6	3217.75
1016.0226	2893.2997	4120.3	3234.3
1016.1387	2894.424	4143.3	3262.2
1016.2547	2895.5476	4138.1	3255.5
1016.3707	2896.6706	4169.95	3288.2
1016.4866	2897.7929	4206.7	3323.65
1016.6025	2898.9145	4241.75	3356.85
1016.7184	2900.0355	4243.35	3359.15
1016.8342	2901.1559	4287.55	3402.05
1016.95	2902.2756	4307.95	3426.45
1017.0658	2903.3946	4354.75	3473.55
1017.1815	2904.513	4389.55	3504.5
1017.2971	2905.6308	4414.45	3531
1017.4127	2906.7479	4418.5	3533.5
1017.5283	2907.8643	4443.7	3560.8
1017.6439	2908.9801	4455.05	3571.3
1017.7594	2910.0953	4434.85	3551.65
1017.8748	2911.2098	4464.85	3578.3
1017.9902	2912.3236	4447.65	3555.3
1018.1056	2913.4368	4442	3557.3
1018.2209	2914.5494	4411.75	3530.7
1018.3362	2915.6613	4373	3485.65
1018.4515	2916.7725	4352.1	3468
1018.5667	2917.8831	4316.25	3432.6
1018.6819	2918.9931	4288.2	3401.5
1018.797	2920.1024	4269.5	3389.1
1018.9121	2921.211	4234.3	3352.65
1019.0271	2922.319	4209.1	3325.4
1019.1421	2923.4264	4192.65	3310.9
1019.2571	2924.5331	4180.7	3298.75
1019.372	2925.6391	4166.1	3284.65
1019.4869	2926.7445	4162.3	3279.15
1019.6017	2927.8493	4128.45	3246.3
1019.7165	2928.9534	4148.6	3267.55
1019.8313	2930.0569	4122.65	3235.8
1019.946	2931.1597	4112.3	3228.85
1020.0606	2932.2619	4100.5	3219.3
1020.1753	2933.3634	4085.3	3202.2
1020.2899	2934.4643	4089.5	3199
1020.4044	2935.5645	4062	3172.35
1020.5189	2936.6641	4021.4	3132.8
1020.6334	2937.763	3972.35	3089.7
1020.7478	2938.8613	3917	3034.65
1020.8622	2939.959	3854.45	2968.9
1020.9765	2941.056	3775.35	2894.5
1021.0908	2942.1523	3690.25	2806.3
1021.2051	2943.248	3598.6	2718.1
1021.3193	2944.3431	3506.85	2623.4
1021.4334	2945.4375	3404.25	2521.15
1021.5476	2946.5313	3306.55	2424.65
1021.6617	2947.6244	3188.5	2306.75
1021.7757	2948.7169	3072.3	2189.05
1021.8897	2949.8087	2991.1	2107.85
1022.0037	2950.8999	2899.3	2016.8
1022.1176	2951.9904	2809.75	1927.55
1022.2315	2953.0803	2733.15	1848.8
1022.3453	2954.1696	2686.15	1805.5
1022.4591	2955.2582	2628.25	1747.2
1022.5728	2956.3462	2578.1	1696
1022.6865	2957.4335	2538.7	1654.45
1022.8002	2958.5202	2502.2	1617.1
1022.9138	2959.6062	2462.5	1580.35
1023.0274	2960.6916	2446.05	1564.9
1023.141	2961.7764	2430.2	1546.65
1023.2545	2962.8605	2406.95	1522.6
1023.3679	2963.9439	2389.65	1507.35
1023.4813	2965.0267	2380.45	1496.9
1023.5947	2966.1089	2396.9	1490.9
1023.708	2967.1905	2369.25	1488.45
1023.8213	2968.2714	2367.4	1485.5
1023.9346	2969.3516	2356.75	1474.5
1024.0478	2970.4312	2360	1471.55
1024.1609	2971.5102	2355.85	1473.1
1024.274	2972.5885	2353.95	1473.7
1024.3871	2973.6662	2350.75	1465.75
1024.5002	2974.7432	2348.75	1468.65
1024.6132	2975.8196	2335.95	1452.55
1024.7261	2976.8954	2319.7	1438.7
1024.839	2977.9705	2308.1	1426.35
1024.9519	2979.045	2303.9	1422
1025.0647	2980.1188	2281	1398.2
1025.1775	2981.192	2254.1	1373.45
1025.2902	2982.2645	2238.35	1353.95
1025.4029	2983.3364	2204.4	1322.3
1025.5156	2984.4077	2175.55	1293.35
1025.6282	2985.4783	2153.2	1265.65
1025.7407	2986.5483	2106.6	1225.7
1025.8532	2987.6177	2075	1194.1
1025.9657	2988.6864	2041.5	1158.85
1026.0782	2989.7545	2014.1	1131.85
1026.1906	2990.8219	1974.45	1093.6
1026.3029	2991.8887	1944.75	1062.1
1026.4152	2992.9548	1905.35	1023
1026.5275	2994.0204	1876.4	995.45
1026.6397	2995.0852	1839.3	959.1
1026.7519	2996.1495	1821.85	935.95
1026.864	2997.2131	1799.5	918.65
1026.9761	2998.276	1765.8	885.6
1027.0882	2999.3383	1751.75	867.2
1027.2002	3000.4	1732.7	850.8
1027.3122	3001.4611	1715.7	834.45
1027.4241	3002.5215	1699.75	819.1
1027.536	3003.5812	1683.65	803.4
1027.6478	3004.6404	1668.05	788.25
1027.7596	3005.6989	1670.85	786.4
1027.8714	3006.7567	1656.05	775.35
1027.9831	3007.8139	1655.1	756.05
1028.0947	3008.8705	1635.6	755.2
1028.2064	3009.9264	1647.15	748.6
1028.3179	3010.9818	1625.8	742.4
1028.4295	3012.0364	1622	740.55
1028.541	3013.0905	1613.55	731.3
1028.6524	3014.1439	1611.5	729.75
1028.7638	3015.1966	1609.7	727
1028.8752	3016.2487	1619.5	738.6
1028.9865	3017.3002	1622.85	735.85
1029.0978	3018.3511	1601.95	723.4
1029.209	3019.4013	1615.15	733.35
1029.3202	3020.4509	1604.05	723.85
1029.4314	3021.4998	1615.05	732.1
1029.5425	3022.5481	1603.8	721.65
1029.6535	3023.5958	1608.4	726.5
1029.7645	3024.6428	1609.75	727.6
1029.8755	3025.6892	1610.1	728.95
1029.9864	3026.735	1620.05	738.2
1030.0973	3027.7802	1612.8	729.6
1030.2082	3028.8247	1620.6	738.45
1030.319	3029.8685	1612.2	731.65
1030.4297	3030.9118	1615.4	734.8
1030.5404	3031.9544	1627.65	745.65
1030.6511	3032.9963	1628.2	746.5
1030.7617	3034.0376	1619.1	738.4
1030.8723	3035.0783	1642.65	758.65
1030.9829	3036.1184	1635.4	752.5
1031.0934	3037.1578	1637.7	756.5
1031.2038	3038.1966	1636.3	751.15
1031.3142	3039.2348	1635.85	754.85
1031.4246	3040.2723	1644.45	757.25
1031.5349	3041.3092	1630.55	751.8
1031.6452	3042.3455	1616.75	733.65
1031.7554	3043.3811	1626.25	746.95
1031.8656	3044.4161	1619.45	737.25
1031.9758	3045.4505	1607.35	727.6
1032.0859	3046.4842	1601.3	717.4
1032.1959	3047.5173	1591	710.2
1032.3059	3048.5498	1587.8	706.3
1032.4159	3049.5816	1581.5	700.2
1032.5258	3050.6128	1575.1	692.95
1032.6357	3051.6434	1570.05	687.5
1032.7455	3052.6734	1565.95	685.05
1032.8553	3053.7027	1552.5	670.35
1032.9651	3054.7314	1545.45	664.55
1033.0748	3055.7594	1536.8	655.9
1033.1845	3056.7868	1537.65	656.9
1033.2941	3057.8136	1525.2	643.65
1033.4037	3058.8398	1517.2	637.3
1033.5132	3059.8653	1511.6	630.45
1033.6227	3060.8902	1511.25	631.6
1033.7321	3061.9145	1498.75	615.6
1033.8415	3062.9381	1485.45	605.95
1033.9509	3063.9612	1500.05	602.25
1034.0602	3064.9835	1480.4	600.05
1034.1694	3066.0053	1473.2	591.35
1034.2787	3067.0264	1460.85	583.25
1034.3878	3068.0469	1453	570.35
1034.497	3069.0668	1454.5	572.1
1034.6061	3070.086	1435.5	556
1034.7151	3071.1046	1429.6	545.65
1034.8241	3072.1226	1423.05	541.9
1034.9331	3073.1399	1412.3	532.75
1035.042	3074.1567	1397.6	516.5
1035.1508	3075.1727	1392.1	511.1
1035.2597	3076.1882	1377.5	497.5
1035.3684	3077.203	1364.85	486.9
1035.4772	3078.2173	1355.2	473.05
1035.5859	3079.2308	1348.35	465.6
1035.6945	3080.2438	1350.15	468.05
1035.8031	3081.2561	1342.45	461.75
1035.9117	3082.2678	1325.15	445.8
1036.0202	3083.2789	1317	434.8
1036.1286	3084.2893	1307.75	427.75
1036.2371	3085.2991	1307.25	425.6
1036.3454	3086.3083	1304.85	419.1
1036.4538	3087.3169	1295.25	415.1
1036.562	3088.3248	1291.3	408.8
1036.6703	3089.3321	1284.95	403.6
1036.7785	3090.3388	1277.7	397.05
1036.8866	3091.3449	1266.95	386
1036.9948	3092.3503	1267.95	384.45
1037.1028	3093.3551	1262.5	382.9
1037.2108	3094.3593	1262.05	384.95
1037.3188	3095.3629	1257.6	377.7
1037.4267	3096.3658	1252.75	374.45
1037.5346	3097.3681	1247.55	368
1037.6425	3098.3698	1247.95	364.1
1037.7503	3099.3708	1246.95	359.45
1037.858	3100.3713	1236.25	356.15
1037.9657	3101.3711	1233.7	352.65
1038.0734	3102.3702	1360.1	343.5
1038.181	3103.3688	1234.6	350.5
1038.2886	3104.3667	1222.7	344.05
1038.3961	3105.364	1218.75	339.4
1038.5036	3106.3607	1222.4	342.2
1038.611	3107.3568	1216.05	334.1
1038.7184	3108.3522	1219.15	340.1
1038.8257	3109.347	1211.75	330.85
1038.933	3110.3412	1217.65	331.9
1039.0403	3111.3348	1205.15	323.5
1039.1475	3112.3277	1201.3	321.55
1039.2547	3113.32	1198.3	319.55
1039.3618	3114.3117	1199.35	318.45
1039.4689	3115.3028	1194.25	315
1039.5759	3116.2932	1201.95	319.25
1039.6829	3117.2831	1201.65	315.65
1039.7898	3118.2723	1192.45	311.35
1039.8967	3119.2608	1185.85	306.2
1040.0035	3120.2488	1186.6	307.3
1040.1103	3121.2361	1185.6	305.5
1040.2171	3122.2229	1180.95	301.7
1040.3238	3123.209	1183.35	302.95
1040.4305	3124.1944	1178.55	298.6
1040.5371	3125.1793	1181.4	300.8
1040.6437	3126.1635	1178.9	299.9
1040.7502	3127.1471	1172.55	294.15
1040.8567	3128.1301	1179.25	298.6
1040.9631	3129.1125	1165.7	284.65
1041.0695	3130.0942	1171	289.25
1041.1759	3131.0753	1176.15	288.3
1041.2822	3132.0558	1166.15	286.2
1041.3884	3133.0357	1159.95	280
1041.4946	3134.015	1156.8	276.15
1041.6008	3134.9936	1164.55	283.05
1041.7069	3135.9716	1178.15	277.4
1041.813	3136.949	1158.05	279.2
1041.919	3137.9258	1168.1	269
1042.025	3138.902	1159.5	273.75
1042.1309	3139.8775	1149.85	269.65
1042.2368	3140.8524	1146.75	266.95
1042.3427	3141.8267	1150.8	270.5
1042.4485	3142.8004	1141.95	262.35
1042.5542	3143.7735	1151.6	266.85
1042.6599	3144.7459	1142.75	261.8
1042.7656	3145.7178	1138.25	258.65
1042.8712	3146.689	1133.05	255.9
1042.9768	3147.6596	1139.5	255.5
1043.0823	3148.6295	1135.05	254.55
1043.1878	3149.5989	1136.1	255.95
1043.2932	3150.5676	1134.2	255.95
1043.3986	3151.5357	1126.7	245.6
1043.5039	3152.5032	1129	250.65
1043.6092	3153.4701	1129.9	248.65
1043.7145	3154.4364	1129	249.9
1043.8197	3155.402	1127	249.45
1043.9248	3156.367	1128.4	247.35
1044.03	3157.3315	1147.25	241.8
1044.135	3158.2952	1116.3	235.95
1044.24	3159.2584	1119.25	241.15
1044.345	3160.221	1108.6	226.85
1044.4499	3161.1829	1110.95	233.25
1044.5548	3162.1442	1111.5	232.9
1044.6596	3163.105	1107.8	229.25
1044.7644	3164.065	1110.05	229.6
1044.8692	3165.0245	1108.65	227
1044.9739	3165.9834	1104.65	227.95
1045.0785	3166.9416	1103	223.9
1045.1831	3167.8993	1103.2	221.75
1045.2877	3168.8563	1106.15	226.3
1045.3922	3169.8127	1099.8	221.65
1045.4966	3170.7684	1097.85	218.25
1045.6011	3171.7236	1100.65	220.2
1045.7054	3172.6782	1097.8	218.55
1045.8098	3173.6321	1094.65	214.5
1045.914	3174.5854	1095.15	208.95
1046.0183	3175.5381	1092.4	215.2
1046.1224	3176.4902	1095.1	216.4
1046.2266	3177.4417	1088.85	211
1046.3307	3178.3926	1088.3	209.2
1046.4347	3179.3428	1089.85	211.85
1046.5387	3180.2924	1086.05	207.8
1046.6427	3181.2415	1084.75	207.6
1046.7466	3182.1899	1082.55	199.85
1046.8504	3183.1377	1084.65	205.05
1046.9542	3184.0848	1085.5	201.5
1047.058	3185.0314	1081	200
1047.1617	3185.9773	1078.75	199.65
1047.2654	3186.9227	1081.25	200.9
1047.369	3187.8674	1078.35	199.65
1047.4726	3188.8115	1077.65	193.35
1047.5761	3189.755	1075.65	197.5
1047.6796	3190.6979	1076.95	196.85
1047.783	3191.6402	1075.6	196.45
1047.8864	3192.5818	1071.1	191.6
1047.9898	3193.5229	1083.8	189.05
1048.0931	3194.4633	1071.45	191.4
1048.1963	3195.4031	1068.95	190.2
1048.2995	3196.3423	1062.25	181.2
1048.4027	3197.2809	1065.8	186.05
1048.5058	3198.2189	1066.2	186.1
1048.6089	3199.1563	1072.45	187.9
1048.7119	3200.0931	1064.35	185.5
1048.8148	3201.0292	1062.6	184.45
1048.9178	3201.9648	1067.3	188.85
1049.0206	3202.8997	1066.6	185.9
1049.1235	3203.834	1062.5	182.1
1049.2262	3204.7677	1058.15	177.65
1049.329	3205.7008	1054.8	174
1049.4317	3206.6333	1057.35	179.65
1049.5343	3207.5652	1057.25	174.15
1049.6369	3208.4964	1052.35	172.75
1049.7394	3209.4271	1053.15	172.85
1049.8419	3210.3571	1054.95	175.7
1049.9444	3211.2865	1057.35	175.55
1050.0468	3212.2154	1057.4	178.7
1050.1491	3213.1436	1058.75	175.3
1050.2514	3214.0712	1057.3	172.65
1050.3537	3214.9982	1045.4	164.3
1050.4559	3215.9246	1046.3	163.35
1050.5581	3216.8503	1054.2	177.15
1050.6602	3217.7755	1045.5	165.55
1050.7623	3218.7001	1045.85	165.7
1050.8643	3219.624	1042.35	162.1
1050.9663	3220.5473	1042.6	165.25
1051.0682	3221.4701	1046.9	165.25
1051.1701	3222.3922	1042	160.85
1051.2719	3223.3137	1044.9	165.55
1051.3737	3224.2346	1042.95	164.35
1051.4754	3225.1549	1038.25	158.1
1051.5771	3226.0746	1041.75	163.4
1051.6788	3226.9937	1040.4	160.75
1051.7804	3227.9121	1036.35	159.55
1051.8819	3228.83	1038.55	159.45
1051.9834	3229.7473	1042.3	165.9
1052.0849	3230.6639	1031.15	154.15
1052.1863	3231.5799	1031.15	153.65
1052.2876	3232.4954	1036.1	156.75
1052.3889	3233.4102	1034	156.25
1052.4902	3234.3244	1035.05	154.35
1052.5914	3235.238	1028	147.45
1052.6926	3236.151	1051	143.2
1052.7937	3237.0634	1029.7	151.5
1052.8948	3237.9752	1024.85	145.8
1052.9958	3238.8864	1029.45	151.05
1053.0968	3239.797	1025.2	146.65
1053.1977	3240.7069	1027.65	146.4
1053.2986	3241.6163	1030.05	150.2
1053.3994	3242.5251	1021.3	143.1
1053.5002	3243.4332	1023	145.35
1053.6009	3244.3408	1022.85	142.65
1053.7016	3245.2477	1022.75	143.15
1053.8022	3246.154	1022.7	143.3
1053.9028	3247.0598	1020.35	141.35
1054.0034	3247.9649	1015.25	135.3
1054.1039	3248.8694	1017.9	139.45
1054.2043	3249.7733	1016.5	138.55
1054.3047	3250.6766	1017.25	137.35
1054.4051	3251.5793	1015.15	134.85
1054.5054	3252.4814	1011.9	133.8
1054.6056	3253.3829	1014.15	136
1054.7058	3254.2838	1011.8	132.7
1054.806	3255.1841	1010.4	130.95
1054.9061	3256.0838	1011.2	133.85
1055.0061	3256.9829	1009.6	131.4
1055.1062	3257.8814	1007.25	125.35
1055.2061	3258.7792	1007.95	128.15
1055.306	3259.6765	1004.8	124.6
1055.4059	3260.5731	1002.85	123.15
1055.5057	3261.4692	1001.85	121.05
1055.6055	3262.3647	999.2	120.2
1055.7052	3263.2595	996.5	118.5
1055.8049	3264.1538	995.9	117.4
1055.9045	3265.0474	996.55	117.65
1056.0041	3265.9404	989.95	110.55
1056.1036	3266.8329	990.6	113.1
1056.2031	3267.7247	996.5	107.55
1056.3025	3268.616	987.2	109.3
1056.4019	3269.5066	982.55	102.85
1056.5013	3270.3966	982.1	101.55
1056.6005	3271.286	977.35	99.8
