Software Version:	3.9.2.0
Unit SN:	10000200
Spectrometer SN:	6960
Date:	3/26/2024 1:40:17 PM
Data Line Index:	25
Spectral Points:	2048
Integration time (ms):	125
Averages:	20
Delay (ms):	30000
Sequence Number:	1
Processing:	dark subtract
Laser Power (mW):	305
Laser Current (mA):	821
Laser Diode Temp (C):	25
Laser Case Temp (C):	27.1
System Temp (C):	27.1
Spectrometer Temp (C):	24.9
CCD Temp (C):	-0.006
Secondary Temp (C):	20.008
Heatsink Temp (C):	22.613
CCDPCB Temp (C):	36.674
SecondaryPCB Temp (C):	34.15

Wavelength	RamanShift	Raw Counts	Dark Subtracted
787.061	30.1047	606.15	195.45
787.2016	32.3739	618.95	210.7
787.3422	34.6426	630.1	221.7
787.4828	36.9109	643.6	232.5
787.6235	39.1787	665	251.65
787.7642	41.4461	684.95	265.55
787.9049	43.7131	703.65	281.65
788.0456	45.9796	724.15	297.45
788.1863	48.2456	747.85	317.8
788.3271	50.5112	770.1	334.1
788.4679	52.7764	787.9	351.4
788.6087	55.0411	815.8	375.55
788.7496	57.3054	846.6	402.35
788.8904	59.5692	871.3	419.7
789.0313	61.8326	902.25	448.75
789.1722	64.0955	932.35	475.3
789.3132	66.3579	979.9	516.45
789.4541	68.6199	1025.75	560.85
789.5951	70.8815	1115.25	647.95
789.7361	73.1426	1302.2	830.85
789.8771	75.4032	1765.35	1285.75
790.0181	77.6634	2924	2437.55
790.1592	79.9231	5790.2	5295.6
790.3003	82.1824	12332.55	11824.75
790.4414	84.4412	26372.55	25836
790.5825	86.6995	48964.65	48385.6
790.7237	88.9574	58876.9	58266.75
790.8648	91.2148	62148.15	61511.75
791.006	93.4717	62735.9	62082.3
791.1472	95.7282	62948.1	62285.45
791.2885	97.9842	63057.55	62392.5
791.4297	100.2398	62979.75	62313.1
791.571	102.4949	62926.55	62255.4
791.7123	104.7495	62877.15	62201.8
791.8536	107.0036	62733.8	62058.05
791.9949	109.2573	62788.25	62116.75
792.1363	111.5105	62635.75	61958.8
792.2777	113.7632	62623.15	61942.4
792.4191	116.0154	62630.25	61936
792.5605	118.2672	62692.9	62006.35
792.7019	120.5185	62692.1	62007.15
792.8434	122.7693	62634.85	61947.6
792.9849	125.0197	62458.85	61767.6
793.1264	127.2696	62761.2	62065.75
793.2679	129.519	62662.05	61964.2
793.4094	131.7679	62765.25	62062.8
793.551	134.0163	62451.3	61747.7
793.6926	136.2642	62526.85	61818.2
793.8342	138.5117	62696.85	61975.8
793.9758	140.7587	62596.4	61885.25
794.1175	143.0052	62543.8	61824.85
794.2591	145.2512	62343	61628.25
794.4008	147.4967	62529.6	61816.55
794.5425	149.7417	62456.4	61737.55
794.6842	151.9863	62440.35	61720.2
794.826	154.2304	62320.15	61598.75
794.9677	156.4739	62383.45	61651.2
795.1095	158.717	62505.15	61772.4
795.2513	160.9596	62382.75	61650.05
795.3931	163.2017	62196.5	61460.1
795.535	165.4433	62344.65	61604.1
795.6768	167.6844	62226.8	61484.5
795.8187	169.925	62275.1	61535.7
795.9606	172.1651	62123.3	61376.95
796.1025	174.4047	62159.85	61412
796.2445	176.6439	62102.95	61354.85
796.3864	178.8825	62013.65	61263
796.5284	181.1206	62189.3	61434.4
796.6704	183.3582	62150.25	61387.6
796.8124	185.5954	62043.85	61280.15
796.9544	187.832	62058.05	61291.7
797.0965	190.0681	61947.7	61177.6
797.2386	192.3037	62132.15	61360.4
797.3806	194.5388	62345.35	61568.85
797.5228	196.7734	61805.7	61029
797.6649	199.0075	62307.85	61523.5
797.807	201.2411	62133.1	61348.85
797.9492	203.4742	62406.1	61621.9
798.0914	205.7068	62328.5	61540.45
798.2336	207.9389	62317.75	61526.7
798.3758	210.1704	62304	61516
798.518	212.4015	62504.25	61713.2
798.6603	214.632	62286.4	61489.05
798.8025	216.862	62535.95	61749.4
798.9448	219.0915	62416.9	61634.55
799.0871	221.3205	62408.55	61629.85
799.2294	223.549	62604.45	61836.75
799.3718	225.777	62579.95	61804.75
799.5141	228.0044	62690.35	61916.2
799.6565	230.2314	62623.6	61855.25
799.7989	232.4578	62631.85	61864.95
799.9413	234.6837	62684.1	61910.3
800.0837	236.909	62963.2	62184.65
800.2262	239.1339	62514.15	61714.5
800.3687	241.3582	62722.1	61928.55
800.5111	243.582	62729.6	61906.45
800.6536	245.8053	62693.8	61884.45
800.7961	248.0281	62703.6	61903.05
800.9387	250.2503	62756.8	61946.15
801.0812	252.472	62614.8	61801.95
801.2238	254.6932	62723.15	61906.55
801.3664	256.9139	62682.1	61866
801.509	259.134	62957.8	62135.75
801.6516	261.3536	62683.55	61861.15
801.7942	263.5727	62862.6	62033
801.9369	265.7912	62766.65	61946.35
802.0795	268.0092	62834.1	62011.9
802.2222	270.2267	62860.2	62039.25
802.3649	272.4436	62725.8	61900.45
802.5076	274.6601	62847.5	62015.1
802.6504	276.8759	62910.35	62087.65
802.7931	279.0913	62830.8	62001.35
802.9359	281.3061	62821.85	61988.7
803.0787	283.5204	62832.2	61999.6
803.2215	285.7341	62822.25	61987.95
803.3643	287.9473	62961.95	62113.4
803.5071	290.16	62863.05	62018.75
803.6499	292.3721	62922.75	62084.15
803.7928	294.5837	62841.25	62000
803.9357	296.7947	62779.5	61937.05
804.0786	299.0052	62998.05	62156.25
804.2215	301.2152	62891.5	62050.4
804.3644	303.4246	62963.2	62128.2
804.5074	305.6334	62911.55	62077.75
804.6503	307.8418	62713.35	61872.55
804.7933	310.0495	62697.9	61857.8
804.9363	312.2568	62658.65	61813.8
805.0793	314.4635	62609.7	61765.8
805.2223	316.6696	62655.3	61808.15
805.3653	318.8752	62731.9	61881.75
805.5084	321.0802	62416.5	61571.8
805.6514	323.2847	62560.95	61709
805.7945	325.4887	62560.55	61712.7
805.9376	327.692	62472.35	61619.65
806.0807	329.8949	62567.55	61716.5
806.2238	332.0972	62473.7	61622.25
806.367	334.2989	62512.3	61658.1
806.5101	336.5001	62582.85	61725.1
806.6533	338.7007	62280.1	61425.95
806.7965	340.9008	62411.7	61554.1
806.9397	343.1003	62445.3	61586.15
807.0829	345.2992	62528.15	61670.25
807.2261	347.4976	62366.9	61509.4
807.3693	349.6955	62404.65	61542.45
807.5126	351.8927	62295.85	61430.5
807.6559	354.0895	62402.35	61523.5
807.7991	356.2856	62402.25	61533.3
807.9424	358.4812	62501.65	61631.5
808.0857	360.6763	62285.45	61416.05
808.2291	362.8707	62471.95	61601.5
808.3724	365.0646	62351.85	61476.2
808.5158	367.258	62363.3	61493.25
808.6591	369.4508	62236.15	61361
808.8025	371.643	62444.35	61567.25
808.9459	373.8346	62355.2	61478.15
809.0893	376.0257	62373.95	61493.5
809.2327	378.2162	62329.9	61452.25
809.3762	380.4062	62156.05	61273.65
809.5196	382.5956	62258.2	61375.55
809.6631	384.7844	62246.75	61363.35
809.8066	386.9726	62294.3	61409.8
809.9501	389.1603	62283.95	61397.95
810.0936	391.3474	62137.05	61208.5
810.2371	393.5339	62276.25	61390.1
810.3806	395.7199	62063.4	61185.95
810.5241	397.9052	62100.5	61227
810.6677	400.09	62151.65	61279.15
810.8113	402.2743	62255.6	61381.05
810.9548	404.4579	62140.05	61266.5
811.0984	406.641	62159.2	61286.9
811.2421	408.8235	62273.25	61400.55
811.3857	411.0054	62293.15	61421.4
811.5293	413.1868	62327.65	61450.4
811.673	415.3675	62282.05	61400.15
811.8166	417.5477	62279.05	61399.3
811.9603	419.7273	62279.65	61397.75
812.104	421.9064	62241.3	61353.55
812.2477	424.0848	62265.1	61377.3
812.3914	426.2627	62344.05	61458.2
812.5351	428.4399	62109.6	61220.5
812.6788	430.6166	61957.9	61062.45
812.8226	432.7928	62090.7	61195.8
812.9663	434.9683	61902.15	61012.25
813.1101	437.1432	61864.85	60977.6
813.2539	439.3176	61971.95	61087.5
813.3977	441.4914	61753.65	60869.8
813.5415	443.6645	61792.55	60905.45
813.6853	445.8371	61790.45	60895
813.8291	448.0091	61659.45	60766.25
813.973	450.1806	61631.75	60743.8
814.1168	452.3514	61661.05	60772.35
814.2607	454.5216	61530.3	60633.2
814.4046	456.6913	61639.85	60749.95
814.5485	458.8603	61668.5	60776.5
814.6924	461.0288	61486.1	60600.2
814.8363	463.1967	61657.3	60772.3
814.9802	465.3639	61649.4	60760.25
815.1241	467.5306	61339	60449.2
815.2681	469.6967	61523.65	60633.8
815.412	471.8622	61612.4	60723.05
815.556	474.0271	61530.85	60639.3
815.7	476.1914	61550.7	60652.9
815.844	478.3551	61556.15	60659.4
815.988	480.5182	61726.75	60836.35
816.132	482.6807	61488.1	60600.6
816.276	484.8426	61543.05	60663.7
816.4201	487.0039	61799.05	60909.7
816.5641	489.1647	61818.75	60924.05
816.7082	491.3248	61623.75	60728.05
816.8522	493.4843	61861.85	60971.95
816.9963	495.6432	61877.6	60986.35
817.1404	497.8015	61608.75	60704.65
817.2845	499.9592	61743.55	60837.2
817.4286	502.1163	61711.8	60809.15
817.5727	504.2728	61630.2	60731.5
817.7168	506.4287	61598.9	60713
817.861	508.5839	61404.5	60515.45
818.0051	510.7386	61474.2	60580.25
818.1493	512.8927	61502.6	60601.45
818.2935	515.0461	61426.15	60525.75
818.4377	517.199	61575.2	60673.05
818.5818	519.3512	61450.1	60548.35
818.726	521.5029	61485.95	60582
818.8703	523.6539	61543.75	60642.45
819.0145	525.8043	61325.55	60423.65
819.1587	527.9541	61519.9	60608.65
819.303	530.1033	61474.65	60571.05
819.4472	532.2519	61341.4	60439.8
819.5915	534.3999	61487.55	60580.1
819.7357	536.5472	61580.5	60675
819.88	538.694	61321.7	60424
820.0243	540.8401	61568.2	60661.8
820.1686	542.9856	61600.3	60685.35
820.3129	545.1305	61659.5	60739.45
820.4572	547.2748	61487.35	60564.95
820.6016	549.4185	61444.5	60519.3
820.7459	551.5615	61556.1	60635.3
820.8902	553.704	61508.75	60586.55
821.0346	555.8458	61406.2	60491.4
821.1789	557.987	61494	60579.2
821.3233	560.1276	61552.2	60635.05
821.4677	562.2675	61535.45	60617.3
821.6121	564.4069	61612.15	60695.6
821.7565	566.5456	61704.15	60786.9
821.9009	568.6837	61516.55	60607.15
822.0453	570.8212	61542.9	60629.8
822.1897	572.958	61198.2	60285.05
822.3342	575.0942	61363.25	60457
822.4786	577.2299	61127.55	60223.7
822.6231	579.3648	61051.05	60155.45
822.7675	581.4992	61010.7	60122.3
822.912	583.6329	61016.85	60128.65
823.0565	585.766	61014.5	60122.55
823.201	587.8985	61111.15	60214.65
823.3454	590.0304	60819.3	59886.75
823.4899	592.1616	60999.55	60084.4
823.6345	594.2922	60865.6	59946.7
823.779	596.4222	60703.15	59786.1
823.9235	598.5515	60725.95	59803.9
824.068	600.6802	60808.2	59888.7
824.2126	602.8083	60500.55	59586.85
824.3571	604.9358	60487	59567.65
824.5017	607.0626	60692.9	59768.8
824.6462	609.1888	60341.1	59412.3
824.7908	611.3144	60583.35	59653
824.9354	613.4393	60507.25	59580.9
825.08	615.5636	60312	59385.3
825.2246	617.6873	60489.55	59565.1
825.3692	619.8103	60244.95	59322.05
825.5138	621.9327	60461.65	59540.65
825.6584	624.0544	60429.45	59512.1
825.803	626.1756	60270.2	59351.7
825.9477	628.2961	60243.9	59323.45
826.0923	630.4159	60105.25	59184.3
826.237	632.5351	60014.45	59090.95
826.3816	634.6537	60441.1	59516.7
826.5263	636.7716	59973.95	59042.65
826.6709	638.8889	60111.15	59178.15
826.8156	641.0056	60072.05	59141.05
826.9603	643.1216	60095.45	59164.35
827.105	645.237	60198.1	59268.55
827.2497	647.3518	59917.75	58994.95
827.3944	649.4659	60011.55	59096.75
827.5391	651.5793	59980.35	59063.95
827.6838	653.6922	60048.35	59128.55
827.8285	655.8043	59703.3	58784.9
827.9733	657.9159	60149.25	59229.35
828.118	660.0268	59415.05	58491.35
828.2627	662.137	59812.25	58887.25
828.4075	664.2466	59865.15	58932.15
828.5522	666.3556	59739.35	58807.25
828.697	668.4639	59802.25	58876.6
828.8418	670.5716	59614.15	58690.8
828.9865	672.6786	59748.35	58821.2
829.1313	674.785	59495.95	58562.45
829.2761	676.8907	59545.65	58615.8
829.4209	678.9958	59616.5	58695.75
829.5657	681.1002	59647.8	58719.5
829.7105	683.204	59393.2	58458.45
829.8553	685.3072	59310.55	58371.7
830.0001	687.4097	59388.9	58457.3
830.1449	689.5115	59299.55	58367.25
830.2898	691.6127	59514.05	58585.55
830.4346	693.7132	59292.6	58365.3
830.5794	695.8131	59329.45	58393.7
830.7243	697.9123	59349.4	58412.1
830.8691	700.0109	59405.7	58468.75
831.014	702.1089	59066.65	58133.45
831.1588	704.2061	59182.2	58251.1
831.3037	706.3028	59208.95	58276.45
831.4486	708.3987	59242.1	58308.75
831.5935	710.4941	59136.3	58203.05
831.7383	712.5887	59294.05	58363.95
831.8832	714.6827	59199.45	58264.35
832.0281	716.7761	59389.15	58460.85
832.173	718.8688	59458.1	58523.85
832.3179	720.9608	59303.05	58362.1
832.4628	723.0522	59347.2	58404.25
832.6077	725.1429	59181.05	58244.55
832.7527	727.233	59612.95	58678.2
832.8976	729.3224	58918.45	57982.95
833.0425	731.4112	59107	58172.05
833.1874	733.4993	59076.85	58140.3
833.3324	735.5867	59030.45	58096.55
833.4773	737.6735	58806.85	57869.2
833.6222	739.7596	58630.1	57689.6
833.7672	741.845	58560.75	57625.4
833.9122	743.9298	58689.3	57751.5
834.0571	746.014	58460.35	57524.2
834.2021	748.0974	58319.9	57379
834.347	750.1802	58621.6	57681.05
834.492	752.2624	58184.05	57238.9
834.637	754.3439	58243	57300.65
834.782	756.4247	58339.85	57391.95
834.9269	758.5048	58155.9	57215.35
835.0719	760.5843	58334.5	57390.85
835.2169	762.6631	58458.6	57515.6
835.3619	764.7413	58522.55	57584.25
835.5069	766.8188	58731.65	57786.95
835.6519	768.8956	58925.2	57982.5
835.7969	770.9718	59015.95	58072.75
835.9419	773.0473	58891.65	57951.1
836.0869	775.1221	58597.85	57658.55
836.232	777.1962	58523.05	57580.65
836.377	779.2697	58307.5	57364
836.522	781.3426	58420.45	57469.8
836.667	783.4147	58467.75	57524.15
836.8121	785.4862	58396.05	57451.05
836.9571	787.557	58179.35	57233.15
837.1021	789.6271	58230.65	57283.3
837.2472	791.6966	57897.6	56954.4
837.3922	793.7654	57532.15	56590.85
837.5373	795.8335	57422.8	56478.9
837.6823	797.901	57357.9	56419.15
837.8274	799.9678	57195.5	56248.3
837.9724	802.0339	57148.55	56201.1
838.1175	804.0993	57121.75	56163.65
838.2626	806.1641	56977.2	56030.05
838.4076	808.2282	56912.55	55969.35
838.5527	810.2916	56825.85	55882.1
838.6978	812.3544	56892.85	55953.05
838.8428	814.4164	56615.75	55673.15
838.9879	816.4778	56675.05	55726.9
839.133	818.5385	56654.65	55707.55
839.2781	820.5986	56677.1	55730.35
839.4232	822.658	56781	55833.6
839.5682	824.7166	56831.8	55889.55
839.7133	826.7747	56813	55865.95
839.8584	828.832	57020.55	56073.75
840.0035	830.8886	57256.25	56306.25
840.1486	832.9446	57280.6	56332.4
840.2937	834.9999	56798.35	55854.3
840.4388	837.0545	56918.8	55967.55
840.5839	839.1085	56845.4	55899.25
840.729	841.1618	56661.4	55712.5
840.8741	843.2143	56292.95	55346.95
841.0192	845.2662	56164.5	55222.6
841.1643	847.3175	56230.7	55282.75
841.3095	849.368	55734.5	54787.7
841.4546	851.4179	56068.5	55120.5
841.5997	853.467	55678.25	54728.75
841.7448	855.5155	55850.05	54902.25
841.8899	857.5633	55543.8	54599.05
842.0351	859.6105	55362.15	54415.6
842.1802	861.6569	55488.15	54536.2
842.3253	863.7027	55052.8	54100.45
842.4704	865.7478	55148.15	54197.75
842.6156	867.7922	55052.45	54102.35
842.7607	869.8359	55204.55	54252.55
842.9058	871.8789	54792.85	53842.1
843.0509	873.9212	55004.85	54023.5
843.1961	875.9629	55041.6	54091.55
843.3412	878.0039	54997.65	54045.35
843.4863	880.0441	54875.6	53930.6
843.6315	882.0837	54886.55	53937.8
843.7766	884.1226	54905.2	53956.4
843.9218	886.1609	54846.1	53897
844.0669	888.1984	54737	53788.9
844.212	890.2352	55044.75	54096.55
844.3572	892.2714	54600.3	53644.9
844.5023	894.3069	54807	53855.65
844.6475	896.3416	54509.45	53560.65
844.7926	898.3757	54385.5	53431.3
844.9377	900.4091	53862.4	52912.05
845.0829	902.4418	54414.35	53455.55
845.228	904.4739	54016.55	53061.7
845.3732	906.5052	54107.6	53157.15
845.5183	908.5358	53880.65	52929.05
845.6635	910.5658	53681.95	52728.8
845.8086	912.595	53581.3	52631.1
845.9538	914.6236	53018.4	52067.6
846.0989	916.6515	53577.8	52624.45
846.2441	918.6786	52749.8	51795.85
846.3892	920.7051	52971.85	52018.4
846.5344	922.7309	52902.85	51949.9
846.6795	924.756	52918.65	51964.75
846.8246	926.7804	52717.7	51766.35
846.9698	928.8041	52173.55	51222
847.1149	930.8272	52551.35	51600.9
847.2601	932.8495	52478.85	51523.2
847.4052	934.8711	52152.3	51195.7
847.5504	936.892	51842.65	50890.4
847.6955	938.9123	51999.6	51044.95
847.8407	940.9318	51761.7	50810.45
847.9858	942.9506	51671.1	50718.3
848.131	944.9688	51638.75	50688.1
848.2761	946.9862	51018.05	50068.4
848.4213	949.003	51055.85	50100.15
848.5664	951.019	50483.75	49532.25
848.7115	953.0344	50558.35	49606.85
848.8567	955.0491	50450.75	49499.05
849.0018	957.063	50652.65	49701.5
849.147	959.0763	50732.2	49772.35
849.2921	961.0888	50297.25	49346.3
849.4373	963.1007	50536.65	49588.55
849.5824	965.1119	50527.45	49579.65
849.7275	967.1223	50229.95	49293.75
849.8727	969.1321	50483.05	49544.75
850.0178	971.1412	49977.4	49030.2
850.1629	973.1495	49786.75	48838.65
850.3081	975.1572	49958.3	48992.55
850.4532	977.1641	49757.85	48804.75
850.5983	979.1704	49575.55	48625.7
850.7435	981.1759	49571.2	48616.55
850.8886	983.1808	49311.65	48358
851.0337	985.1849	49249.75	48289
851.1788	987.1884	49298.8	48345.3
851.324	989.1911	49488.45	48538.7
851.4691	991.1932	48964.2	48013.65
851.6142	993.1945	49004.3	48057.65
851.7593	995.1951	48990.85	48039
851.9045	997.1951	48695.9	47741.1
852.0496	999.1943	48462.6	47514.5
852.1947	1001.1928	48341.4	47387.45
852.3398	1003.1906	48401.35	47449.35
852.4849	1005.1877	48113.55	47160.55
852.63	1007.1841	47939.9	46988.9
852.7751	1009.1798	47815	46868.65
852.9202	1011.1748	47712.5	46762.5
853.0653	1013.1691	47582.55	46631.15
853.2104	1015.1627	46877.05	45923.85
853.3555	1017.1556	46639.95	45691.8
853.5006	1019.1477	46643	45694.25
853.6457	1021.1392	46174.15	45231.35
853.7908	1023.1299	45746.65	44806.35
853.9359	1025.12	45889.45	44954.9
854.081	1027.1093	45632.85	44705.85
854.2261	1029.0979	45625.65	44701.7
854.3712	1031.0859	45559.7	44630.4
854.5163	1033.0731	45223.7	44284.5
854.6613	1035.0596	45206.95	44263.35
854.8064	1037.0454	44965.6	44019.45
854.9515	1039.0304	44692.25	43745.3
855.0965	1041.0148	44373.75	43425.35
855.2416	1042.9985	44212.5	43262.9
855.3867	1044.9814	44268.9	43323
855.5317	1046.9636	43907.5	42960.8
855.6768	1048.9452	43769.4	42821.35
855.8219	1050.926	43772.1	42826.95
855.9669	1052.9061	43685.8	42738.2
856.112	1054.8855	43646	42697.6
856.257	1056.8642	43486.65	42539.05
856.4021	1058.8421	43430.8	42476.1
856.5471	1060.8194	43318.55	42369.9
856.6921	1062.7959	43277.15	42331.3
856.8372	1064.7717	43290.25	42340.95
856.9822	1066.7469	43158.7	42208.4
857.1272	1068.7213	43195.4	42243.5
857.2723	1070.695	43112.15	42164.8
857.4173	1072.6679	42906.9	41956.6
857.5623	1074.6402	42947.3	42002.3
857.7073	1076.6117	42799.05	41843.75
857.8523	1078.5826	42662.8	41714.85
857.9973	1080.5527	42442.75	41492.7
858.1423	1082.5221	42274.25	41327.65
858.2873	1084.4908	42227.85	41281.55
858.4323	1086.4587	42166.4	41214.8
858.5773	1088.426	42121.9	41172.75
858.7223	1090.3925	42011.7	41057.85
858.8673	1092.3584	41959.65	41013.85
859.0123	1094.3235	41722.8	40778
859.1573	1096.2879	41653.6	40706.45
859.3022	1098.2515	41699.6	40751.75
859.4472	1100.2145	41745.75	40802.05
859.5922	1102.1767	41716.75	40766.6
859.7371	1104.1382	41820.8	40873.2
859.8821	1106.099	41935.5	40987.35
860.027	1108.0591	41973.05	41025.7
860.172	1110.0185	41943.15	40997.8
860.3169	1111.9771	42026.3	41079.85
860.4619	1113.9351	41738.55	40789.65
860.6068	1115.8923	41475.55	40530
860.7517	1117.8488	41220.9	40273.5
860.8967	1119.8045	40862.7	39920.35
861.0416	1121.7596	40725.05	39778.65
861.1865	1123.7139	40448.8	39504.25
861.3314	1125.6675	40391.4	39450.7
861.4763	1127.6204	40469.75	39525.8
861.6212	1129.5726	40254.7	39309.15
861.7661	1131.524	40150.2	39205.9
861.911	1133.4748	39984.15	39038
862.0559	1135.4248	39704.4	38759.3
862.2008	1137.3741	39603.05	38656.4
862.3457	1139.3226	39393.95	38452.3
862.4905	1141.2705	39318	38374.05
862.6354	1143.2176	39039.9	38088.1
862.7803	1145.164	38944.1	37995.75
862.9251	1147.1097	38857.15	37911
863.07	1149.0546	38713.05	37767.85
863.2148	1150.9989	38579.3	37632.75
863.3597	1152.9424	38467.95	37523.6
863.5045	1154.8852	38299.55	37354.35
863.6493	1156.8272	38203.6	37257.7
863.7942	1158.7686	38198.5	37243.65
863.939	1160.7092	38000.25	37051.3
864.0838	1162.6491	37850	36899
864.2286	1164.5883	37969.3	37026.55
864.3734	1166.5267	37913.55	36967.5
864.5182	1168.4644	38056.7	37112.4
864.663	1170.4014	38111.7	37165.25
864.8078	1172.3377	38318.5	37374.4
864.9526	1174.2732	38458.6	37517.45
865.0974	1176.2081	38707.95	37763.75
865.2421	1178.1421	39029.75	38086
865.3869	1180.0755	39338.8	38396.05
865.5317	1182.0082	39460.5	38518.6
865.6764	1183.9401	39538.4	38596.3
865.8212	1185.8713	39309.35	38372.8
865.9659	1187.8017	38996.15	38062.05
866.1106	1189.7315	38646.25	37722.65
866.2554	1191.6605	38089.9	37163.8
866.4001	1193.5888	37758.35	36828.65
866.5448	1195.5163	37589	36652.3
866.6895	1197.4432	37428.25	36487.55
866.8342	1199.3693	37232.55	36292.2
866.9789	1201.2947	37101.45	36154.25
867.1236	1203.2193	36937	35996.9
867.2683	1205.1432	36870.05	35927.75
867.413	1207.0664	36778.5	35838.5
867.5576	1208.9889	36660.9	35717.5
867.7023	1210.9106	36519.4	35576.65
867.847	1212.8316	36363.4	35423.9
867.9916	1214.7519	36372.9	35424
868.1363	1216.6715	36309.1	35367.15
868.2809	1218.5903	36295.4	35353.9
868.4255	1220.5084	36283.15	35340.8
868.5701	1222.4257	36286.55	35347.75
868.7148	1224.3424	36139.8	35202.55
868.8594	1226.2583	36151.45	35211.55
869.004	1228.1735	36206	35264.5
869.1486	1230.0879	36104.1	35162.75
869.2932	1232.0016	36156.1	35215.9
869.4377	1233.9146	36205.95	35262.85
869.5823	1235.8269	36128.7	35187.55
869.7269	1237.7384	36028.5	35087.9
869.8715	1239.6492	35781.25	34841.6
870.016	1241.5592	35708.4	34768.25
870.1606	1243.4686	35623.55	34682.35
870.3051	1245.3772	35658	34718.1
870.4496	1247.285	35696	34756.3
870.5941	1249.1922	35733.8	34793.3
870.7387	1251.0986	35751.65	34813.65
870.8832	1253.0042	35718.95	34780.8
871.0277	1254.9092	35734.7	34794.85
871.1722	1256.8134	35668.65	34732.2
871.3167	1258.7169	35772.7	34836.15
871.4611	1260.6196	35780.55	34843
871.6056	1262.5216	36006.25	35068.85
871.7501	1264.4229	36043.45	35106.8
871.8945	1266.3234	36200.75	35260.9
872.039	1268.2232	36214.65	35275.85
872.1834	1270.1223	36200.9	35260.75
872.3278	1272.0207	36131	35190.9
872.4723	1273.9183	36064.7	35119.9
872.6167	1275.8151	35924.25	34989.1
872.7611	1277.7113	35821.2	34883.35
872.9055	1279.6067	35755.2	34818.55
873.0499	1281.5014	35810.6	34869.3
873.1943	1283.3953	36054.1	35113.9
873.3386	1285.2885	36377.1	35439.6
873.483	1287.181	36673.3	35735.6
873.6274	1289.0727	37039.1	36106.35
873.7717	1290.9637	37161.05	36226.8
873.9161	1292.854	37355.2	36418.85
874.0604	1294.7435	37247.65	36309.25
874.2047	1296.6323	37153.65	36216.4
874.349	1298.5204	37064.9	36123.5
874.4933	1300.4077	36866.95	35931.4
874.6376	1302.2943	36645.75	35708.7
874.7819	1304.1802	36451.55	35512.3
874.9262	1306.0653	36007.7	35067.7
875.0705	1307.9497	35554.85	34618.95
875.2147	1309.8333	35168	34231.8
875.359	1311.7162	34898.8	33960.15
875.5032	1313.5984	34740.15	33804.25
875.6475	1315.4798	34573.55	33623.7
875.7917	1317.3605	34482.15	33528.1
875.9359	1319.2405	34335.6	33395
876.0801	1321.1197	34156.65	33215.3
876.2243	1322.9982	33831.05	32892.95
876.3685	1324.876	33638.55	32700.75
876.5127	1326.753	33309.1	32372
876.6569	1328.6293	33213.95	32275.8
876.801	1330.5048	33043.45	32101.9
876.9452	1332.3796	32799.8	31862.45
877.0893	1334.2537	32779	31819.2
877.2335	1336.127	32545.9	31609.15
877.3776	1337.9996	32489.75	31552.2
877.5217	1339.8714	32444.5	31507.7
877.6658	1341.7426	32363.55	31383.05
877.8099	1343.6129	32366.15	31430.9
877.954	1345.4826	32255.75	31317.7
878.0981	1347.3515	32345.6	31404
878.2422	1349.2196	32182.75	31247.55
878.3862	1351.087	32172.15	31237.35
878.5303	1352.9537	32081.65	31143.2
878.6743	1354.8197	32203.55	31263.9
878.8184	1356.6849	32352.55	31415.8
878.9624	1358.5493	32372.8	31433.85
879.1064	1360.4131	32450.25	31517.6
879.2504	1362.276	32515.5	31581.35
879.3944	1364.1383	32435.7	31498.75
879.5384	1365.9998	32192.85	31249.6
879.6823	1367.8606	31840.1	30902.4
879.8263	1369.7206	31491.25	30552.6
879.9702	1371.5799	31138.4	30198.9
880.1142	1373.4384	30848.7	29910.65
880.2581	1375.2962	30615.35	29680.7
880.402	1377.1533	30221.2	29284.5
880.5459	1379.0096	29816.2	28885.25
880.6898	1380.8652	29447.2	28515.2
880.8337	1382.7201	29176.35	28244.5
880.9776	1384.5742	28837.5	27902.55
881.1215	1386.4275	28564.8	27628.55
881.2653	1388.2802	28401.75	27467.15
881.4092	1390.132	28232.4	27294
881.553	1391.9832	28095.2	27158.85
881.6968	1393.8336	27885.15	26946.9
881.8406	1395.6832	27794.05	26855.45
881.9844	1397.5322	27697.85	26759.55
882.1282	1399.3803	27618.15	26677.75
882.272	1401.2278	27467.75	26534.85
882.4158	1403.0745	27353	26419.25
882.5595	1404.9204	27228	26295.9
882.7033	1406.7656	27237.55	26302.75
882.847	1408.6101	27154.1	26218.2
882.9908	1410.4538	27065.3	26129.65
883.1345	1412.2968	27021	26086.2
883.2782	1414.139	26976.45	26041.45
883.4219	1415.9805	26989.95	26055.85
883.5656	1417.8213	26972.3	26019.55
883.7092	1419.6613	26944.1	26011.6
883.8529	1421.5006	27030.6	26097.65
883.9965	1423.3391	27147.45	26211.85
884.1402	1425.1769	27331.7	26396.55
884.2838	1427.0139	27632.15	26698.45
884.4274	1428.8502	28047.2	27108.95
884.571	1430.6858	28433.8	27499.8
884.7146	1432.5206	28689	27756.9
884.8582	1434.3547	28880.2	27947.7
885.0018	1436.188	28867.75	27933.55
885.1453	1438.0206	28762.05	27826.25
885.2889	1439.8524	28520.45	27588.15
885.4324	1441.6835	28399.5	27467.2
885.5759	1443.5139	28291.75	27354.15
885.7194	1445.3435	28112.65	27178.95
885.8629	1447.1724	28041.85	27111.2
886.0064	1449.0005	27990.9	27060.4
886.1499	1450.8279	27861.35	26930.3
886.2933	1452.6545	27811.65	26880.1
886.4368	1454.4804	27832.1	26900.7
886.5802	1456.3056	27782.65	26847.3
886.7237	1458.13	27692.05	26763.25
886.8671	1459.9536	27508	26576.75
887.0105	1461.7766	27238.35	26305.65
887.1539	1463.5987	26950.65	26017.5
887.2972	1465.4202	26607.1	25677.1
887.4406	1467.2409	26224.4	25292.55
887.584	1469.0608	25998.6	25067.55
887.7273	1470.88	25710.85	24779.7
887.8706	1472.6984	25493.45	24564.55
888.0139	1474.5161	25224.2	24290.3
888.1572	1476.3331	25043.55	24112.1
888.3005	1478.1493	24949.35	24017.2
888.4438	1479.9648	24838.45	23909.9
888.5871	1481.7795	24713.5	23783.2
888.7303	1483.5935	24640.15	23708.25
888.8736	1485.4067	24522.1	23591.1
889.0168	1487.2192	24448.25	23517.7
889.16	1489.031	24426.8	23494.25
889.3032	1490.842	24332.5	23401.1
889.4464	1492.6522	24309.55	23380.9
889.5896	1494.4618	24221.6	23290.5
889.7327	1496.2705	24114	23186.2
889.8759	1498.0785	24036.6	23106.85
890.019	1499.8858	23976.2	23047.2
890.1622	1501.6924	23886.75	22959.25
890.3053	1503.4981	23796.25	22865.2
890.4484	1505.3032	23794.55	22864.55
890.5914	1507.1075	23692.55	22765.1
890.7345	1508.911	23633.95	22705.15
890.8776	1510.7138	23542.05	22612.95
891.0206	1512.5159	23429.5	22501.8
891.1637	1514.3172	23379.1	22453.7
891.3067	1516.1178	23243.9	22316.5
891.4497	1517.9176	23245.15	22313.7
891.5927	1519.7166	23123.8	22201
891.7357	1521.515	23065.95	22131.8
891.8786	1523.3126	22959.95	22035.05
892.0216	1525.1094	22869.55	21943.55
892.1645	1526.9055	22782.55	21858.5
892.3074	1528.7008	22751.05	21824.15
892.4503	1530.4954	22598.95	21668.55
892.5932	1532.2893	22552.6	21629.65
892.7361	1534.0824	22451.55	21525.95
892.879	1535.8747	22394.4	21473.1
893.0218	1537.6663	22327.3	21406.75
893.1647	1539.4572	22286.25	21361.3
893.3075	1541.2473	22267.7	21343.15
893.4503	1543.0367	22196.2	21274.9
893.5931	1544.8253	22130.2	21202
893.7359	1546.6132	22114.2	21186.55
893.8787	1548.4003	22032.4	21096.3
894.0214	1550.1867	22033.15	21100.85
894.1642	1551.9723	22036.75	21112.3
894.3069	1553.7572	22106.75	21184.05
894.4496	1555.5414	22094.75	21175.55
894.5923	1557.3247	22181.85	21259.6
894.735	1559.1074	22225	21307.45
894.8777	1560.8893	22261.9	21345.8
895.0204	1562.6705	22354.4	21436.7
895.163	1564.4509	22428.05	21513.7
895.3056	1566.2305	22416	21505.4
895.4482	1568.0094	22501.85	21588.7
895.5908	1569.7876	22471.05	21554.1
895.7334	1571.565	22410.95	21492.55
895.876	1573.3417	22386.2	21467.75
896.0186	1575.1176	22324.95	21408.35
896.1611	1576.8928	22269.35	21355.95
896.3036	1578.6672	22172.35	21263.7
896.4461	1580.4409	22107.65	21201.7
896.5886	1582.2138	22101.55	21186.6
896.7311	1583.986	22050.9	21137.95
896.8736	1585.7575	22078.2	21164
897.0161	1587.5282	22026.6	21117.7
897.1585	1589.2981	22127.6	21219.4
897.3009	1591.0673	22071.7	21163.5
897.4433	1592.8358	22114.35	21204.9
897.5857	1594.6035	22167.05	21254
897.7281	1596.3704	22124.2	21209.55
897.8705	1598.1366	22169.1	21259.55
898.0128	1599.9021	22159.7	21250.25
898.1551	1601.6668	22208.8	21296.25
898.2975	1603.4308	22249.95	21336.55
898.4398	1605.194	22341.6	21424
898.5821	1606.9564	22441.7	21537.25
898.7243	1608.7182	22600.4	21695.6
898.8666	1610.4791	22769.65	21869.5
899.0088	1612.2394	22979.85	22079.1
899.1511	1613.9988	23154.3	22253
899.2933	1615.7576	23377.2	22469.85
899.4355	1617.5156	23539.55	22621.85
899.5776	1619.2728	23626.95	22714
899.7198	1621.0293	23543.3	22632.55
899.862	1622.785	23365.8	22457.1
900.0041	1624.54	23051.05	22144.95
900.1462	1626.2942	22768.95	21863.1
900.2883	1628.0477	22310.85	21402.05
900.4304	1629.8005	22020.9	21111.65
900.5725	1631.5525	21723.45	20817.8
900.7145	1633.3037	21470.65	20565.9
900.8566	1635.0542	21241.8	20336.75
900.9986	1636.804	21055	20150.55
901.1406	1638.553	20936.45	19985
901.2826	1640.3013	20797.8	19891.05
901.4245	1642.0488	20737.25	19831.4
901.5665	1643.7955	20731.35	19829.6
901.7085	1645.5416	20688.3	19784.95
901.8504	1647.2868	20760.95	19857.25
901.9923	1649.0313	20792.35	19886.25
902.1342	1650.7751	20884.15	19976.95
902.2761	1652.5181	20970.8	20068.7
902.4179	1654.2604	21045.7	20142.45
902.5598	1656.0019	21213.1	20309.35
902.7016	1657.7427	21389.85	20485.65
902.8434	1659.4828	21601.6	20695.15
902.9852	1661.222	21655.05	20746.7
903.127	1662.9606	21640	20733.7
903.2687	1664.6984	21406.15	20500.5
903.4105	1666.4354	21057.45	20150
903.5522	1668.1717	20551.15	19640.9
903.6939	1669.9072	20024.05	19115.25
903.8356	1671.642	19609.2	18700.3
903.9773	1673.3761	19230.65	18322.3
904.119	1675.1094	18916.3	18011.55
904.2606	1676.8419	18685.55	17779.6
904.4022	1678.5737	18447.7	17541.25
904.5439	1680.3048	18295.15	17385.75
904.6855	1682.0351	18130.55	17222.65
904.827	1683.7646	17970.05	17058.7
904.9686	1685.4934	17841.4	16939.4
905.1101	1687.2215	17755.9	16851.95
905.2517	1688.9488	17617.8	16714.7
905.3932	1690.6754	17525.95	16621.5
905.5347	1692.4012	17474.2	16569.35
905.6761	1694.1263	17412.4	16505.85
905.8176	1695.8506	17348	16441.25
905.9591	1697.5742	17243.05	16341.8
906.1005	1699.297	17180.8	16280.7
906.2419	1701.0191	17084.15	16183.2
906.3833	1702.7404	16981.1	16082.35
906.5246	1704.461	16878.85	15975.8
906.666	1706.1808	16828.25	15925.35
906.8073	1707.8999	16769.4	15867.7
906.9487	1709.6182	16681.9	15782.1
907.09	1711.3358	16618.8	15723.1
907.2313	1713.0527	16604.65	15709.4
907.3725	1714.7688	16535.4	15630
907.5138	1716.4841	16447.25	15543
907.655	1718.1987	16413.7	15508.65
907.7962	1719.9126	16364.8	15467.5
907.9374	1721.6257	16310.95	15409.1
908.0786	1723.338	16265.15	15367.6
908.2198	1725.0496	16170.45	15270.45
908.3609	1726.7605	16149.4	15248.7
908.502	1728.4706	16096.05	15196.05
908.6431	1730.18	15989.35	15090.8
908.7842	1731.8886	15933.2	15035.15
908.9253	1733.5964	15952.15	15048.05
909.0664	1735.3036	15896.7	14996.2
909.2074	1737.0099	15854.25	14956.75
909.3484	1738.7156	15825.35	14928.35
909.4894	1740.4204	15731.4	14830.15
909.6304	1742.1246	15719.65	14817.45
909.7714	1743.8279	15647.1	14749.1
909.9123	1745.5306	15614.65	14716.9
910.0532	1747.2325	15565.05	14667.65
910.1941	1748.9336	15515.15	14615.45
910.335	1750.634	15426.75	14523.95
910.4759	1752.3336	15434.8	14537.55
910.6168	1754.0325	15391.3	14496.85
910.7576	1755.7307	15348.45	14453.5
910.8984	1757.4281	15316.05	14418.25
911.0392	1759.1247	15293.95	14385.25
911.18	1760.8206	15298.05	14391.35
911.3208	1762.5158	15251.95	14347.3
911.4615	1764.2102	15179.1	14280.9
911.6022	1765.9039	15109.85	14211.95
911.7429	1767.5968	15079.35	14185.3
911.8836	1769.289	15040.35	14144.9
912.0243	1770.9804	15006.65	14108.05
912.1649	1772.6711	15016	14117.1
912.3056	1774.361	14964.3	14063.25
912.4462	1776.0502	14938.8	14038.75
912.5868	1777.7386	14908.1	14006.6
912.7274	1779.4263	14856.7	13957.9
912.8679	1781.1132	14881.15	13986.6
913.0084	1782.7994	14799.7	13903.15
913.149	1784.4849	14764.75	13871.7
913.2895	1786.1696	14694.15	13791.45
913.4299	1787.8535	14672.2	13776.35
913.5704	1789.5367	14638.15	13743.1
913.7108	1791.2192	14631.75	13736.35
913.8513	1792.9009	14572.5	13647.9
913.9917	1794.5818	14564.65	13664.45
914.132	1796.2621	14467.75	13569.2
914.2724	1797.9415	14464.7	13564.3
914.4128	1799.6202	14423.75	13524.65
914.5531	1801.2982	14379.4	13480.1
914.6934	1802.9755	14329	13429.1
914.8337	1804.6519	14332	13432.75
914.9739	1806.3277	14259.35	13361.95
915.1142	1808.0027	14212.05	13318.1
915.2544	1809.6769	14195.2	13301.6
915.3946	1811.3504	14142.6	13247.8
915.5348	1813.0231	14138.05	13244.95
915.675	1814.6951	14106.2	13209.95
915.8151	1816.3664	14092.6	13191.1
915.9553	1818.0369	14068.15	13171.1
916.0954	1819.7067	14034.25	13137.6
916.2355	1821.3757	14028.8	13129.1
916.3755	1823.044	13991.3	13093.2
916.5156	1824.7115	13945.25	13046.85
916.6556	1826.3783	13888.35	12991.55
916.7956	1828.0443	13872.55	12977.2
916.9356	1829.7096	13851.05	12953.7
917.0756	1831.3741	13832.15	12931.25
917.2155	1833.0379	13808.8	12913
917.3555	1834.701	13758.45	12864.2
917.4954	1836.3633	13733.1	12838.1
917.6353	1838.0248	13660.85	12763.1
917.7751	1839.6856	13650.2	12752.7
917.915	1841.3457	13624.25	12728.6
918.0548	1843.005	13607.05	12708.55
918.1946	1844.6636	13591	12695.05
918.3344	1846.3214	13540.2	12643.8
918.4742	1847.9785	13530.05	12631.4
918.6139	1849.6349	13518.1	12619.3
918.7537	1851.2904	13493.1	12583.4
918.8934	1852.9453	13430.5	12530.2
919.0331	1854.5994	13402.15	12500.95
919.1727	1856.2528	13424.7	12522.25
919.3124	1857.9054	13372.85	12475.85
919.452	1859.5572	13344.8	12449.9
919.5916	1861.2083	13320.85	12423.4
919.7312	1862.8587	13328.25	12429.85
919.8708	1864.5084	13301.55	12401.4
920.0103	1866.1572	13263.65	12364.05
920.1498	1867.8054	13190.35	12290.7
920.2893	1869.4528	13164.85	12264.3
920.4288	1871.0994	13128.45	12228.05
920.5683	1872.7453	13110.65	12211.8
920.7077	1874.3905	13075.3	12172.75
920.8471	1876.0349	13045.8	12147.5
920.9865	1877.6786	13037.15	12138.3
921.1259	1879.3215	12989.5	12093
921.2653	1880.9637	12987	12090.5
921.4046	1882.6051	12974.2	12079.45
921.5439	1884.2458	12906.5	12008.65
921.6832	1885.8858	12891.65	11994.4
921.8225	1887.525	12838.5	11940.2
921.9617	1889.1634	12786.75	11889.45
922.101	1890.8011	12760.7	11861.3
922.2402	1892.4381	12762.45	11865.6
922.3794	1894.0743	12730.3	11833.85
922.5185	1895.7098	12709.9	11811.75
922.6577	1897.3446	12665.55	11767.75
922.7968	1898.9786	12634	11732.95
922.9359	1900.6118	12615.8	11719.4
923.075	1902.2443	12518.55	11619.8
923.214	1903.8761	12525.7	11629.3
923.3531	1905.5071	12468.95	11572.25
923.4921	1907.1374	12427.95	11531.3
923.6311	1908.7669	12425.5	11530.5
923.77	1910.3957	12395.25	11501
923.909	1912.0237	12321	11424.8
924.0479	1913.651	12298.85	11400.15
924.1868	1915.2776	12264.75	11369.9
924.3257	1916.9034	12223.5	11328.75
924.4646	1918.5285	12192.3	11299.65
924.6034	1920.1528	12109.85	11212.35
924.7422	1921.7764	12109.55	11214.6
924.881	1923.3992	12084.8	11186.85
925.0198	1925.0213	12010.1	11114.5
925.1586	1926.6427	11962.8	11067.25
925.2973	1928.2633	12020.95	11043.8
925.436	1929.8832	11944.95	11046.25
925.5747	1931.5023	11853.1	10958.8
925.7134	1933.1207	11831.8	10935.55
925.852	1934.7383	11831.6	10936.5
925.9906	1936.3552	11759.3	10864.2
926.1292	1937.9714	11742.4	10847
926.2678	1939.5868	11694.55	10795.85
926.4064	1941.2015	11632.15	10735.4
926.5449	1942.8154	11586.7	10687.6
926.6834	1944.4286	11535.8	10637.05
926.8219	1946.041	11522.45	10601.4
926.9604	1947.6528	11479.15	10578.55
927.0988	1949.2637	11435.05	10539.1
927.2372	1950.8739	11376.9	10482.6
927.3756	1952.4834	11392.95	10498.4
927.514	1954.0921	11364.15	10466.95
927.6523	1955.7001	11318.05	10421.5
927.7907	1957.3074	11300.85	10409.35
927.929	1958.9139	11235.6	10342.7
928.0673	1960.5197	11220.6	10325.1
928.2055	1962.1247	11173.8	10281.15
928.3438	1963.729	11144.1	10254.35
928.482	1965.3325	11112.55	10195.55
928.6202	1966.9353	11055	10162.4
928.7584	1968.5374	11030.45	10137.6
928.8965	1970.1387	10978.25	10086
929.0346	1971.7393	10929.95	10036.25
929.1727	1973.3392	10906.6	10014.35
929.3108	1974.9383	10855.2	9962.25
929.4489	1976.5366	10821.45	9929.95
929.5869	1978.1342	10825.25	9932.75
929.7249	1979.7311	10779.8	9886.4
929.8629	1981.3273	10761.15	9869.55
930.0009	1982.9227	10743.6	9851.35
930.1388	1984.5173	10691.1	9798.8
930.2767	1986.1112	10654.95	9762.95
930.4146	1987.7044	10642.45	9753.25
930.5525	1989.2968	10605.75	9712.35
930.6904	1990.8885	10593.15	9698.4
930.8282	1992.4795	10559.9	9669.15
930.966	1994.0697	10518.2	9627.65
931.1038	1995.6592	10473.15	9584.65
931.2415	1997.2479	10457.5	9566.3
931.3793	1998.8359	10432.5	9542.2
931.517	2000.4232	10409.35	9521.15
931.6547	2002.0097	10372.4	9487.05
931.7923	2003.5955	10296.35	9409.05
931.93	2005.1805	10329.75	9440.7
932.0676	2006.7648	10280.95	9392.55
932.2052	2008.3484	10238.7	9349.3
932.3427	2009.9312	10250.35	9360.95
932.4803	2011.5133	10188.35	9302.9
932.6178	2013.0946	10178.75	9292
932.7553	2014.6752	10162.2	9273
932.8928	2016.2551	10116.35	9226.2
933.0302	2017.8342	10068.75	9179.05
933.1676	2019.4126	10043.7	9157.4
933.305	2020.9902	10008.05	9122.85
933.4424	2022.5672	9989.7	9102.55
933.5798	2024.1433	9985.35	9091.65
933.7171	2025.7188	9936.6	9052.05
933.8544	2027.2935	9934.05	9045.8
933.9917	2028.8674	9881.35	8996.5
934.129	2030.4406	9876.4	8992.15
934.2662	2032.0131	9808.45	8925
934.4034	2033.5849	9769.05	8879.05
934.5406	2035.1559	9753.85	8867.55
934.6778	2036.7261	9758.55	8869.9
934.8149	2038.2957	9722.5	8833
934.952	2039.8645	9719.5	8828.75
935.0891	2041.4325	9710.25	8818.15
935.2262	2042.9998	9659.45	8771.35
935.3632	2044.5664	9643.35	8755.6
935.5002	2046.1323	9591.65	8705.4
935.6372	2047.6974	9587.15	8699.85
935.7742	2049.2617	9547.05	8660.35
935.9111	2050.8254	9545.2	8635.25
936.048	2052.3883	9548.7	8658.4
936.1849	2053.9504	9518	8628.45
936.3218	2055.5118	9477.5	8586.85
936.4586	2057.0725	9407.55	8517.5
936.5955	2058.6325	9404.55	8517.5
936.7323	2060.1917	9359.2	8472.9
936.869	2061.7502	9356.6	8466.9
937.0058	2063.3079	9340.2	8453.75
937.1425	2064.8649	9298.35	8407.4
937.2792	2066.4212	9284.35	8393.2
937.4159	2067.9767	9267.25	8379.75
937.5525	2069.5315	9218.95	8331.85
937.6891	2071.0856	9185.95	8297.6
937.8257	2072.6389	9149.3	8261.25
937.9623	2074.1915	9109.9	8225.3
938.0989	2075.7433	9072.2	8185.3
938.2354	2077.2945	9071.6	8184.55
938.3719	2078.8448	9038.55	8150.45
938.5084	2080.3945	9009.8	8121.35
938.6448	2081.9434	8984.1	8094.5
938.7812	2083.4916	8991.4	8100.2
938.9176	2085.039	8962.5	8068.4
939.054	2086.5857	8930.55	8035.15
939.1903	2088.1317	8907.6	8015.75
939.3267	2089.677	8882.4	7988.4
939.463	2091.2215	8845.05	7951
939.5992	2092.7652	8824.2	7928.75
939.7355	2094.3083	8814.3	7920.45
939.8717	2095.8506	8818.6	7927.35
940.0079	2097.3921	8794.55	7902.35
940.1441	2098.933	8768.85	7878.65
940.2802	2100.4731	8745.1	7853.9
940.4163	2102.0124	8752.1	7853.55
940.5524	2103.5511	8749.4	7857.2
940.6885	2105.089	8702.75	7810.2
940.8245	2106.6261	8701.1	7812.95
940.9606	2108.1626	8661.4	7772.2
941.0965	2109.6983	8665.1	7747.5
941.2325	2111.2332	8603.3	7709.55
941.3684	2112.7675	8580.3	7687.25
941.5044	2114.301	8569.9	7673.1
941.6403	2115.8337	8559.85	7666.2
941.7761	2117.3657	8516.2	7624.7
941.912	2118.897	8508.1	7616.9
942.0478	2120.4276	8517.7	7620.75
942.1835	2121.9575	8443.9	7549.95
942.3193	2123.4866	8460.95	7568.35
942.455	2125.0149	8424.5	7530.55
942.5907	2126.5426	8378.3	7487.95
942.7264	2128.0695	8376.25	7486.4
942.8621	2129.5956	8338.85	7453.25
942.9977	2131.1211	8364.6	7472.7
943.1333	2132.6458	8323.4	7434.1
943.2689	2134.1698	8303.85	7411.7
943.4044	2135.693	8280.25	7383.25
943.54	2137.2155	8250.4	7353.7
943.6755	2138.7373	8229.1	7335.45
943.8109	2140.2584	8216.95	7327.8
943.9464	2141.7787	8187.5	7294.85
944.0818	2143.2983	8141.4	7259.15
944.2172	2144.8171	8103.2	7218.75
944.3526	2146.3353	8092.1	7203.75
944.4879	2147.8527	8061.85	7174.6
944.6232	2149.3693	8074.05	7182.4
944.7585	2150.8853	8049.8	7157.6
944.8938	2152.4005	8004.95	7112.75
945.029	2153.9149	7989.85	7096.2
945.1642	2155.4287	8043.55	7047.65
945.2994	2156.9417	7996.7	7103.15
945.4346	2158.454	7942.35	7051.05
945.5697	2159.9655	7911.15	7020.55
945.7048	2161.4764	7909.95	7020.4
945.8399	2162.9865	7875	6985.4
945.9749	2164.4958	7839.85	6948.75
946.1099	2166.0045	7806.3	6914.2
946.2449	2167.5124	7798.9	6908.5
946.3799	2169.0195	7798.25	6907.3
946.5148	2170.526	7797.4	6903.85
946.6498	2172.0317	7781.05	6891.4
946.7846	2173.5367	7740.1	6847.85
946.9195	2175.0409	7726.75	6837.9
947.0543	2176.5445	7704.95	6812.65
947.1891	2178.0473	7673.95	6783.75
947.3239	2179.5494	7665.05	6769.25
947.4587	2181.0507	7636.7	6745.25
947.5934	2182.5513	7600.85	6708.85
947.7281	2184.0512	7599.55	6707.5
947.8628	2185.5504	7557.15	6667.25
947.9974	2187.0488	7516.75	6627.4
948.132	2188.5465	7497.35	6608.55
948.2666	2190.0435	7491.7	6601.65
948.4012	2191.5397	7470.95	6579.6
948.5357	2193.0353	7452.35	6560.5
948.6702	2194.5301	7430.2	6534.75
948.8047	2196.0241	7401.2	6506.9
948.9392	2197.5175	7422.6	6526.55
949.0736	2199.0101	7377.85	6481.3
949.208	2200.502	7320.95	6427.9
949.3424	2201.9931	7288.6	6398.3
949.4767	2203.4835	7283.05	6393.8
949.611	2204.9733	7256.1	6349.85
949.7453	2206.4622	7247.2	6359.25
949.8796	2207.9505	7220.45	6329.9
950.0138	2209.438	7189.95	6304.25
950.148	2210.9248	7168.4	6279.5
950.2822	2212.4109	7146.9	6257.25
950.4164	2213.8962	7117.4	6221.85
950.5505	2215.3809	7130.8	6234.45
950.6846	2216.8648	7107.5	6211.2
950.8186	2218.3479	7079.05	6179.65
950.9527	2219.8304	7039.65	6139.75
951.0867	2221.3121	7023.95	6125.75
951.2207	2222.7931	7008.15	6112.3
951.3546	2224.2733	6977.75	6084
951.4886	2225.7529	6948	6055.75
951.6225	2227.2317	6943.2	6050.1
951.7563	2228.7098	6914.65	6025.05
951.8902	2230.1872	6885.25	5996.35
952.024	2231.6638	6871.55	5984.65
952.1578	2233.1397	6871.95	5978.9
952.2916	2234.6149	6848.9	5959.75
952.4253	2236.0894	6801.05	5908.65
952.559	2237.5632	6799.45	5905.4
952.6927	2239.0362	6766.25	5875.15
952.8263	2240.5085	6782.35	5891.05
952.9599	2241.9801	6741.45	5849.35
953.0935	2243.4509	6720.05	5828.35
953.2271	2244.921	6702.6	5807.35
953.3606	2246.3904	6658.15	5762.35
953.4941	2247.8591	6651.4	5759.65
953.6276	2249.3271	6647.1	5755.3
953.7611	2250.7943	6600.85	5706.2
953.8945	2252.2608	6601.4	5707.85
954.0279	2253.7266	6564.25	5670.35
954.1612	2255.1917	6549.25	5657.9
954.2946	2256.656	6539.4	5645.35
954.4279	2258.1197	6522.5	5632.55
954.5612	2259.5826	6490.15	5599
954.6944	2261.0447	6492.15	5600.3
954.8276	2262.5062	6467.55	5573.05
954.9608	2263.9669	6471.15	5576.65
955.094	2265.4269	6444.45	5550.9
955.2271	2266.8862	6433.95	5541.05
955.3602	2268.3448	6417.5	5525
955.4933	2269.8026	6398.25	5508.15
955.6264	2271.2598	6375.3	5485.75
955.7594	2272.7162	6367.95	5477.6
955.8924	2274.1719	6338.25	5446.6
956.0253	2275.6268	6335.95	5442
956.1583	2277.0811	6335.7	5441.85
956.2912	2278.5346	6320.95	5430.85
956.4241	2279.9874	6284.05	5394.8
956.5569	2281.4395	6282.25	5393.3
956.6897	2282.8908	6255.55	5360.85
956.8225	2284.3414	6242.4	5347.85
956.9553	2285.7914	6227.6	5337.45
957.088	2287.2406	6214	5317.35
957.2207	2288.689	6201.1	5305
957.3534	2290.1368	6169.85	5272.35
957.486	2291.5838	6165.4	5266.4
957.6186	2293.0302	6156.8	5260.3
957.7512	2294.4758	6135.1	5241.65
957.8838	2295.9206	6110.9	5215.9
958.0163	2297.3648	6094.85	5204.5
958.1488	2298.8082	6073.8	5180.15
958.2813	2300.251	6072.55	5180.55
958.4137	2301.693	6038.2	5141.75
958.5461	2303.1343	6036	5141.45
958.6785	2304.5748	6009.75	5119.5
958.8108	2306.0147	6003.15	5113.1
958.9432	2307.4538	5979.05	5087
959.0754	2308.8922	5956.9	5070.4
959.2077	2310.3299	5950.5	5060.4
959.3399	2311.7669	5932.95	5042.2
959.4721	2313.2031	5899.6	5008.65
959.6043	2314.6387	5879.4	4985.5
959.7365	2316.0735	5867	4972.45
959.8686	2317.5076	5862.45	4969.45
960.0006	2318.941	5845.55	4951.4
960.1327	2320.3737	5852	4954.55
960.2647	2321.8056	5832.9	4937.3
960.3967	2323.2369	5777.15	4884.4
960.5287	2324.6674	5790.35	4896.55
960.6606	2326.0972	5773.6	4880.55
960.7925	2327.5263	5740.15	4848
960.9244	2328.9547	5733.45	4838.9
961.0562	2330.3823	5724.75	4827.7
961.1881	2331.8092	5722.1	4821.8
961.3198	2333.2355	5691.9	4794.35
961.4516	2334.661	5674.75	4779.3
961.5833	2336.0858	5660.75	4766.5
961.715	2337.5098	5668.45	4775.1
961.8467	2338.9332	5647.6	4755.2
961.9783	2340.3558	5614.7	4719.55
962.1099	2341.7778	5595.9	4704.4
962.2415	2343.199	5594.65	4701.85
962.373	2344.6195	5557.3	4665.05
962.5045	2346.0393	5555.6	4663.45
962.636	2347.4583	5541.75	4648
962.7675	2348.8767	5546.75	4651.4
962.8989	2350.2943	5531.95	4635.6
963.0303	2351.7113	5529.45	4631.35
963.1617	2353.1275	5504.5	4608.5
963.293	2354.543	5512.95	4595.5
963.4243	2355.9578	5476	4582.8
963.5556	2357.3718	5444.6	4552.25
963.6868	2358.7852	5422.6	4528.7
963.818	2360.1978	5404.5	4510.2
963.9492	2361.6098	5404.8	4513.4
964.0803	2363.021	5405.25	4507.4
964.2114	2364.4315	5380.15	4484.95
964.3425	2365.8413	5358.45	4464.05
964.4736	2367.2504	5323.7	4434.95
964.6046	2368.6587	5304.4	4412.9
964.7356	2370.0664	5287.65	4397.85
964.8666	2371.4733	5309.05	4416.1
964.9975	2372.8795	5278	4386.6
965.1284	2374.285	5257.25	4364.35
965.2593	2375.6899	5229.15	4336.4
965.3901	2377.0939	5208.95	4315.65
965.5209	2378.4973	5190.15	4298.9
965.6517	2379.9	5172.55	4278.6
965.7825	2381.3019	5162.5	4272.3
965.9132	2382.7032	5143.55	4253.55
966.0439	2384.1037	5129.2	4239.85
966.1745	2385.5035	5117.15	4226.6
966.3051	2386.9027	5103.95	4215.25
966.4357	2388.3011	5088.9	4196.35
966.5663	2389.6987	5093	4200.35
966.6968	2391.0957	5066.7	4177.5
966.8273	2392.492	5058.1	4166.75
966.9578	2393.8876	5023.9	4133.35
967.0882	2395.2824	5006.4	4114.6
967.2186	2396.6765	5005.6	4114.6
967.349	2398.07	4965.7	4075.15
967.4793	2399.4627	4961.1	4068.3
967.6097	2400.8547	4956.7	4063
967.7399	2402.246	4952.85	4055
967.8702	2403.6366	4931.7	4036.3
968.0004	2405.0265	4908	4017.45
968.1306	2406.4156	4885.35	3989.7
968.2607	2407.8041	4863.95	3967.85
968.3909	2409.1918	4856.35	3962
968.521	2410.5789	4848.4	3956.4
968.651	2411.9652	4824.15	3929.95
968.781	2413.3508	4818.8	3926.15
968.911	2414.7358	4810.65	3915.9
969.041	2416.12	4795.55	3904.15
969.1709	2417.5035	4790.3	3897.95
969.3008	2418.8863	4755.95	3861.6
969.4307	2420.2684	4767.95	3875.35
969.5606	2421.6497	4730.15	3838.05
969.6904	2423.0304	4695.85	3803.55
969.8201	2424.4104	4706.35	3815.5
969.9499	2425.7896	4678.45	3783.65
970.0796	2427.1682	4668.95	3777
970.2093	2428.546	4666.05	3771.75
970.3389	2429.9232	4662.35	3768.4
970.4685	2431.2996	4650.2	3757.95
970.5981	2432.6753	4631.8	3738.8
970.7277	2434.0503	4624.3	3731.95
970.8572	2435.4246	4603.15	3710.65
970.9867	2436.7982	4585	3689.5
971.1161	2438.1711	4584.7	3692.05
971.2456	2439.5433	4572.25	3675.95
971.375	2440.9148	4557.45	3660.75
971.5043	2442.2856	4534.65	3644.5
971.6336	2443.6557	4515.3	3624.25
971.7629	2445.025	4494.65	3602.2
971.8922	2446.3937	4491.5	3598.8
972.0214	2447.7617	4473.7	3579.3
972.1506	2449.1289	4460.9	3567.65
972.2798	2450.4955	4468.6	3572.7
972.4089	2451.8613	4446.4	3555.65
972.538	2453.2265	4443.2	3550.8
972.6671	2454.5909	4430.6	3538
972.7961	2455.9546	4425.05	3536.65
972.9251	2457.3177	4388.9	3498.45
973.0541	2458.68	4391	3496.8
973.1831	2460.0416	4390.1	3497.35
973.312	2461.4025	4373.6	3480.2
973.4408	2462.7627	4363.35	3460.9
973.5697	2464.1222	4360.25	3470.4
973.6985	2465.4811	4345.75	3454
973.8273	2466.8392	4321.45	3429.25
973.956	2468.1966	4317.35	3423.7
974.0847	2469.5533	4327.35	3433.3
974.2134	2470.9093	4323.05	3430.1
974.3421	2472.2645	4298.9	3405.7
974.4707	2473.6191	4282.1	3390.5
974.5993	2474.973	4264.05	3371.5
974.7278	2476.3262	4256.55	3363.7
974.8563	2477.6787	4246.3	3353.9
974.9848	2479.0305	4232.05	3339.15
975.1132	2480.3816	4219.45	3325.1
975.2417	2481.7319	4211.45	3320.2
975.37	2483.0816	4194.4	3300.75
975.4984	2484.4306	4179.95	3288.35
975.6267	2485.7789	4180.5	3290.5
975.755	2487.1264	4154	3260.25
975.8833	2488.4733	4138.55	3247.3
976.0115	2489.8195	4137.85	3228.45
976.1397	2491.165	4107.1	3212.5
976.2678	2492.5097	4118.3	3224.65
976.3959	2493.8538	4078.95	3188.55
976.524	2495.1972	4073.7	3182.25
976.6521	2496.5398	4063.4	3170.15
976.7801	2497.8818	4056.35	3161.15
976.9081	2499.2231	4025.7	3131.2
977.036	2500.5637	4017.15	3122.2
977.164	2501.9035	4018.45	3126.05
977.2918	2503.2427	4019.15	3121.2
977.4197	2504.5812	3996.65	3103.35
977.5475	2505.919	3985.2	3089.9
977.6753	2507.256	3977.65	3084.9
977.8031	2508.5924	3977.95	3087.8
977.9308	2509.9281	3954.45	3055.85
978.0585	2511.2631	3943	3051.6
978.1861	2512.5974	3938.6	3048.7
978.3137	2513.9309	3906.1	3013.75
978.4413	2515.2638	3925.8	3004.1
978.5689	2516.596	3905.8	3012.5
978.6964	2517.9275	3885.2	2992.5
978.8239	2519.2583	3875.6	2980.9
978.9513	2520.5884	3865.15	2969.65
979.0788	2521.9178	3860.2	2970.8
979.2062	2523.2465	3844.7	2951.8
979.3335	2524.5745	3832.75	2942
979.4608	2525.9018	3815.7	2925.2
979.5881	2527.2284	3811.25	2918.45
979.7154	2528.5543	3804.15	2913.65
979.8426	2529.8796	3802.5	2910.9
979.9698	2531.2041	3797.8	2906.6
980.0969	2532.5279	3771.6	2881.25
980.224	2533.851	3769.35	2876.9
980.3511	2535.1735	3774.6	2881.55
980.4781	2536.4952	3754.35	2860.95
980.6052	2537.8163	3749.15	2855
980.7321	2539.1366	3753.8	2858.8
980.8591	2540.4562	3729.2	2834.6
980.986	2541.7752	3732.85	2839.4
981.1129	2543.0935	3736.4	2842.15
981.2397	2544.411	3712.75	2820.85
981.3665	2545.7279	3709.7	2818.35
981.4933	2547.0441	3708	2815.85
981.62	2548.3596	3707.45	2812.4
981.7467	2549.6744	3696.7	2802.65
981.8734	2550.9885	3680.75	2785.75
982.0001	2552.3019	3664.4	2772.3
982.1267	2553.6146	3667.6	2775.7
982.2532	2554.9266	3661.75	2768.2
982.3798	2556.2379	3641.8	2750.05
982.5063	2557.5485	3643.45	2753.1
982.6327	2558.8585	3629.95	2729.35
982.7592	2560.1677	3632.3	2734.6
982.8856	2561.4762	3603.35	2712.85
983.0119	2562.7841	3615.05	2719.1
983.1383	2564.0913	3597.2	2705.65
983.2646	2565.3977	3607.6	2715.15
983.3908	2566.7035	3598.8	2706.55
983.517	2568.0086	3582.6	2689.6
983.6432	2569.313	3588.35	2693.2
983.7694	2570.6167	3576.95	2680.1
983.8955	2571.9197	3564.35	2673.25
984.0216	2573.222	3556.45	2659.15
984.1476	2574.5236	3560	2666.75
984.2737	2575.8246	3532.3	2637
984.3996	2577.1248	3544.25	2649
984.5256	2578.4244	3528.8	2638.4
984.6515	2579.7232	3522.9	2629.4
984.7774	2581.0214	3547	2623.75
984.9032	2582.3189	3532.15	2639.15
985.029	2583.6157	3509.3	2613.3
985.1548	2584.9118	3503.85	2611.15
985.2806	2586.2072	3490.15	2597.05
985.4063	2587.5019	3493.2	2599.2
985.5319	2588.7959	3476.05	2582.55
985.6576	2590.0893	3484.85	2590.15
985.7832	2591.3819	3471.4	2579.05
985.9087	2592.6739	3469.95	2579.4
986.0343	2593.9652	3467.05	2572.45
986.1597	2595.2557	3451.05	2559.4
986.2852	2596.5456	3441.95	2547.45
986.4106	2597.8348	3436.75	2545.75
986.536	2599.1234	3428.65	2539.2
986.6614	2600.4112	3417.4	2525.9
986.7867	2601.6983	3407.4	2512.65
986.912	2602.9848	3387.65	2495.15
987.0372	2604.2705	3384.75	2486.8
987.1624	2605.5556	3386.05	2492.95
987.2876	2606.84	3368.65	2477.2
987.4128	2608.1237	3365.95	2472.8
987.5379	2609.4067	3358.25	2465.65
987.6629	2610.689	3354.35	2454.5
987.788	2611.9707	3335.2	2440.1
987.913	2613.2516	3324.45	2428
988.0379	2614.5319	3313.85	2422.25
988.1629	2615.8115	3297.4	2405.2
988.2878	2617.0903	3282.9	2390.75
988.4126	2618.3685	3278.15	2386.2
988.5375	2619.6461	3265.75	2374.7
988.6622	2620.9229	3248.9	2357.6
988.787	2622.199	3245.75	2354
988.9117	2623.4745	3246.25	2352.95
989.0364	2624.7493	3253.4	2360.5
989.161	2626.0234	3234.05	2341.95
989.2857	2627.2968	3212.5	2322.75
989.4102	2628.5695	3209.3	2314.4
989.5348	2629.8415	3197.15	2307.35
989.6593	2631.1128	3190.9	2297.1
989.7837	2632.3835	3191.2	2301.15
989.9082	2633.6535	3176.1	2285.5
990.0326	2634.9228	3155.35	2262.95
990.1569	2636.1914	3159.1	2267.55
990.2812	2637.4593	3160	2266.35
990.4055	2638.7265	3151.6	2259
990.5298	2639.9931	3126.55	2233.9
990.654	2641.259	3127.35	2235.35
990.7782	2642.5242	3120.55	2228.1
990.9023	2643.7887	3108.3	2217.95
991.0264	2645.0525	3109.8	2219.7
991.1505	2646.3156	3110.9	2205.9
991.2745	2647.5781	3090.5	2199.05
991.3985	2648.8398	3072.15	2183
991.5225	2650.1009	3086.25	2171.65
991.6464	2651.3613	3069.8	2179.55
991.7703	2652.6211	3070.9	2178.8
991.8942	2653.8801	3052.5	2160.25
992.018	2655.1385	3037.05	2143.05
992.1418	2656.3961	3025.7	2134.5
992.2655	2657.6531	3036.65	2146.75
992.3892	2658.9094	3025.45	2134.95
992.5129	2660.1651	3013.15	2122.7
992.6366	2661.42	3017.2	2124.6
992.7602	2662.6743	3019.1	2127.75
992.8837	2663.9279	3022.15	2129.85
993.0073	2665.1808	3014.55	2121.05
993.1307	2666.433	2999.9	2109.1
993.2542	2667.6846	3002.7	2111.25
993.3776	2668.9354	3007.8	2115.4
993.501	2670.1856	2982.6	2089.4
993.6244	2671.4351	2979.35	2089.35
993.7477	2672.6839	2992.95	2099.8
993.8709	2673.9321	2984.65	2094.15
993.9942	2675.1795	2976.05	2084.85
994.1174	2676.4263	2959.2	2068.35
994.2405	2677.6724	2969.6	2079.3
994.3637	2678.9179	2947.7	2055.8
994.4868	2680.1626	2950.55	2061.15
994.6098	2681.4067	2954.3	2063.9
994.7328	2682.6501	2943.55	2054
994.8558	2683.8928	2927.1	2034.9
994.9788	2685.1348	2919.85	2030.35
995.1017	2686.3761	2911.8	2021.7
995.2245	2687.6168	2902.8	2013.35
995.3474	2688.8568	2896.5	2004.6
995.4702	2690.0961	2881.2	1990.65
995.5929	2691.3348	2892.35	1999.8
995.7156	2692.5727	2869.6	1976.85
995.8383	2693.81	2867.5	1979.6
995.961	2695.0466	2864	1974.45
996.0836	2696.2826	2852.75	1961.05
996.2062	2697.5178	2843.75	1951.35
996.3287	2698.7524	2837.5	1948.2
996.4512	2699.9863	2845.55	1953.65
996.5737	2701.2195	2826.55	1938.5
996.6961	2702.452	2828.65	1936.6
996.8185	2703.6839	2828.85	1936.95
996.9408	2704.9151	2824.7	1935.3
997.0631	2706.1456	2821.7	1932.25
997.1854	2707.3755	2810.6	1919.25
997.3077	2708.6046	2810.65	1918.85
997.4299	2709.8331	2820.5	1929.05
997.552	2711.0609	2824.8	1934.3
997.6742	2712.2881	2813.55	1922.05
997.7963	2713.5145	2818.55	1925.75
997.9183	2714.7403	2820.1	1929.15
998.0403	2715.9654	2806.55	1917.05
998.1623	2717.1899	2836.45	1931.8
998.2842	2718.4136	2820.85	1930.05
998.4062	2719.6367	2830.25	1940.4
998.528	2720.8591	2831.85	1935.95
998.6498	2722.0809	2835.95	1946.65
998.7716	2723.3019	2837.95	1945.3
998.8934	2724.5223	2824.2	1931.4
999.0151	2725.7421	2821.5	1929.75
999.1368	2726.9611	2841.45	1946.1
999.2584	2728.1795	2835.4	1942.55
999.38	2729.3972	2800.1	1910.55
999.5016	2730.6142	2795.75	1897.65
999.6231	2731.8306	2781.75	1891.7
999.7446	2733.0462	2770.25	1875.8
999.8661	2734.2612	2737.85	1843.45
999.9875	2735.4756	2719.5	1827
1000.1089	2736.6892	2713.6	1823.25
1000.2302	2737.9022	2688.8	1800.5
1000.3515	2739.1145	2675.5	1784.2
1000.4728	2740.3262	2653.45	1756.9
1000.594	2741.5372	2637.95	1749.2
1000.7152	2742.7475	2621.05	1729.75
1000.8363	2743.9571	2613.6	1723.45
1000.9575	2745.1661	2608.4	1714
1001.0785	2746.3744	2602	1713.15
1001.1996	2747.582	2581.1	1691.05
1001.3206	2748.7889	2575.9	1683.65
1001.4415	2749.9952	2552.55	1663.45
1001.5625	2751.2008	2558.15	1668.4
1001.6833	2752.4057	2549.95	1659.4
1001.8042	2753.61	2531.6	1640.3
1001.925	2754.8136	2521.3	1628.95
1002.0458	2756.0165	2528.3	1639.85
1002.1665	2757.2188	2514.2	1625.6
1002.2872	2758.4204	2504.85	1616
1002.4078	2759.6213	2511.5	1621.7
1002.5285	2760.8215	2510.15	1616.7
1002.649	2762.0211	2484.7	1596
1002.7696	2763.22	2494.9	1601.95
1002.8901	2764.4182	2481.05	1588.3
1003.0106	2765.6158	2480.45	1589
1003.131	2766.8127	2471.55	1583.9
1003.2514	2768.009	2463.8	1576.5
1003.3717	2769.2045	2456.35	1565
1003.492	2770.3994	2451.5	1560.75
1003.6123	2771.5936	2452.9	1563.65
1003.7325	2772.7872	2430.5	1541.4
1003.8527	2773.9801	2425.5	1533.75
1003.9729	2775.1723	2447.1	1541.35
1004.093	2776.3639	2424.7	1535.65
1004.2131	2777.5548	2424.2	1535.55
1004.3331	2778.745	2413.5	1521.8
1004.4531	2779.9346	2397.35	1509.3
1004.5731	2781.1235	2395.6	1507.4
1004.693	2782.3117	2387.05	1498.95
1004.8129	2783.4992	2384.75	1496.05
1004.9328	2784.6861	2396.8	1506.35
1005.0526	2785.8723	2385.95	1494.5
1005.1723	2787.0579	2384.9	1496
1005.2921	2788.2428	2388.65	1498.55
1005.4118	2789.427	2388.25	1498.8
1005.5314	2790.6106	2395.2	1506.4
1005.651	2791.7935	2392	1503.55
1005.7706	2792.9757	2383.85	1495.55
1005.8902	2794.1573	2396.05	1504.2
1006.0097	2795.3382	2389.05	1502.05
1006.1291	2796.5184	2408.8	1520.85
1006.2485	2797.698	2405.25	1513.2
1006.3679	2798.8769	2411	1523.4
1006.4873	2800.0551	2409.75	1521.4
1006.6066	2801.2327	2411.15	1520.15
1006.7258	2802.4096	2424.55	1535.7
1006.8451	2803.5859	2429.2	1540.65
1006.9642	2804.7615	2446.45	1558.55
1007.0834	2805.9364	2445.35	1556.1
1007.2025	2807.1106	2466.05	1578.85
1007.3216	2808.2842	2480.75	1590.1
1007.4406	2809.4572	2499.65	1610.05
1007.5596	2810.6294	2525.6	1637.3
1007.6785	2811.801	2547.6	1660
1007.7975	2812.972	2576.1	1690.3
1007.9163	2814.1423	2600.95	1711.15
1008.0352	2815.3119	2634.75	1745.45
1008.154	2816.4808	2677.35	1790.65
1008.2727	2817.6491	2703.2	1814.4
1008.3914	2818.8167	2751.6	1864.55
1008.5101	2819.9837	2793.3	1900.65
1008.6288	2821.15	2826.75	1939.1
1008.7474	2822.3157	2869.15	1981.75
1008.8659	2823.4807	2930.1	2041.55
1008.9844	2824.645	2952.85	2062.3
1009.1029	2825.8086	3005.15	2115.65
1009.2214	2826.9716	3049.1	2163.5
1009.3398	2828.134	3084.4	2197.75
1009.4581	2829.2957	3117.4	2228.3
1009.5764	2830.4567	3156.2	2268.7
1009.6947	2831.617	3176.6	2287.75
1009.813	2832.7767	3176.95	2289.3
1009.9312	2833.9358	3171.7	2284.65
1010.0493	2835.0941	3166.85	2276.95
1010.1675	2836.2519	3142.75	2255
1010.2855	2837.4089	3126.15	2237.85
1010.4036	2838.5653	3126.3	2237.85
1010.5216	2839.7211	3096.8	2211.1
1010.6396	2840.8761	3101.05	2213.4
1010.7575	2842.0306	3106.1	2220.95
1010.8754	2843.1843	3121.2	2232.9
1010.9932	2844.3374	3128.75	2240.5
1011.111	2845.4899	3170.3	2281.35
1011.2288	2846.6417	3207.1	2319.35
1011.3465	2847.7928	3257.85	2370.8
1011.4642	2848.9433	3315.95	2427.9
1011.5818	2850.0931	3361.1	2476
1011.6995	2851.2422	3419.55	2530.4
1011.817	2852.3907	3476.15	2588.15
1011.9345	2853.5385	3518.65	2629.05
1012.052	2854.6857	3559	2662.1
1012.1695	2855.8323	3585.95	2697.8
1012.2869	2856.9781	3615.1	2727.3
1012.4042	2858.1233	3668.25	2780.4
1012.5216	2859.2679	3701.2	2814.3
1012.6389	2860.4118	3745.1	2857.7
1012.7561	2861.555	3766.7	2872.95
1012.8733	2862.6976	3803.5	2913.4
1012.9905	2863.8395	3831.15	2943.85
1013.1076	2864.9808	3848.8	2962.2
1013.2247	2866.1214	3855.35	2969.85
1013.3417	2867.2614	3878.35	2990.5
1013.4587	2868.4007	3889.8	3001.7
1013.5757	2869.5393	3907.75	3019.25
1013.6926	2870.6773	3913.45	3023.7
1013.8095	2871.8146	3911.65	3020.15
1013.9263	2872.9513	3908.9	3019.3
1014.0431	2874.0874	3893.4	3006.25
1014.1599	2875.2227	3891.1	3003.3
1014.2766	2876.3574	3858.6	2972.5
1014.3933	2877.4915	3853.9	2965.2
1014.51	2878.6249	3818.25	2931.05
1014.6266	2879.7577	3800.3	2910.75
1014.7431	2880.8898	3781.15	2883.8
1014.8596	2882.0212	3757.55	2873.1
1014.9761	2883.152	3738.3	2849.5
1015.0925	2884.2821	3725.25	2839.95
1015.2089	2885.4116	3716.9	2829.5
1015.3253	2886.5405	3718.75	2830.3
1015.4416	2887.6686	3736.1	2848.25
1015.5579	2888.7962	3717	2830.95
1015.6741	2889.923	3717.75	2830.55
1015.7903	2891.0493	3719.9	2831.5
1015.9065	2892.1748	3726.1	2836.6
1016.0226	2893.2997	3732.85	2844.7
1016.1387	2894.424	3735.95	2850.3
1016.2547	2895.5476	3765.9	2879.85
1016.3707	2896.6706	3766.3	2879.9
1016.4866	2897.7929	3784.9	2897.55
1016.6025	2898.9145	3804.15	2917.55
1016.7184	2900.0355	3809.35	2920.25
1016.8342	2901.1559	3841.65	2954.2
1016.95	2902.2756	3861.8	2975.55
1017.0658	2903.3946	3890.8	3004.8
1017.1815	2904.513	3896.1	3006.25
1017.2971	2905.6308	3921.5	3034.65
1017.4127	2906.7479	3919	3032.55
1017.5283	2907.8643	3949	3059.3
1017.6439	2908.9801	3952.15	3065
1017.7594	2910.0953	3958.25	3071.85
1017.8748	2911.2098	3961.85	3073.2
1017.9902	2912.3236	3950.15	3054.3
1018.1056	2913.4368	3932.7	3043
1018.2209	2914.5494	3913.1	3026.75
1018.3362	2915.6613	3892.75	2998.25
1018.4515	2916.7725	3866.4	2980.7
1018.5667	2917.8831	3835.55	2947.3
1018.6819	2918.9931	3808.55	2920.65
1018.797	2920.1024	3780.6	2892.15
1018.9121	2921.211	3774.5	2887.55
1019.0271	2922.319	3751.15	2865.25
1019.1421	2923.4264	3724.8	2839.1
1019.2571	2924.5331	3723.2	2839.45
1019.372	2925.6391	3719.55	2833.35
1019.4869	2926.7445	3710.2	2825.2
1019.6017	2927.8493	3712.95	2825.5
1019.7165	2928.9534	3709.75	2822.45
1019.8313	2930.0569	3706.1	2815.95
1019.946	2931.1597	3711.35	2823.45
1020.0606	2932.2619	3711.6	2825.9
1020.1753	2933.3634	3710.85	2825.1
1020.2899	2934.4643	3706.9	2813.45
1020.4044	2935.5645	3696.15	2801.55
1020.5189	2936.6641	3674.85	2782.2
1020.6334	2937.763	3642.65	2757.1
1020.7478	2938.8613	3613.6	2728.15
1020.8622	2939.959	3573.95	2684.85
1020.9765	2941.056	3521.75	2634.1
1021.0908	2942.1523	3458.05	2570.15
1021.2051	2943.248	3392.5	2505.45
1021.3193	2944.3431	3319.15	2433.3
1021.4334	2945.4375	3225.8	2340.5
1021.5476	2946.5313	3146.2	2263.05
1021.6617	2947.6244	3059.35	2171.7
1021.7757	2948.7169	2979.65	2092.5
1021.8897	2949.8087	2890.35	2005.8
1022.0037	2950.8999	2816	1929.3
1022.1176	2951.9904	2749.5	1865.2
1022.2315	2953.0803	2678.55	1790.75
1022.3453	2954.1696	2634.3	1748.7
1022.4591	2955.2582	2580.15	1695.3
1022.5728	2956.3462	2535.15	1649.35
1022.6865	2957.4335	2509.1	1623.75
1022.8002	2958.5202	2467.7	1580.85
1022.9138	2959.6062	2436.15	1548.75
1023.0274	2960.6916	2422.7	1538.65
1023.141	2961.7764	2404.15	1518.2
1023.2545	2962.8605	2385.3	1498.9
1023.3679	2963.9439	2368.5	1482.2
1023.4813	2965.0267	2357.25	1468.7
1023.5947	2966.1089	2370.35	1463.85
1023.708	2967.1905	2342.25	1456.95
1023.8213	2968.2714	2340.55	1456.1
1023.9346	2969.3516	2327.35	1442.15
1024.0478	2970.4312	2335.2	1439.4
1024.1609	2971.5102	2333.5	1448
1024.274	2972.5885	2337.45	1452.65
1024.3871	2973.6662	2343.95	1450.8
1024.5002	2974.7432	2333.2	1448.85
1024.6132	2975.8196	2321.15	1435.95
1024.7261	2976.8954	2323.05	1438.5
1024.839	2977.9705	2308.65	1422.25
1024.9519	2979.045	2301.45	1415.75
1025.0647	2980.1188	2293.65	1408.4
1025.1775	2981.192	2255.9	1371.8
1025.2902	2982.2645	2251.5	1363.1
1025.4029	2983.3364	2241.75	1356.45
1025.5156	2984.4077	2215.85	1329.7
1025.6282	2985.4783	2192.7	1302.2
1025.7407	2986.5483	2159.65	1274.75
1025.8532	2987.6177	2127.7	1241.7
1025.9657	2988.6864	2104.45	1219.15
1026.0782	2989.7545	2073.1	1184.4
1026.1906	2990.8219	2038.95	1153.7
1026.3029	2991.8887	2007.9	1120.95
1026.4152	2992.9548	1972	1084.8
1026.5275	2994.0204	1951.5	1067.05
1026.6397	2995.0852	1929.75	1043.05
1026.7519	2996.1495	1908.7	1022.45
1026.864	2997.2131	1873.7	989.6
1026.9761	2998.276	1853.15	967
1027.0882	2999.3383	1836.65	950.15
1027.2002	3000.4	1822.8	936.35
1027.3122	3001.4611	1800.2	914.05
1027.4241	3002.5215	1793.1	906.8
1027.536	3003.5812	1771.3	885.2
1027.6478	3004.6404	1751.85	865.85
1027.7596	3005.6989	1749.7	862.6
1027.8714	3006.7567	1735.95	850.55
1027.9831	3007.8139	1741.2	836.45
1028.0947	3008.8705	1714.85	828
1028.2064	3009.9264	1713.55	813.3
1028.3179	3010.9818	1699.85	813.65
1028.4295	3012.0364	1691.75	807.1
1028.541	3013.0905	1684.8	800.85
1028.6524	3014.1439	1674.7	788.4
1028.7638	3015.1966	1661.7	775.6
1028.8752	3016.2487	1662.95	777.85
1028.9865	3017.3002	1672.65	781.35
1029.0978	3018.3511	1658.1	773.6
1029.209	3019.4013	1659.35	774.2
1029.3202	3020.4509	1653.8	771.05
1029.4314	3021.4998	1650.55	765.65
1029.5425	3022.5481	1645.6	759.5
1029.6535	3023.5958	1642.85	760.55
1029.7645	3024.6428	1639.4	752.2
1029.8755	3025.6892	1641	756.75
1029.9864	3026.735	1632	747.6
1030.0973	3027.7802	1632.1	746.5
1030.2082	3028.8247	1638.7	754.75
1030.319	3029.8685	1625.35	738.55
1030.4297	3030.9118	1616.65	730.9
1030.5404	3031.9544	1621.4	736.25
1030.6511	3032.9963	1629.65	744.4
1030.7617	3034.0376	1625.65	740.65
1030.8723	3035.0783	1628.85	741.15
1030.9829	3036.1184	1622.75	735.95
1031.0934	3037.1578	1628	746.1
1031.2038	3038.1966	1631.5	743.85
1031.3142	3039.2348	1627.25	745.3
1031.4246	3040.2723	1625.45	731.35
1031.5349	3041.3092	1623.25	738.3
1031.6452	3042.3455	1617.4	731.7
1031.7554	3043.3811	1616.35	730.1
1031.8656	3044.4161	1616.35	730.7
1031.9758	3045.4505	1609.3	726.1
1032.0859	3046.4842	1608.55	721.95
1032.1959	3047.5173	1608.1	725.85
1032.3059	3048.5498	1597.55	713.65
1032.4159	3049.5816	1596.75	712.3
1032.5258	3050.6128	1594.7	709.1
1032.6357	3051.6434	1589.45	701.75
1032.7455	3052.6734	1582.95	697.35
1032.8553	3053.7027	1581.75	697
1032.9651	3054.7314	1568.2	685.85
1033.0748	3055.7594	1564.7	678.6
1033.1845	3056.7868	1571.4	683.9
1033.2941	3057.8136	1567.55	683.65
1033.4037	3058.8398	1561.55	678.15
1033.5132	3059.8653	1555.85	672.95
1033.6227	3060.8902	1543.3	658.3
1033.7321	3061.9145	1545.3	659.65
1033.8415	3062.9381	1541.2	657.6
1033.9509	3063.9612	1550.05	648.7
1034.0602	3064.9835	1536.55	653.95
1034.1694	3066.0053	1527.8	642.3
1034.2787	3067.0264	1520.7	636.15
1034.3878	3068.0469	1513.3	628.55
1034.497	3069.0668	1510.4	625
1034.6061	3070.086	1511.15	626
1034.7151	3071.1046	1501.4	615.55
1034.8241	3072.1226	1490.4	603.75
1034.9331	3073.1399	1495.8	610.75
1035.042	3074.1567	1484.95	600.1
1035.1508	3075.1727	1470.6	583.25
1035.2597	3076.1882	1463.5	578.9
1035.3684	3077.203	1459.15	575.9
1035.4772	3078.2173	1458.55	570.2
1035.5859	3079.2308	1455.45	566.65
1035.6945	3080.2438	1437.6	550.3
1035.8031	3081.2561	1427.8	542.25
1035.9117	3082.2678	1423.35	540.85
1036.0202	3083.2789	1416.95	532.2
1036.1286	3084.2893	1424.1	539.9
1036.2371	3085.2991	1408.95	525.85
1036.3454	3086.3083	1404.2	515.75
1036.4538	3087.3169	1403.15	517.15
1036.562	3088.3248	1400.4	513.8
1036.6703	3089.3321	1384.75	499.1
1036.7785	3090.3388	1383.95	499.5
1036.8866	3091.3449	1375.35	491.1
1036.9948	3092.3503	1371.3	481.35
1037.1028	3093.3551	1369.15	486.95
1037.2108	3094.3593	1366.5	484.7
1037.3188	3095.3629	1357.6	473.4
1037.4267	3096.3658	1357.05	469.9
1037.5346	3097.3681	1356.05	471.95
1037.6425	3098.3698	1347.9	462.4
1037.7503	3099.3708	1352.7	462.1
1037.858	3100.3713	1340.95	457.1
1037.9657	3101.3711	1340.05	453.15
1038.0734	3102.3702	1478.85	455.85
1038.181	3103.3688	1339.75	453.55
1038.2886	3104.3667	1333.2	449.4
1038.3961	3105.364	1324	440.6
1038.5036	3106.3607	1324.2	437.15
1038.611	3107.3568	1314.9	427.8
1038.7184	3108.3522	1313.35	430.35
1038.8257	3109.347	1311.4	428.75
1038.933	3110.3412	1310.5	422
1039.0403	3111.3348	1303.25	420.6
1039.1475	3112.3277	1294.5	410.1
1039.2547	3113.32	1297.5	414.2
1039.3618	3114.3117	1292.3	407.55
1039.4689	3115.3028	1298.1	413.5
1039.5759	3116.2932	1284.9	399.7
1039.6829	3117.2831	1294.75	403.95
1039.7898	3118.2723	1277.95	392.3
1039.8967	3119.2608	1275.85	391.9
1040.0035	3120.2488	1282.9	397.8
1040.1103	3121.2361	1276.65	392.3
1040.2171	3122.2229	1272.8	388.8
1040.3238	3123.209	1274.3	389.5
1040.4305	3124.1944	1263.45	378.3
1040.5371	3125.1793	1259.35	374.25
1040.6437	3126.1635	1262.5	377.9
1040.7502	3127.1471	1258.75	374.9
1040.8567	3128.1301	1258.45	373.35
1040.9631	3129.1125	1247.1	363.65
1041.0695	3130.0942	1253.9	369.85
1041.1759	3131.0753	1259.95	367.4
1041.2822	3132.0558	1245.25	358.85
1041.3884	3133.0357	1247.2	360.8
1041.4946	3134.015	1250.6	367.2
1041.6008	3134.9936	1247.05	363
1041.7069	3135.9716	1263.15	359.1
1041.813	3136.949	1237.1	353.4
1041.919	3137.9258	1259.5	357.2
1042.025	3138.902	1238.8	350.15
1042.1309	3139.8775	1234.05	351.45
1042.2368	3140.8524	1233.35	347.65
1042.3427	3141.8267	1231.55	344.7
1042.4485	3142.8004	1233.65	348.45
1042.5542	3143.7735	1233.5	342.25
1042.6599	3144.7459	1223.3	336.4
1042.7656	3145.7178	1223.5	338.55
1042.8712	3146.689	1222.1	337.95
1042.9768	3147.6596	1216.7	332.4
1043.0823	3148.6295	1225.3	339.05
1043.1878	3149.5989	1214.15	331.95
1043.2932	3150.5676	1215.15	330.45
1043.3986	3151.5357	1213.05	331.9
1043.5039	3152.5032	1210.8	326.95
1043.6092	3153.4701	1205.3	321.4
1043.7145	3154.4364	1211.6	324.25
1043.8197	3155.402	1202.85	318.65
1043.9248	3156.367	1199.65	314.25
1044.03	3157.3315	1238.75	318.5
1044.135	3158.2952	1195.75	311.8
1044.24	3159.2584	1189.45	306.6
1044.345	3160.221	1192.55	308.15
1044.4499	3161.1829	1188.9	305
1044.5548	3162.1442	1187.15	304.95
1044.6596	3163.105	1188.15	302.95
1044.7644	3164.065	1187	302.05
1044.8692	3165.0245	1186.3	299.25
1044.9739	3165.9834	1178.65	297.1
1045.0785	3166.9416	1178.25	295.45
1045.1831	3167.8993	1175.55	291.15
1045.2877	3168.8563	1177.35	291.7
1045.3922	3169.8127	1171.1	287.85
1045.4966	3170.7684	1175.15	290.7
1045.6011	3171.7236	1169	285
1045.7054	3172.6782	1170.1	285
1045.8098	3173.6321	1169.5	285.95
1045.914	3174.5854	1175.35	287.85
1046.0183	3175.5381	1167.9	285.65
1046.1224	3176.4902	1166.95	285.4
1046.2266	3177.4417	1164.7	281
1046.3307	3178.3926	1154.35	271.5
1046.4347	3179.3428	1161.85	277.85
1046.5387	3180.2924	1152.7	269.95
1046.6427	3181.2415	1156.15	270.65
1046.7466	3182.1899	1155.7	269.85
1046.8504	3183.1377	1155.5	274.7
1046.9542	3184.0848	1153.5	266.2
1047.058	3185.0314	1149.65	265.15
1047.1617	3185.9773	1146.55	262.95
1047.2654	3186.9227	1149.3	264.5
1047.369	3187.8674	1146.25	262.65
1047.4726	3188.8115	1147.5	260
1047.5761	3189.755	1142.35	258.35
1047.6796	3190.6979	1136.2	254.15
1047.783	3191.6402	1142.1	258.7
1047.8864	3192.5818	1139.05	255.35
1047.9898	3193.5229	1146.65	257.1
1048.0931	3194.4633	1137.7	253.7
1048.1963	3195.4031	1137.6	251.7
1048.2995	3196.3423	1128.6	244.35
1048.4027	3197.2809	1130.1	246.3
1048.5058	3198.2189	1134.45	250
1048.6089	3199.1563	1131.65	242.3
1048.7119	3200.0931	1124.5	242.1
1048.8148	3201.0292	1127.95	244.8
1048.9178	3201.9648	1125.8	242.1
1049.0206	3202.8997	1129	243.1
1049.1235	3203.834	1126	241.75
1049.2262	3204.7677	1120.2	237.9
1049.329	3205.7008	1122.45	235.3
1049.4317	3206.6333	1116.05	234.8
1049.5343	3207.5652	1114.2	230.45
1049.6369	3208.4964	1116.85	234.65
1049.7394	3209.4271	1115.95	233.5
1049.8419	3210.3571	1113	228.6
1049.9444	3211.2865	1113.65	229.4
1050.0468	3212.2154	1111.35	228.65
1050.1491	3213.1436	1111.3	224.9
1050.2514	3214.0712	1118.8	229.6
1050.3537	3214.9982	1109.15	224.45
1050.4559	3215.9246	1107.5	222.15
1050.5581	3216.8503	1100.5	217.45
1050.6602	3217.7755	1109	227.4
1050.7623	3218.7001	1108.9	225.35
1050.8643	3219.624	1102.5	218.55
1050.9663	3220.5473	1101.5	217.1
1051.0682	3221.4701	1104.7	219.15
1051.1701	3222.3922	1107.45	223.9
1051.2719	3223.3137	1094.65	210.95
1051.3737	3224.2346	1100.35	217.35
1051.4754	3225.1549	1098.5	216.75
1051.5771	3226.0746	1089.4	206.8
1051.6788	3226.9937	1093.85	208.7
1051.7804	3227.9121	1092.3	209.5
1051.8819	3228.83	1089.8	207.55
1051.9834	3229.7473	1090.25	205.2
1052.0849	3230.6639	1092.25	208.5
1052.1863	3231.5799	1089.75	206.4
1052.2876	3232.4954	1089.8	204.6
1052.3889	3233.4102	1089.3	208.7
1052.4902	3234.3244	1081.3	196.55
1052.5914	3235.238	1083.75	201.1
1052.6926	3236.151	1108	199.1
1052.7937	3237.0634	1083.25	199.65
1052.8948	3237.9752	1076.9	193.95
1052.9958	3238.8864	1080.6	196.75
1053.0968	3239.797	1075.95	193
1053.1977	3240.7069	1080.1	195.9
1053.2986	3241.6163	1077.9	192.45
1053.3994	3242.5251	1076.2	195.6
1053.5002	3243.4332	1070.35	188
1053.6009	3244.3408	1072.6	187.1
1053.7016	3245.2477	1070.85	187.25
1053.8022	3246.154	1072.35	188.8
1053.9028	3247.0598	1071.8	188.15
1054.0034	3247.9649	1065.15	180.4
1054.1039	3248.8694	1068.75	184.5
1054.2043	3249.7733	1063.1	179.6
1054.3047	3250.6766	1060.1	179
1054.4051	3251.5793	1063.4	177.15
1054.5054	3252.4814	1058.45	177.8
1054.6056	3253.3829	1060.5	178.45
1054.7058	3254.2838	1058.35	175.05
1054.806	3255.1841	1058.9	175.9
1054.9061	3256.0838	1056.85	174.1
1055.0061	3256.9829	1048.45	165.45
1055.1062	3257.8814	1053.2	167.5
1055.2061	3258.7792	1050.5	166
1055.306	3259.6765	1048.8	164.25
1055.4059	3260.5731	1050.6	167.85
1055.5057	3261.4692	1044.95	160.6
1055.6055	3262.3647	1045.7	162.2
1055.7052	3263.2595	1040.9	157.1
1055.8049	3264.1538	1039.5	155.35
1055.9045	3265.0474	1041.15	159.5
1056.0041	3265.9404	1032.6	148.7
1056.1036	3266.8329	1033.1	149.2
1056.2031	3267.7247	1039.45	144.6
1056.3025	3268.616	1023.6	138.8
1056.4019	3269.5066	1022.35	138.2
1056.5013	3270.3966	1020.2	135.4
1056.6005	3271.286	1008.8	129.65
