Software Version:	3.9.2.0
Unit SN:	10000200
Spectrometer SN:	6960
Date:	3/26/2024 1:43:28 PM
Data Line Index:	25
Spectral Points:	2048
Integration time (ms):	125
Averages:	20
Delay (ms):	30000
Sequence Number:	1
Processing:	dark subtract
Laser Power (mW):	305
Laser Current (mA):	820
Laser Diode Temp (C):	25
Laser Case Temp (C):	27.2
System Temp (C):	27.2
Spectrometer Temp (C):	25.1
CCD Temp (C):	0.005
Secondary Temp (C):	20.006
Heatsink Temp (C):	22.609
CCDPCB Temp (C):	36.84
SecondaryPCB Temp (C):	34.35

Wavelength	RamanShift	Raw Counts	Dark Subtracted
787.061	30.1047	598.15	188.25
787.2016	32.3739	602.7	193.6
787.3422	34.6426	614	203.1
787.4828	36.9109	632.4	220.5
787.6235	39.1787	649.45	233.9
787.7642	41.4461	667.85	246.05
787.9049	43.7131	690.8	268.3
788.0456	45.9796	708.55	280.2
788.1863	48.2456	728.85	295.2
788.3271	50.5112	755.85	320.6
788.4679	52.7764	772.3	335.45
788.6087	55.0411	797.1	357.3
788.7496	57.3054	825.7	380.3
788.8904	59.5692	853.15	404
789.0313	61.8326	876.95	423.35
789.1722	64.0955	908.6	453.1
789.3132	66.3579	946.95	485.2
789.4541	68.6199	998.5	532.25
789.5951	70.8815	1072.45	604.2
789.7361	73.1426	1249.45	777.65
789.8771	75.4032	1686.45	1208.25
790.0181	77.6634	2763.65	2279.9
790.1592	79.9231	5436.8	4941.8
790.3003	82.1824	11528	11016.4
790.4414	84.4412	24202.75	23661.6
790.5825	86.6995	44874.05	44287
790.7237	88.9574	56794	56168.6
790.8648	91.2148	61590.85	60938.5
791.006	93.4717	62374.95	61703.5
791.1472	95.7282	62715.2	62032.75
791.2885	97.9842	62859.3	62165.45
791.4297	100.2398	62787.4	62099.15
791.571	102.4949	62687.85	61994.6
791.7123	104.7495	62637.15	61942.3
791.8536	107.0036	62428.95	61734.75
791.9949	109.2573	62583.4	61889.3
792.1363	111.5105	62342.9	61648.45
792.2777	113.7632	62361.45	61664.2
792.4191	116.0154	62367.05	61655.2
792.5605	118.2672	62479.75	61777.6
792.7019	120.5185	62438.35	61730.95
792.8434	122.7693	62391.05	61682.5
792.9849	125.0197	62150.55	61443.85
793.1264	127.2696	62526.8	61815.05
793.2679	129.519	62436.3	61717
793.4094	131.7679	62586.25	61868.15
793.551	134.0163	62100	61375.5
793.6926	136.2642	62232	61507.3
793.8342	138.5117	62478.15	61738.85
793.9758	140.7587	62329.3	61596
794.1175	143.0052	62314.1	61579.1
794.2591	145.2512	62067.4	61333.05
794.4008	147.4967	62327.25	61593.95
794.5425	149.7417	62194.5	61456.5
794.6842	151.9863	62200.45	61463.95
794.826	154.2304	61999.15	61255.65
794.9677	156.4739	62135.5	61382.15
795.1095	158.717	62250.7	61500.75
795.2513	160.9596	62112.85	61356.65
795.3931	163.2017	61881	61124.95
795.535	165.4433	62098.15	61336.8
795.6768	167.6844	61897.8	61141.9
795.8187	169.925	62011.7	61253.85
795.9606	172.1651	61862.55	61104.15
796.1025	174.4047	61856	61091.35
796.2445	176.6439	61834	61073
796.3864	178.8825	61797.6	61032.25
796.5284	181.1206	61907.9	61135.4
796.6704	183.3582	61888.6	61107.15
796.8124	185.5954	61740.6	60960.5
796.9544	187.832	61768.25	60983.75
797.0965	190.0681	61615.2	60828.3
797.2386	192.3037	61892.7	61105.75
797.3806	194.5388	62123.25	61332.65
797.5228	196.7734	61535.1	60735.1
797.6649	199.0075	62037.65	61236.25
797.807	201.2411	61856.55	61052.15
797.9492	203.4742	62136.15	61330.85
798.0914	205.7068	62085.6	61278.25
798.2336	207.9389	62071.85	61263.95
798.3758	210.1704	62056.5	61250.6
798.518	212.4015	62291.65	61483.35
798.6603	214.632	62011.7	61207.1
798.8025	216.862	62294.05	61494.9
798.9448	219.0915	62198.15	61408
799.0871	221.3205	62136.15	61342.4
799.2294	223.549	62373.55	61586.55
799.3718	225.777	62369	61586.7
799.5141	228.0044	62475	61682.9
799.6565	230.2314	62414.85	61629.4
799.7989	232.4578	62418.6	61631.9
799.9413	234.6837	62465.35	61676
800.0837	236.909	62913	62116.75
800.2262	239.1339	62301.4	61478.1
800.3687	241.3582	62536.25	61728.2
800.5111	243.582	62531.5	61693.9
800.6536	245.8053	62506.75	61680.05
800.7961	248.0281	62510.6	61691
800.9387	250.2503	62598.55	61776.65
801.0812	252.472	62412.55	61585.75
801.2238	254.6932	62537.45	61706.9
801.3664	256.9139	62487.55	61656.2
801.509	259.134	62883.9	62048.35
801.6516	261.3536	62411.9	61574.45
801.7942	263.5727	62705.2	61865.2
801.9369	265.7912	62572.55	61736.85
802.0795	268.0092	62649.1	61813.55
802.2222	270.2267	62700.9	61861.9
802.3649	272.4436	62510.1	61675.1
802.5076	274.6601	62678.1	61833.5
802.6504	276.8759	62764.15	61925.95
802.7931	279.0913	62652.9	61809.8
802.9359	281.3061	62659.15	61815.5
803.0787	283.5204	62689.6	61842.4
803.2215	285.7341	62654.55	61806.65
803.3643	287.9473	62864.95	62001.05
803.5071	290.16	62694.1	61838.4
803.6499	292.3721	62852.45	61998.9
803.7928	294.5837	62708.5	61856.25
803.9357	296.7947	62586.35	61733.2
804.0786	299.0052	62911.15	62060.05
804.2215	301.2152	62752.9	61894.1
804.3644	303.4246	62863.5	62018.5
804.5074	305.6334	62797.6	61947.3
804.6503	307.8418	62533.05	61680.8
804.7933	310.0495	62493.75	61638.7
804.9363	312.2568	62417.4	61562.05
805.0793	314.4635	62391.25	61536.25
805.2223	316.6696	62470.85	61609.2
805.3653	318.8752	62582.65	61715.15
805.5084	321.0802	62157.3	61300.45
805.6514	323.2847	62310.45	61446.55
805.7945	325.4887	62314.45	61450.15
805.9376	327.692	62202.9	61338.95
806.0807	329.8949	62289.45	61422.85
806.2238	332.0972	62198.65	61330.55
806.367	334.2989	62242.75	61373.5
806.5101	336.5001	62332.05	61460.25
806.6533	338.7007	62012.85	61145.3
806.7965	340.9008	62143.95	61272.2
806.9397	343.1003	62137.05	61263.45
807.0829	345.2992	62232.05	61359
807.2261	347.4976	62072.95	61195.45
807.3693	349.6955	62146.4	61268.95
807.5126	351.8927	62029.1	61149.65
807.6559	354.0895	62132.05	61249.55
807.7991	356.2856	62091.95	61213.55
807.9424	358.4812	62229.8	61351.9
808.0857	360.6763	62025.55	61144.05
808.2291	362.8707	62164.4	61283.15
808.3724	365.0646	62059.2	61173.8
808.5158	367.258	62070.5	61187.9
808.6591	369.4508	61962	61074.4
808.8025	371.643	62136.15	61246.5
808.9459	373.8346	62090.1	61199.45
809.0893	376.0257	62082.4	61187.05
809.2327	378.2162	61995.8	61108
809.3762	380.4062	61866.8	60973.35
809.5196	382.5956	61918.3	61024.85
809.6631	384.7844	61932.4	61040.5
809.8066	386.9726	61964.5	61070.75
809.9501	389.1603	61940.8	61052.45
810.0936	391.3474	61779.75	60843.85
810.2371	393.5339	61925.25	61032.05
810.3806	395.7199	61718.8	60832.35
810.5241	397.9052	61753.6	60867.1
810.6677	400.09	61784.1	60902.2
810.8113	402.2743	61878.1	60995.8
810.9548	404.4579	61793.1	60905.7
811.0984	406.641	61804.65	60920.25
811.2421	408.8235	61888.65	61005.4
811.3857	411.0054	61893.65	61008.75
811.5293	413.1868	61930.3	61041.5
811.673	415.3675	61919.8	61027.4
811.8166	417.5477	61919.85	61032.25
811.9603	419.7273	61924.5	61028.7
812.104	421.9064	61890.85	60994.2
812.2477	424.0848	61903.2	61004.8
812.3914	426.2627	61958.3	61061.1
812.5351	428.4399	61735.9	60838.9
812.6788	430.6166	61568.85	60664.8
812.8226	432.7928	61661.35	60761.2
812.9663	434.9683	61496.1	60598.65
813.1101	437.1432	61472.3	60572.55
813.2539	439.3176	61541.3	60647.3
813.3977	441.4914	61333.8	60439.7
813.5415	443.6645	61342.1	60447.25
813.6853	445.8371	61366.15	60466.85
813.8291	448.0091	61222.75	60319.8
813.973	450.1806	61226.25	60324.25
814.1168	452.3514	61194.35	60297.15
814.2607	454.5216	61140.65	60239.25
814.4046	456.6913	61180.75	60276.15
814.5485	458.8603	61203.8	60302.95
814.6924	461.0288	61105.65	60207.95
814.8363	463.1967	61219.45	60329.65
814.9802	465.3639	61225.6	60325.25
815.1241	467.5306	60988.05	60090.2
815.2681	469.6967	61092.45	60199.1
815.412	471.8622	61102.75	60209.65
815.556	474.0271	61085.6	60191.35
815.7	476.1914	61107.6	60202.2
815.844	478.3551	61131.05	60226.05
815.988	480.5182	61230.7	60330.9
816.132	482.6807	61061.15	60166.05
816.276	484.8426	61119.1	60229.45
816.4201	487.0039	61297.05	60402.25
816.5641	489.1647	61341.25	60440.35
816.7082	491.3248	61238.6	60338.5
816.8522	493.4843	61385.65	60487.4
816.9963	495.6432	61391.7	60494.35
817.1404	497.8015	61179.3	60273.55
817.2845	499.9592	61267.1	60354.75
817.4286	502.1163	61233.25	60318.05
817.5727	504.2728	61184.2	60279.8
817.7168	506.4287	61156.15	60264.2
817.861	508.5839	60984.3	60087.4
818.0051	510.7386	60999.25	60096.85
818.1493	512.8927	61036.35	60119.8
818.2935	515.0461	61017.05	60109.1
818.4377	517.199	61078.2	60170.5
818.5818	519.3512	61024.35	60113
818.726	521.5029	60994.15	60081.9
818.8703	523.6539	61029.5	60122.9
819.0145	525.8043	60902.95	59988.6
819.1587	527.9541	61025.5	60110.85
819.303	530.1033	60984.3	60072.3
819.4472	532.2519	60904.05	59993.35
819.5915	534.3999	61013.8	60101.8
819.7357	536.5472	61088	60177.45
819.88	538.694	60907	59998.4
820.0243	540.8401	61087.6	60173.2
820.1686	542.9856	61090	60171.65
820.3129	545.1305	61155.6	60228.15
820.4572	547.2748	61047.55	60112.8
820.6016	549.4185	61039.3	60106.1
820.7459	551.5615	61041.2	60112.25
820.8902	553.704	61019.55	60090.75
821.0346	555.8458	60927.85	60007.85
821.1789	557.987	60989.1	60063.3
821.3233	560.1276	61044.9	60122.35
821.4677	562.2675	61031.95	60105.8
821.6121	564.4069	61082.3	60160.75
821.7565	566.5456	61175	60252
821.9009	568.6837	61065.55	60146.85
822.0453	570.8212	61063.85	60147.7
822.1897	572.958	60773.15	59850.1
822.3342	575.0942	60846.05	59932
822.4786	577.2299	60686.8	59778
822.6231	579.3648	60578.45	59675.95
822.7675	581.4992	60518.2	59623.3
822.912	583.6329	60529.1	59638.35
823.0565	585.766	60566.8	59666.75
823.201	587.8985	60639.9	59734.85
823.3454	590.0304	60350.75	59414.2
823.4899	592.1616	60526.3	59605.9
823.6345	594.2922	60412.7	59493.75
823.779	596.4222	60182.15	59259.25
823.9235	598.5515	60215.85	59288.75
824.068	600.6802	60281.15	59355.9
824.2126	602.8083	59981.45	59060.7
824.3571	604.9358	59971.8	59047.6
824.5017	607.0626	60147.85	59220.45
824.6462	609.1888	59749.15	58821.3
824.7908	611.3144	60084.1	59151.55
824.9354	613.4393	59906.05	58972.15
825.08	615.5636	59701.7	58771.35
825.2246	617.6873	59924.2	58993.95
825.3692	619.8103	59614.55	58688
825.5138	621.9327	59899.6	58973.65
825.6584	624.0544	59866.15	58941.7
825.803	626.1756	59651.55	58729.75
825.9477	628.2961	59586.2	58658.65
826.0923	630.4159	59439.35	58512.2
826.237	632.5351	59360.4	58430.75
826.3816	634.6537	59861.5	58930.35
826.5263	636.7716	59277.7	58341
826.6709	638.8889	59439.4	58501.75
826.8156	641.0056	59379.3	58446.45
826.9603	643.1216	59451.85	58513.7
827.105	645.237	59549.6	58614.4
827.2497	647.3518	59192.15	58266.25
827.3944	649.4659	59297.85	58373.95
827.5391	651.5793	59333.15	58407.65
827.6838	653.6922	59369.05	58447
827.8285	655.8043	58865.55	57942.35
827.9733	657.9159	59487.6	58561.4
828.118	660.0268	58419.1	57495.1
828.2627	662.137	59075.5	58145.8
828.4075	664.2466	59144.55	58210.25
828.5522	666.3556	58834.55	57901.85
828.697	668.4639	59036.05	58106.05
828.8418	670.5716	58707.9	57782.8
828.9865	672.6786	59005.4	58077.05
829.1313	674.785	58577.95	57642.5
829.2761	676.8907	58624.85	57696.85
829.4209	678.9958	58821.55	57893.1
829.5657	681.1002	58808.05	57877.75
829.7105	683.204	58428.8	57490.4
829.8553	685.3072	58216.05	57278.25
830.0001	687.4097	58403.3	57468.85
830.1449	689.5115	58232.4	57292.55
830.2898	691.6127	58622.45	57689.6
830.4346	693.7132	58253.4	57322.8
830.5794	695.8131	58248.4	57299.05
830.7243	697.9123	58317.25	57377.1
830.8691	700.0109	58360.75	57419.4
831.014	702.1089	57891.35	56956.5
831.1588	704.2061	58032.2	57097.5
831.3037	706.3028	58075.45	57137.75
831.4486	708.3987	58166.8	57229.85
831.5935	710.4941	57968.65	57031.2
831.7383	712.5887	58300.15	57366.75
831.8832	714.6827	58097.1	57154.45
832.0281	716.7761	58399.2	57466.8
832.173	718.8688	58511.55	57576.5
832.3179	720.9608	58184.3	57242.8
832.4628	723.0522	58275.2	57330.25
832.6077	725.1429	58038.7	57100.45
832.7527	727.233	58795.2	57854.8
832.8976	729.3224	57593.5	56652.75
833.0425	731.4112	57890.7	56953.7
833.1874	733.4993	57910.55	56969.7
833.3324	735.5867	57783.1	56848.5
833.4773	737.6735	57449.55	56508.8
833.6222	739.7596	57152.35	56211.25
833.7672	741.845	57108.3	56170.2
833.9122	743.9298	57459.75	56521.45
834.0571	746.014	57032.4	56092.55
834.2021	748.0974	56739.3	55794.35
834.347	750.1802	57279.9	56337.15
834.492	752.2624	56476.4	55533.05
834.637	754.3439	56608.6	55665.25
834.782	756.4247	56839.85	55886.15
834.9269	758.5048	56547	55602.6
835.0719	760.5843	56707.15	55760.85
835.2169	762.6631	56934.15	55991.35
835.3619	764.7413	56975.35	56034.95
835.5069	766.8188	57256.9	56312.95
835.6519	768.8956	57602.4	56654.7
835.7969	770.9718	57628.3	56684.95
835.9419	773.0473	57441.95	56495.1
836.0869	775.1221	57057.05	56113.25
836.232	777.1962	56940.3	55996.95
836.377	779.2697	56494.9	55547.4
836.522	781.3426	56748.95	55793.4
836.667	783.4147	56829.6	55884.1
836.8121	785.4862	56774.6	55830.4
836.9571	787.557	56381.3	55434.9
837.1021	789.6271	56562.65	55615.65
837.2472	791.6966	55962.55	55015.55
837.3922	793.7654	55376.95	54435.2
837.5373	795.8335	55213.45	54267.95
837.6823	797.901	55173.15	54232.4
837.8274	799.9678	54883.7	53938.5
837.9724	802.0339	54759.05	53811.85
838.1175	804.0993	54762.2	53806.9
838.2626	806.1641	54597.55	53649.35
838.4076	808.2282	54501.2	53554.65
838.5527	810.2916	54366.45	53419.95
838.6978	812.3544	54540.45	53599.55
838.8428	814.4164	53983.1	53038.4
838.9879	816.4778	54134	53183.85
839.133	818.5385	54101.25	53153.6
839.2781	820.5986	54138.45	53188.15
839.4232	822.658	54259.3	53311.35
839.5682	824.7166	54378.05	53430.75
839.7133	826.7747	54192.4	53246.15
839.8584	828.832	54586.6	53640.3
840.0035	830.8886	54901.85	53952.15
840.1486	832.9446	54932.6	53983.55
840.2937	834.9999	54186.5	53239.8
840.4388	837.0545	54376.05	53424.75
840.5839	839.1085	54271.8	53323.7
840.729	841.1618	54047.75	53098.35
840.8741	843.2143	53520.4	52572.6
841.0192	845.2662	53436.85	52491.55
841.1643	847.3175	53525.85	52577.2
841.3095	849.368	52996.3	52047.9
841.4546	851.4179	53268.1	52321.45
841.5997	853.467	52863.55	51913.95
841.7448	855.5155	52964.45	52020.25
841.8899	857.5633	52681.9	51730.15
842.0351	859.6105	52426.1	51477.85
842.1802	861.6569	52513.3	51563.7
842.3253	863.7027	52169.45	51219.25
842.4704	865.7478	52247.3	51301.65
842.6156	867.7922	52122.75	51174.35
842.7607	869.8359	52288.3	51336.9
842.9058	871.8789	51834.3	50884.45
843.0509	873.9212	52064.3	51081.2
843.1961	875.9629	52034.55	51082.8
843.3412	878.0039	52034.05	51085
843.4863	880.0441	51945.85	50997.25
843.6315	882.0837	51919.2	50970.8
843.7766	884.1226	51956.3	51005.25
843.9218	886.1609	51930	50981.5
844.0669	888.1984	51797.6	50849.45
844.212	890.2352	52122.5	51176.9
844.3572	892.2714	51647.35	50694.9
844.5023	894.3069	51778.3	50828.75
844.6475	896.3416	51533.4	50581.8
844.7926	898.3757	51335.05	50386.45
844.9377	900.4091	50935.75	49983.3
845.0829	902.4418	51288.55	50334.1
845.228	904.4739	50951.2	49998.2
845.3732	906.5052	51108.7	50159.85
845.5183	908.5358	50812.35	49862.4
845.6635	910.5658	50649.3	49696
845.8086	912.595	50501	49547.7
845.9538	914.6236	49966.4	49016.3
846.0989	916.6515	50436.6	49486.6
846.2441	918.6786	49679.1	48721.55
846.3892	920.7051	49871.7	48916.05
846.5344	922.7309	49836.95	48884.9
846.6795	924.756	49778.95	48828.25
846.8246	926.7804	49653	48706.2
846.9698	928.8041	49188.9	48237.6
847.1149	930.8272	49425.65	48474.9
847.2601	932.8495	49306.8	48350.8
847.4052	934.8711	49014.7	48061.55
847.5504	936.892	48814.45	47859.9
847.6955	938.9123	48802	47847.8
847.8407	940.9318	48631.05	47677.6
847.9858	942.9506	48504.15	47554.1
848.131	944.9688	48457.35	47507.75
848.2761	946.9862	48024.25	47073.9
848.4213	949.003	47989.3	47039.4
848.5664	951.019	47584.6	46630.9
848.7115	953.0344	47573.3	46619.65
848.8567	955.0491	47410.25	46455.4
849.0018	957.063	47564.1	46614.8
849.147	959.0763	47659.35	46704.25
849.2921	961.0888	47434	46478.45
849.4373	963.1007	47554.2	46606.5
849.5824	965.1119	47488.3	46545
849.7275	967.1223	47298.7	46361.4
849.8727	969.1321	47361.3	46424.25
850.0178	971.1412	47134.35	46191.7
850.1629	973.1495	46966.55	46018.9
850.3081	975.1572	46986.55	46009.4
850.4532	977.1641	46899.1	45946.5
850.5983	979.1704	46714.5	45759.5
850.7435	981.1759	46641.1	45686.85
850.8886	983.1808	46537.45	45584.9
851.0337	985.1849	46535.7	45574.6
851.1788	987.1884	46478.75	45526.15
851.324	989.1911	46521.9	45568.45
851.4691	991.1932	46316.9	45369.05
851.6142	993.1945	46255.05	45305.85
851.7593	995.1951	46121	45169.75
851.9045	997.1951	46010.55	45058.95
852.0496	999.1943	45812.6	44860.95
852.1947	1001.1928	45657.75	44705.2
852.3398	1003.1906	45563	44613.55
852.4849	1005.1877	45467.3	44514.9
852.63	1007.1841	45290.5	44336.95
852.7751	1009.1798	45218.3	44270.3
852.9202	1011.1748	44993.6	44043.2
853.0653	1013.1691	44795.45	43843.85
853.2104	1015.1627	44440.95	43491.8
853.3555	1017.1556	44119	43170.35
853.5006	1019.1477	43997.15	43050.2
853.6457	1021.1392	43689.8	42748.85
853.7908	1023.1299	43486.25	42545.95
853.9359	1025.12	43361.7	42423.65
854.081	1027.1093	43245.35	42319.8
854.2261	1029.0979	43180.55	42258.45
854.3712	1031.0859	43134.8	42205.85
854.5163	1033.0731	42952.95	42011.85
854.6613	1035.0596	42842.45	41902.35
854.8064	1037.0454	42617.75	41674.45
854.9515	1039.0304	42431.7	41486.8
855.0965	1041.0148	42192.6	41244.55
855.2416	1042.9985	42024.9	41077
855.3867	1044.9814	42053	41105.6
855.5317	1046.9636	41733.55	40786.45
855.6768	1048.9452	41603.05	40659.65
855.8219	1050.926	41576.65	40633.1
855.9669	1052.9061	41485.7	40539.9
856.112	1054.8855	41398.95	40450.7
856.257	1056.8642	41366.9	40420.3
856.4021	1058.8421	41351.85	40398.35
856.5471	1060.8194	41242.7	40295.95
856.6921	1062.7959	41212.6	40263.8
856.8372	1064.7717	41139.9	40194.55
856.9822	1066.7469	41149.15	40198.55
857.1272	1068.7213	41045.85	40094.5
857.2723	1070.695	41041.9	40094.5
857.4173	1072.6679	40842.95	39897.9
857.5623	1074.6402	40854.55	39903.8
857.7073	1076.6117	40757.2	39801.9
857.8523	1078.5826	40672.2	39724
857.9973	1080.5527	40443.95	39493.8
858.1423	1082.5221	40249.25	39299.7
858.2873	1084.4908	40256.95	39310.75
858.4323	1086.4587	40185.85	39236.95
858.5773	1088.426	40167.7	39218.65
858.7223	1090.3925	40030.95	39080.95
858.8673	1092.3584	40023.8	39077.1
859.0123	1094.3235	39760.85	38813.5
859.1573	1096.2879	39779.95	38835.2
859.3022	1098.2515	39745.6	38798.6
859.4472	1100.2145	39774.6	38831.8
859.5922	1102.1767	39769.7	38824.05
859.7371	1104.1382	39845.4	38900.85
859.8821	1106.099	39887.35	38938.15
860.027	1108.0591	39966.1	39024.75
860.172	1110.0185	39884.15	38938.55
860.3169	1111.9771	40015.05	39073
860.4619	1113.9351	39757.25	38808.55
860.6068	1115.8923	39507.95	38565.6
860.7517	1117.8488	39204.8	38259.15
860.8967	1119.8045	38875.95	37930.25
861.0416	1121.7596	38733.2	37790.1
861.1865	1123.7139	38609.05	37665.1
861.3314	1125.6675	38435.7	37492.45
861.4763	1127.6204	38463.45	37518.3
861.6212	1129.5726	38276	37327.1
861.7661	1131.524	38233.95	37290.3
861.911	1133.4748	38108.5	37163.55
862.0559	1135.4248	37840.3	36894.4
862.2008	1137.3741	37668.3	36721.65
862.3457	1139.3226	37518.25	36574.35
862.4905	1141.2705	37440.7	36494.55
862.6354	1143.2176	37226.2	36275.5
862.7803	1145.164	37063.4	36117.05
862.9251	1147.1097	37004.25	36055.35
863.07	1149.0546	36932.55	35987.6
863.2148	1150.9989	36833.7	35886.25
863.3597	1152.9424	36652.7	35706.5
863.5045	1154.8852	36505.05	35563.65
863.6493	1156.8272	36425.1	35480.55
863.7942	1158.7686	36453.8	35502.35
863.939	1160.7092	36237.55	35291.75
864.0838	1162.6491	36103.25	35153.6
864.2286	1164.5883	36190.25	35248.35
864.3734	1166.5267	36158.55	35211.55
864.5182	1168.4644	36279.25	35334.45
864.663	1170.4014	36235.6	35290.25
864.8078	1172.3377	36451.8	35511.25
864.9526	1174.2732	36626.05	35684.5
865.0974	1176.2081	36812.75	35871.15
865.2421	1178.1421	37034.3	36086.2
865.3869	1180.0755	37390.4	36450.9
865.5317	1182.0082	37478.4	36532.25
865.6764	1183.9401	37605.05	36665.6
865.8212	1185.8713	37332.45	36396.9
865.9659	1187.8017	37029.15	36096.15
866.1106	1189.7315	36740.75	35815.5
866.2554	1191.6605	36307.9	35381.3
866.4001	1193.5888	36003.15	35070.25
866.5448	1195.5163	35759.65	34822.7
866.6895	1197.4432	35599.7	34657.15
866.8342	1199.3693	35413.8	34475
866.9789	1201.2947	35280.9	34336.15
867.1236	1203.2193	35203.45	34263
867.2683	1205.1432	35077.05	34135.05
867.413	1207.0664	34942.9	34001.2
867.5576	1208.9889	34910	33966.25
867.7023	1210.9106	34764.95	33828.4
867.847	1212.8316	34616.75	33678.3
867.9916	1214.7519	34594.7	33646.5
868.1363	1216.6715	34503.75	33565.7
868.2809	1218.5903	34531.5	33591.15
868.4255	1220.5084	34451.7	33507.45
868.5701	1222.4257	34515	33573.45
868.7148	1224.3424	34339.7	33400.75
868.8594	1226.2583	34365.65	33430.75
869.004	1228.1735	34394.2	33455.3
869.1486	1230.0879	34320.35	33378.9
869.2932	1232.0016	34428.65	33489.05
869.4377	1233.9146	34425	33484.05
869.5823	1235.8269	34324.9	33386.9
869.7269	1237.7384	34260.65	33323.25
869.8715	1239.6492	33965.75	33028.65
870.016	1241.5592	33930.95	32990.25
870.1606	1243.4686	33806.05	32867.6
870.3051	1245.3772	33800.15	32863.95
870.4496	1247.285	33864.8	32925.6
870.5941	1249.1922	33810.6	32872.8
870.7387	1251.0986	33872	32931.6
870.8832	1253.0042	33798.65	32861
871.0277	1254.9092	33833.2	32896.5
871.1722	1256.8134	33757.7	32821.1
871.3167	1258.7169	33882.4	32943.4
871.4611	1260.6196	33903	32964.55
871.6056	1262.5216	34072.9	33133.2
871.7501	1264.4229	34100.1	33162.25
871.8945	1266.3234	34234.3	33293.4
872.039	1268.2232	34298.55	33358.35
872.1834	1270.1223	34165.2	33226.1
872.3278	1272.0207	34161.65	33223.2
872.4723	1273.9183	34109.6	33166.15
872.6167	1275.8151	33954.35	33015.8
872.7611	1277.7113	33920.7	32982.65
872.9055	1279.6067	33781.75	32846.6
873.0499	1281.5014	33861.35	32922.3
873.1943	1283.3953	34037.4	33094.4
873.3386	1285.2885	34290.35	33352.15
873.483	1287.181	34520.25	33584
873.6274	1289.0727	34830.5	33895.55
873.7717	1290.9637	34925.15	33987.25
873.9161	1292.854	35136.95	34200.75
874.0604	1294.7435	34996	34058.15
874.2047	1296.6323	34982.9	34047.6
874.349	1298.5204	34860.8	33921.3
874.4933	1300.4077	34741.7	33806.75
874.6376	1302.2943	34532.35	33593.6
874.7819	1304.1802	34314.1	33378.05
874.9262	1306.0653	34002.05	33061.4
875.0705	1307.9497	33633.25	32697.1
875.2147	1309.8333	33349	32412.55
875.359	1311.7162	33083.85	32146.8
875.5032	1313.5984	32893.35	31954.85
875.6475	1315.4798	32673.6	31724.65
875.7917	1317.3605	32624.85	31674.1
875.9359	1319.2405	32571.8	31629
876.0801	1321.1197	32323.05	31382.3
876.2243	1322.9982	32036.2	31097.05
876.3685	1324.876	31913.1	30976.5
876.5127	1326.753	31603.35	30666.7
876.6569	1328.6293	31505.35	30567.85
876.801	1330.5048	31411.1	30469.5
876.9452	1332.3796	31187.05	30248.55
877.0893	1334.2537	31084.95	30125.5
877.2335	1336.127	30933.35	29996.1
877.3776	1337.9996	30847.5	29913.6
877.5217	1339.8714	30800.25	29862.35
877.6658	1341.7426	30764.2	29780
877.8099	1343.6129	30741.6	29802.65
877.954	1345.4826	30673.85	29737.4
878.0981	1347.3515	30678.55	29737.15
878.2422	1349.2196	30575	29637.55
878.3862	1351.087	30605.15	29668.25
878.5303	1352.9537	30550.25	29612.9
878.6743	1354.8197	30622.55	29686.5
878.8184	1356.6849	30721.6	29783.9
878.9624	1358.5493	30706.8	29769.9
879.1064	1360.4131	30809.8	29873
879.2504	1362.276	30819.35	29885.8
879.3944	1364.1383	30751.75	29814.3
879.5384	1365.9998	30548.7	29607.9
879.6823	1367.8606	30221.55	29285.6
879.8263	1369.7206	29904.65	28966.45
879.9702	1371.5799	29571.7	28632.05
880.1142	1373.4384	29306.75	28370.4
880.2581	1375.2962	29103.65	28163.6
880.402	1377.1533	28720.85	27786.85
880.5459	1379.0096	28355.4	27424.05
880.6898	1380.8652	28074.4	27144.1
880.8337	1382.7201	27802.85	26870.6
880.9776	1384.5742	27459.4	26525.15
881.1215	1386.4275	27227.75	26294.45
881.2653	1388.2802	27013.7	26080.7
881.4092	1390.132	26857.2	25920.6
881.553	1391.9832	26822.15	25883.1
881.6968	1393.8336	26563.6	25628.4
881.8406	1395.6832	26472.05	25533.6
881.9844	1397.5322	26366.9	25429.5
882.1282	1399.3803	26302	25360.7
882.272	1401.2278	26157.6	25223
882.4158	1403.0745	26067	25131
882.5595	1404.9204	25947.2	25012.6
882.7033	1406.7656	25936.15	25001.55
882.847	1408.6101	25841.7	24903.95
882.9908	1410.4538	25757	24822.9
883.1345	1412.2968	25735.5	24800
883.2782	1414.139	25675.35	24741
883.4219	1415.9805	25716.55	24781.55
883.5656	1417.8213	25688.15	24735.3
883.7092	1419.6613	25723.5	24790.15
883.8529	1421.5006	25803.25	24868.8
883.9965	1423.3391	25815.3	24881.15
884.1402	1425.1769	25973.25	25037.65
884.2838	1427.0139	26312.3	25379.6
884.4274	1428.8502	26696.2	25762.75
884.571	1430.6858	27056.35	26122.8
884.7146	1432.5206	27261.8	26331.3
884.8582	1434.3547	27463.55	26529.45
885.0018	1436.188	27408.25	26476.2
885.1453	1438.0206	27348.45	26416.9
885.2889	1439.8524	27144.55	26213
885.4324	1441.6835	26971.15	26038.25
885.5759	1443.5139	26850.2	25915.1
885.7194	1445.3435	26709.05	25780.3
885.8629	1447.1724	26662.25	25728.95
886.0064	1449.0005	26600.05	25667.2
886.1499	1450.8279	26524.35	25592.75
886.2933	1452.6545	26461.4	25530.65
886.4368	1454.4804	26492.15	25563.5
886.5802	1456.3056	26457.25	25524.9
886.7237	1458.13	26330.2	25401.7
886.8671	1459.9536	26201.35	25269
887.0105	1461.7766	25945.7	25014.85
887.1539	1463.5987	25605.15	24671.1
887.2972	1465.4202	25304.05	24373.8
887.4406	1467.2409	24925.1	23992.45
887.584	1469.0608	24710.35	23779.95
887.7273	1470.88	24489.35	23558.65
887.8706	1472.6984	24267.6	23336.2
888.0139	1474.5161	24050.75	23116.85
888.1572	1476.3331	23871.6	22943.05
888.3005	1478.1493	23720.1	22788.65
888.4438	1479.9648	23678.35	22748
888.5871	1481.7795	23546.15	22615
888.7303	1483.5935	23499.75	22568.15
888.8736	1485.4067	23394.75	22463.6
889.0168	1487.2192	23331.05	22399.7
889.16	1489.031	23273.5	22340.6
889.3032	1490.842	23186.15	22252.8
889.4464	1492.6522	23114.15	22185.1
889.5896	1494.4618	23037.2	22108
889.7327	1496.2705	23026.7	22096.65
889.8759	1498.0785	22928.25	21997.05
890.019	1499.8858	22887.6	21954.8
890.1622	1501.6924	22802.05	21874.2
890.3053	1503.4981	22756.2	21826.25
890.4484	1505.3032	22681.1	21749.25
890.5914	1507.1075	22622.55	21693.15
890.7345	1508.911	22526.8	21596.6
890.8776	1510.7138	22469.15	21541.25
891.0206	1512.5159	22355.75	21425.55
891.1637	1514.3172	22281.85	21353.35
891.3067	1516.1178	22190.6	21263.3
891.4497	1517.9176	22136.35	21203
891.5927	1519.7166	22059.5	21131
891.7357	1521.515	21978.75	21045.25
891.8786	1523.3126	21914.7	20985.8
892.0216	1525.1094	21872.2	20940.8
892.1645	1526.9055	21722.15	20798.15
892.3074	1528.7008	21691.9	20764.55
892.4503	1530.4954	21573.7	20640.75
892.5932	1532.2893	21532.8	20609.75
892.7361	1534.0824	21363.95	20435.85
892.879	1535.8747	21408.3	20487.55
893.0218	1537.6663	21337.95	20413.7
893.1647	1539.4572	21249.35	20323.35
893.3075	1541.2473	21229.45	20305.4
893.4503	1543.0367	21179.3	20255.25
893.5931	1544.8253	21110.8	20182.6
893.7359	1546.6132	21091.75	20161.15
893.8787	1548.4003	20995.55	20061.95
894.0214	1550.1867	21035.45	20103.95
894.1642	1551.9723	21074.55	20148.35
894.3069	1553.7572	21048.2	20127.6
894.4496	1555.5414	21077.45	20157.55
894.5923	1557.3247	21114.7	20193.75
894.735	1559.1074	21176.25	20257.75
894.8777	1560.8893	21225.45	20307.85
895.0204	1562.6705	21243.7	20324.3
895.163	1564.4509	21323.65	20405.95
895.3056	1566.2305	21274.65	20360.95
895.4482	1568.0094	21370	20455.1
895.5908	1569.7876	21350.25	20435.45
895.7334	1571.565	21300.95	20383.05
895.876	1573.3417	21266.4	20348.8
896.0186	1575.1176	21164.9	20246.15
896.1611	1576.8928	21171.9	20255.9
896.3036	1578.6672	21110.1	20201.45
896.4461	1580.4409	21014.65	20106.95
896.5886	1582.2138	20961.3	20046.85
896.7311	1583.986	20925.5	20013.15
896.8736	1585.7575	20937.05	20021.95
897.0161	1587.5282	20900.85	19990.95
897.1585	1589.2981	20970.5	20061.1
897.3009	1591.0673	20963	20055.6
897.4433	1592.8358	20939.8	20029.35
897.5857	1594.6035	20952.75	20035.9
897.7281	1596.3704	20981.35	20066.55
897.8705	1598.1366	20994	20081.55
898.0128	1599.9021	20988.15	20074.85
898.1551	1601.6668	21007.35	20093.6
898.2975	1603.4308	21041.7	20126.2
898.4398	1605.194	21144.6	20224.75
898.5821	1606.9564	21219	20311
898.7243	1608.7182	21367.2	20460.45
898.8666	1610.4791	21531	20631.2
899.0088	1612.2394	21714.05	20814.85
899.1511	1613.9988	21893.4	20990.35
899.2933	1615.7576	22067.45	21163.75
899.4355	1617.5156	22224.4	21304.8
899.5776	1619.2728	22309.7	21395.85
899.7198	1621.0293	22199.3	21286.75
899.862	1622.785	22045.35	21135.55
900.0041	1624.54	21806.85	20899.1
900.1462	1626.2942	21571.85	20666.1
900.2883	1628.0477	21184.05	20273.45
900.4304	1629.8005	20882.65	19968.95
900.5725	1631.5525	20585.2	19680.2
900.7145	1633.3037	20375	19469.55
900.8566	1635.0542	20159.35	19253.45
900.9986	1636.804	20000.4	19092.55
901.1406	1638.553	19913.8	18963.3
901.2826	1640.3013	19757.3	18848.95
901.4245	1642.0488	19689.2	18783.6
901.5665	1643.7955	19701.55	18796.5
901.7085	1645.5416	19699.35	18793.9
901.8504	1647.2868	19737.3	18830.75
901.9923	1649.0313	19753.8	18846
902.1342	1650.7751	19863.4	18954.5
902.2761	1652.5181	19953.45	19048.25
902.4179	1654.2604	19993.5	19089.75
902.5598	1656.0019	20137.5	19232.75
902.7016	1657.7427	20272.2	19365.65
902.8434	1659.4828	20478.95	19571.4
902.9852	1661.222	20563	19651.65
903.127	1662.9606	20526.15	19619.8
903.2687	1664.6984	20345.15	19436.65
903.4105	1666.4354	20045	19133
903.5522	1668.1717	19595.65	18684.5
903.6939	1669.9072	19069.65	18156.4
903.8356	1671.642	18700.4	17789.15
903.9773	1673.3761	18382.55	17473.9
904.119	1675.1094	18034.9	17126.35
904.2606	1676.8419	17801.2	16894.75
904.4022	1678.5737	17609	16701
904.5439	1680.3048	17439.7	16528.3
904.6855	1682.0351	17299.5	16388.3
904.827	1683.7646	17141.8	16228.2
904.9686	1685.4934	17062.6	16153.1
905.1101	1687.2215	16933.45	16026.4
905.2517	1688.9488	16822.8	15916.3
905.3932	1690.6754	16727.8	15819.8
905.5347	1692.4012	16690.05	15780.25
905.6761	1694.1263	16605.05	15695.3
905.8176	1695.8506	16548.2	15639.5
905.9591	1697.5742	16474.8	15567.75
906.1005	1699.297	16393.4	15488.95
906.2419	1701.0191	16291.3	15388.4
906.3833	1702.7404	16262.6	15359.55
906.5246	1704.461	16149.65	15242
906.666	1706.1808	16084.4	15177.8
906.8073	1707.8999	16078.65	15174.7
906.9487	1709.6182	15991.6	15089.95
907.09	1711.3358	15953.7	15053.1
907.2313	1713.0527	15848.05	14949.45
907.3725	1714.7688	15826.9	14919.4
907.5138	1716.4841	15721.3	14817.1
907.655	1718.1987	15742.3	14831.35
907.7962	1719.9126	15687.9	14787.9
907.9374	1721.6257	15576.8	14676.55
908.0786	1723.338	15577.25	14679.5
908.2198	1725.0496	15496.5	14594.8
908.3609	1726.7605	15442.3	14538.05
908.502	1728.4706	15411.1	14509.35
908.6431	1730.18	15283.9	14381.75
908.7842	1731.8886	15270.7	14371.65
908.9253	1733.5964	15258.65	14337.65
909.0664	1735.3036	15215.9	14311.7
909.2074	1737.0099	15152.8	14250.7
909.3484	1738.7156	15134.7	14236.55
909.4894	1740.4204	15046.2	14142.2
909.6304	1742.1246	15022.4	14119.4
909.7714	1743.8279	14966.75	14066.1
909.9123	1745.5306	14952.45	14053
910.0532	1747.2325	14886.95	13986.5
910.1941	1748.9336	14845.8	13946.2
910.335	1750.634	14785.5	13881.25
910.4759	1752.3336	14778.55	13878.1
910.6168	1754.0325	14738.3	13842.5
910.7576	1755.7307	14704.25	13805.8
910.8984	1757.4281	14697.7	13795.4
911.0392	1759.1247	14673.65	13760.3
911.18	1760.8206	14604.2	13691.95
911.3208	1762.5158	14607.4	13699.1
911.4615	1764.2102	14498.65	13596.4
911.6022	1765.9039	14483.4	13584.05
911.7429	1767.5968	14435	13540.2
911.8836	1769.289	14408.2	13510.25
912.0243	1770.9804	14370	13469.4
912.1649	1772.6711	14357.95	13453.2
912.3056	1774.361	14322.1	13419.8
912.4462	1776.0502	14284.4	13382.95
912.5868	1777.7386	14313.1	13409.25
912.7274	1779.4263	14225.1	13322.65
912.8679	1781.1132	14205.75	13308.5
913.0084	1782.7994	14140.35	13242.05
913.149	1784.4849	14099.45	13205
913.2895	1786.1696	14095.75	13195.15
913.4299	1787.8535	14065.4	13169.6
913.5704	1789.5367	14030.8	13135.9
913.7108	1791.2192	14029.95	13131.75
913.8513	1792.9009	13974.55	13049.9
913.9917	1794.5818	13910.6	13007.35
914.132	1796.2621	13882.05	12981
914.2724	1797.9415	13858.45	12959.7
914.4128	1799.6202	13803.65	12903.45
914.5531	1801.2982	13763.25	12864.3
914.6934	1802.9755	13727.35	12826.3
914.8337	1804.6519	13752.6	12851.2
914.9739	1806.3277	13666.15	12767.1
915.1142	1808.0027	13623.65	12729.95
915.2544	1809.6769	13593.7	12699.5
915.3946	1811.3504	13562.2	12667.9
915.5348	1813.0231	13534.65	12639.4
915.675	1814.6951	13514.95	12619
915.8151	1816.3664	13511.05	12608.65
915.9553	1818.0369	13482.9	12583.25
916.0954	1819.7067	13455.85	12557.35
916.2355	1821.3757	13433	12532.25
916.3755	1823.044	13398.7	12499.15
916.5156	1824.7115	13342.5	12439.85
916.6556	1826.3783	13299.9	12399.3
916.7956	1828.0443	13266	12368.35
916.9356	1829.7096	13234.55	12332.55
917.0756	1831.3741	13230.6	12329.45
917.2155	1833.0379	13176.05	12277.85
917.3555	1834.701	13165.15	12266.35
917.4954	1836.3633	13115.8	12220.3
917.6353	1838.0248	13102.75	12206.1
917.7751	1839.6856	13075.75	12178.25
917.915	1841.3457	13076.5	12178.6
918.0548	1843.005	13031.8	12133.6
918.1946	1844.6636	13007.2	12109.1
918.3344	1846.3214	12964.6	12066.15
918.4742	1847.9785	12968.7	12072.6
918.6139	1849.6349	12961.05	12059.75
918.7537	1851.2904	12934.2	12024.35
918.8934	1852.9453	12864.6	11962.1
919.0331	1854.5994	12830.2	11926.45
919.1727	1856.2528	12853.7	11951.25
919.3124	1857.9054	12807.45	11907.75
919.452	1859.5572	12805.8	11910.25
919.5916	1861.2083	12757.75	11858.55
919.7312	1862.8587	12744.4	11843.45
919.8708	1864.5084	12714.75	11810.8
920.0103	1866.1572	12674.35	11772.4
920.1498	1867.8054	12636	11732.75
920.2893	1869.4528	12615.15	11713.4
920.4288	1871.0994	12579.3	11676.6
920.5683	1872.7453	12564.45	11663
920.7077	1874.3905	12517.1	11611.45
920.8471	1876.0349	12496.35	11594.15
920.9865	1877.6786	12485.5	11582.8
921.1259	1879.3215	12488.3	11586.65
921.2653	1880.9637	12441.95	11541.4
921.4046	1882.6051	12425.55	11526.8
921.5439	1884.2458	12388.7	11488.95
921.6832	1885.8858	12331.65	11433.35
921.8225	1887.525	12320.5	11422.65
921.9617	1889.1634	12283.4	11383.4
922.101	1890.8011	12233.5	11333.75
922.2402	1892.4381	12232.2	11331.95
922.3794	1894.0743	12208.3	11309.5
922.5185	1895.7098	12171.5	11272.4
922.6577	1897.3446	12159.25	11260.15
922.7968	1898.9786	12118.6	11214.95
922.9359	1900.6118	12083.55	11186.2
923.075	1902.2443	12046.15	11146.9
923.214	1903.8761	12001.15	11100.25
923.3531	1905.5071	11961.1	11061.35
923.4921	1907.1374	11919.7	11020.9
923.6311	1908.7669	11911.15	11012.55
923.77	1910.3957	11860.85	10962.95
923.909	1912.0237	11816.7	10918.8
924.0479	1913.651	11798.15	10902.05
924.1868	1915.2776	11781.55	10886
924.3257	1916.9034	11719.8	10821.8
924.4646	1918.5285	11668.3	10773.6
924.6034	1920.1528	11644.3	10748.15
924.7422	1921.7764	11603.9	10704.55
924.881	1923.3992	11572.8	10676.5
925.0198	1925.0213	11524.05	10626.65
925.1586	1926.6427	11486.15	10589.9
925.2973	1928.2633	11533.95	10560.15
925.436	1929.8832	11437.15	10536.75
925.5747	1931.5023	11366.45	10468.8
925.7134	1933.1207	11319.65	10420.9
925.852	1934.7383	11337.55	10439.45
925.9906	1936.3552	11276.85	10381
926.1292	1937.9714	11267.9	10372.25
926.2678	1939.5868	11191.15	10292.55
926.4064	1941.2015	11139.25	10242.15
926.5449	1942.8154	11096.95	10198.9
926.6834	1944.4286	11080.4	10180.05
926.8219	1946.041	11052.45	10133.55
926.9604	1947.6528	11029.5	10126.65
927.0988	1949.2637	10986.75	10088.5
927.2372	1950.8739	10943.6	10048.3
927.3756	1952.4834	10899	10004.5
927.514	1954.0921	10908.7	10011.9
927.6523	1955.7001	10886.8	9987.2
927.7907	1957.3074	10820.55	9927.75
927.929	1958.9139	10768.4	9875.55
928.0673	1960.5197	10764.5	9868.75
928.2055	1962.1247	10711.2	9816.55
928.3438	1963.729	10648.4	9754.9
928.482	1965.3325	10634.35	9716.7
928.6202	1966.9353	10585	9693.7
928.7584	1968.5374	10566.5	9672.3
928.8965	1970.1387	10539.35	9644.65
929.0346	1971.7393	10486.9	9591.85
929.1727	1973.3392	10483.05	9588.75
929.3108	1974.9383	10437.1	9545.2
929.4489	1976.5366	10386.4	9496.5
929.5869	1978.1342	10370.2	9476.55
929.7249	1979.7311	10347.4	9455.5
929.8629	1981.3273	10337.55	9444.85
930.0009	1982.9227	10281	9387.7
930.1388	1984.5173	10282.45	9391.65
930.2767	1986.1112	10202.3	9311.65
930.4146	1987.7044	10178.35	9289.05
930.5525	1989.2968	10164.25	9272.95
930.6904	1990.8885	10143.6	9248.6
930.8282	1992.4795	10114.3	9223.35
930.966	1994.0697	10090.25	9201.7
931.1038	1995.6592	10052.2	9162.65
931.2415	1997.2479	10031.85	9139.2
931.3793	1998.8359	10013.1	9122.4
931.517	2000.4232	9956.8	9069.95
931.6547	2002.0097	9943.65	9058.5
931.7923	2003.5955	9900.45	9012.1
931.93	2005.1805	9891.6	9001.25
932.0676	2006.7648	9857.95	8969.15
932.2052	2008.3484	9819.9	8931.35
932.3427	2009.9312	9820.85	8931.4
932.4803	2011.5133	9791.45	8905.85
932.6178	2013.0946	9756.3	8872.1
932.7553	2014.6752	9727.95	8841.9
932.8928	2016.2551	9712.7	8826.6
933.0302	2017.8342	9675.15	8786
933.1676	2019.4126	9640.35	8753.15
933.305	2020.9902	9609.4	8723.25
933.4424	2022.5672	9588.1	8701.5
933.5798	2024.1433	9564.9	8672.65
933.7171	2025.7188	9542.95	8657.6
933.8544	2027.2935	9524.8	8638.15
933.9917	2028.8674	9470.45	8585.5
934.129	2030.4406	9427.3	8543.25
934.2662	2032.0131	9424.65	8539.65
934.4034	2033.5849	9379.7	8490.95
934.5406	2035.1559	9381.65	8494.9
934.6778	2036.7261	9364.75	8477.8
934.8149	2038.2957	9353.8	8464.85
934.952	2039.8645	9333.1	8445.5
935.0891	2041.4325	9345.85	8454.1
935.2262	2042.9998	9293.2	8403.8
935.3632	2044.5664	9256.3	8369.65
935.5002	2046.1323	9213.6	8328.3
935.6372	2047.6974	9186.4	8303.5
935.7742	2049.2617	9175.3	8290
935.9111	2050.8254	9153.3	8242.4
936.048	2052.3883	9143.05	8254.5
936.1849	2053.9504	9088.7	8201.2
936.3218	2055.5118	9094.9	8206.1
936.4586	2057.0725	9055.05	8164.75
936.5955	2058.6325	9052.45	8163.95
936.7323	2060.1917	9008.5	8122.75
936.869	2061.7502	9001.6	8112.15
937.0058	2063.3079	8953.8	8068.45
937.1425	2064.8649	8938.3	8047.5
937.2792	2066.4212	8917.1	8029.05
937.4159	2067.9767	8907.65	8020.4
937.5525	2069.5315	8848.85	7960.2
937.6891	2071.0856	8825.7	7939.9
937.8257	2072.6389	8782.4	7897.1
937.9623	2074.1915	8748.4	7863.15
938.0989	2075.7433	8724.2	7838.9
938.2354	2077.2945	8690.3	7804.25
938.3719	2078.8448	8685.45	7797.65
938.5084	2080.3945	8660.75	7772.2
938.6448	2081.9434	8650.85	7760.7
938.7812	2083.4916	8589.25	7700.1
938.9176	2085.039	8564.4	7670.75
939.054	2086.5857	8572.35	7676.9
939.1903	2088.1317	8527.6	7633.95
939.3267	2089.677	8504.65	7612.1
939.463	2091.2215	8520.55	7626.1
939.5992	2092.7652	8497.7	7602.25
939.7355	2094.3083	8474.15	7579.75
939.8717	2095.8506	8437.65	7547.8
940.0079	2097.3921	8434.4	7546.3
940.1441	2098.933	8421.35	7531.15
940.2802	2100.4731	8417.75	7526.8
940.4163	2102.0124	8407.45	7509.75
940.5524	2103.5511	8369.75	7480.45
940.6885	2105.089	8345.4	7456.6
940.8245	2106.6261	8314.95	7423.15
940.9606	2108.1626	8316.85	7428.45
941.0965	2109.6983	8325.85	7407.55
941.2325	2111.2332	8271.05	7380.05
941.3684	2112.7675	8228.25	7337.8
941.5044	2114.301	8233.75	7342.45
941.6403	2115.8337	8216.25	7325.35
941.7761	2117.3657	8213.15	7322.95
941.912	2118.897	8175.9	7284.2
942.0478	2120.4276	8149.7	7253.4
942.1835	2121.9575	8117.65	7225.25
942.3193	2123.4866	8111.4	7217.9
942.455	2125.0149	8080.7	7186.5
942.5907	2126.5426	8040.25	7152.85
942.7264	2128.0695	8020.05	7128.15
942.8621	2129.5956	7991.2	7105.3
942.9977	2131.1211	7990.7	7100.85
943.1333	2132.6458	7976.3	7085.25
943.2689	2134.1698	7952.55	7060.85
943.4044	2135.693	7924.6	7029.4
943.54	2137.2155	7921.15	7027.45
943.6755	2138.7373	7900.35	7010.25
943.8109	2140.2584	7881.6	6993.75
943.9464	2141.7787	7866.25	6974.3
944.0818	2143.2983	7823.25	6937.75
944.2172	2144.8171	7774.4	6891.35
944.3526	2146.3353	7748.7	6859.55
944.4879	2147.8527	7748.05	6860.9
944.6232	2149.3693	7738.4	6848.15
944.7585	2150.8853	7701.5	6808.75
944.8938	2152.4005	7679.7	6787.95
945.029	2153.9149	7674.7	6784.05
945.1642	2155.4287	7750.1	6754.95
945.2994	2156.9417	7646.9	6756.65
945.4346	2158.454	7630.2	6738.9
945.5697	2159.9655	7595.45	6706.8
945.7048	2161.4764	7576.7	6686.9
945.8399	2162.9865	7558.65	6670.4
945.9749	2164.4958	7549.75	6662.4
946.1099	2166.0045	7535.65	6644
946.2449	2167.5124	7511.05	6623.7
946.3799	2169.0195	7494.85	6605.8
946.5148	2170.526	7496.55	6604.65
946.6498	2172.0317	7456.35	6564.3
946.7846	2173.5367	7431.25	6543.15
946.9195	2175.0409	7408.6	6518.65
947.0543	2176.5445	7418.45	6528.7
947.1891	2178.0473	7382.8	6489.4
947.3239	2179.5494	7351.2	6457.05
947.4587	2181.0507	7325.9	6436
947.5934	2182.5513	7286.95	6396.35
947.7281	2184.0512	7294.25	6405.3
947.8628	2185.5504	7263.2	6373
947.9974	2187.0488	7223.95	6334.5
948.132	2188.5465	7223.85	6335.5
948.2666	2190.0435	7174.95	6284.15
948.4012	2191.5397	7174.2	6284.6
948.5357	2193.0353	7177.3	6286.65
948.6702	2194.5301	7137.75	6244.4
948.8047	2196.0241	7100.6	6209.5
948.9392	2197.5175	7084.35	6189.75
949.0736	2199.0101	7065.35	6170.25
949.208	2200.502	7021.8	6133.55
949.3424	2201.9931	7017.2	6129.6
949.4767	2203.4835	6989.1	6100.1
949.611	2204.9733	7012.6	6106.1
949.7453	2206.4622	6970.1	6083.2
949.8796	2207.9505	6935.3	6045.4
950.0138	2209.438	6885.55	5999.65
950.148	2210.9248	6869.65	5982.2
950.2822	2212.4109	6868.45	5979.9
950.4164	2213.8962	6830.65	5938.4
950.5505	2215.3809	6828.35	5933.7
950.6846	2216.8648	6810.8	5915.95
950.8186	2218.3479	6801.35	5904.2
950.9527	2219.8304	6778.15	5880.65
951.0867	2221.3121	6762	5865.2
951.2207	2222.7931	6718.8	5825
951.3546	2224.2733	6706.2	5813.05
951.4886	2225.7529	6685.25	5794.45
951.6225	2227.2317	6657.75	5767.95
951.7563	2228.7098	6648.85	5761.15
951.8902	2230.1872	6628.8	5741.5
952.024	2231.6638	6615.1	5727.25
952.1578	2233.1397	6594.95	5703.3
952.2916	2234.6149	6578.5	5688.35
952.4253	2236.0894	6560.1	5671.7
952.559	2237.5632	6546.05	5654.8
952.6927	2239.0362	6520.75	5632.15
952.8263	2240.5085	6504.85	5615.7
952.9599	2241.9801	6493.2	5601.4
953.0935	2243.4509	6439	5547.35
953.2271	2244.921	6426.55	5534.15
953.3606	2246.3904	6417.95	5522.35
953.4941	2247.8591	6409.65	5518.7
953.6276	2249.3271	6388.6	5496.2
953.7611	2250.7943	6374.1	5481.35
953.8945	2252.2608	6356.55	5466.15
954.0279	2253.7266	6332.8	5442.2
954.1612	2255.1917	6307.9	5417.75
954.2946	2256.656	6281	5390.6
954.4279	2258.1197	6266.3	5378.7
954.5612	2259.5826	6254.05	5365.1
954.6944	2261.0447	6246	5354.2
954.8276	2262.5062	6209.2	5316
954.9608	2263.9669	6213.05	5320.1
955.094	2265.4269	6198.8	5306.6
955.2271	2266.8862	6180.15	5290.85
955.3602	2268.3448	6164.35	5273.85
955.4933	2269.8026	6166.6	5279.45
955.6264	2271.2598	6143.7	5255.05
955.7594	2272.7162	6125.7	5236.25
955.8924	2274.1719	6092.2	5197.45
956.0253	2275.6268	6096.8	5205.2
956.1583	2277.0811	6083.65	5191.05
956.2912	2278.5346	6068.15	5178.05
956.4241	2279.9874	6059.85	5171.45
956.5569	2281.4395	6059.85	5171.45
956.6897	2282.8908	6019.7	5126.45
956.8225	2284.3414	6001.25	5107.9
956.9553	2285.7914	5985.3	5095.9
957.088	2287.2406	5964.05	5072.5
957.2207	2288.689	5957.85	5065.65
957.3534	2290.1368	5942.9	5046.7
957.486	2291.5838	5935.65	5041.3
957.6186	2293.0302	5911.05	5014.45
957.7512	2294.4758	5889.2	4995.9
957.8838	2295.9206	5899.55	5008.1
958.0163	2297.3648	5873.05	4982.9
958.1488	2298.8082	5852.25	4961.35
958.2813	2300.251	5831.95	4942.5
958.4137	2301.693	5801.7	4905.25
958.5461	2303.1343	5810.85	4920.25
958.6785	2304.5748	5804.15	4913.1
958.8108	2306.0147	5766.95	4877.65
958.9432	2307.4538	5767.95	4875.35
959.0754	2308.8922	5741.25	4853.2
959.2077	2310.3299	5746.65	4858.1
959.3399	2311.7669	5690	4802.8
959.4721	2313.2031	5687.65	4799.65
959.6043	2314.6387	5663.45	4771.95
959.7365	2316.0735	5655.05	4763.2
959.8686	2317.5076	5633.35	4741.9
960.0006	2318.941	5622.75	4730.75
960.1327	2320.3737	5616.35	4723.3
960.2647	2321.8056	5602.95	4708.95
960.3967	2323.2369	5595.15	4702
960.5287	2324.6674	5571.3	4678.5
960.6606	2326.0972	5578.7	4686.7
960.7925	2327.5263	5538.45	4644.55
960.9244	2328.9547	5524.95	4633.25
961.0562	2330.3823	5508.8	4614.7
961.1881	2331.8092	5507.45	4610.75
961.3198	2333.2355	5470.35	4576.05
961.4516	2334.661	5461.35	4567.9
961.5833	2336.0858	5470.35	4575.9
961.715	2337.5098	5454.5	4561.15
961.8467	2338.9332	5444.45	4553.3
961.9783	2340.3558	5415.1	4520.9
962.1099	2341.7778	5410.4	4518.05
962.2415	2343.199	5379.7	4487.45
962.373	2344.6195	5379.5	4488.4
962.5045	2346.0393	5360.4	4470.1
962.636	2347.4583	5349.75	4457.25
962.7675	2348.8767	5342.65	4450.35
962.8989	2350.2943	5348.8	4456.75
963.0303	2351.7113	5327.85	4431.65
963.1617	2353.1275	5302.6	4407.3
963.293	2354.543	5299.2	4380.65
963.4243	2355.9578	5270.85	4375.65
963.5556	2357.3718	5246.8	4356.15
963.6868	2358.7852	5229.35	4337.35
963.818	2360.1978	5204	4312.6
963.9492	2361.6098	5198.2	4305.9
964.0803	2363.021	5200.3	4303.15
964.2114	2364.4315	5187.3	4296.25
964.3425	2365.8413	5161.05	4270.15
964.4736	2367.2504	5139	4247.1
964.6046	2368.6587	5108.45	4220.15
964.7356	2370.0664	5093.05	4202.1
964.8666	2371.4733	5086.75	4192.55
964.9975	2372.8795	5096.6	4205
965.1284	2374.285	5055.25	4164.65
965.2593	2375.6899	5058.75	4167.85
965.3901	2377.0939	5031.3	4139.75
965.5209	2378.4973	5018.65	4128.75
965.6517	2379.9	4987.35	4095.2
965.7825	2381.3019	4984.05	4091
965.9132	2382.7032	4984	4093.75
966.0439	2384.1037	4955.75	4065.9
966.1745	2385.5035	4935.9	4046.5
966.3051	2386.9027	4923.8	4037.4
966.4357	2388.3011	4917.6	4024.25
966.5663	2389.6987	4901.4	4009.85
966.6968	2391.0957	4894.1	4004.15
966.8273	2392.492	4871.4	3982.15
966.9578	2393.8876	4857.9	3966.65
967.0882	2395.2824	4833.3	3942.15
967.2186	2396.6765	4830.6	3940.3
967.349	2398.07	4822	3930.05
967.4793	2399.4627	4807.1	3911.75
967.6097	2400.8547	4783.55	3891.55
967.7399	2402.246	4783.4	3884
967.8702	2403.6366	4744.6	3852.2
968.0004	2405.0265	4728.7	3839.2
968.1306	2406.4156	4718.85	3825.25
968.2607	2407.8041	4711.65	3815.95
968.3909	2409.1918	4678.5	3783.4
968.521	2410.5789	4667.4	3775.15
968.651	2411.9652	4656.3	3759.85
968.781	2413.3508	4640.45	3746.75
968.911	2414.7358	4622.55	3730.35
969.041	2416.12	4627.45	3735.1
969.1709	2417.5035	4607.75	3716.7
969.3008	2418.8863	4598.7	3704.6
969.4307	2420.2684	4594.5	3701.65
969.5606	2421.6497	4570.05	3676.75
969.6904	2423.0304	4552.25	3661
969.8201	2424.4104	4537.2	3643.8
969.9499	2425.7896	4525.5	3633.75
970.0796	2427.1682	4507	3614.05
970.2093	2428.546	4487.95	3593.5
970.3389	2429.9232	4496.4	3602.45
970.4685	2431.2996	4482.3	3589.8
970.5981	2432.6753	4469.7	3576.8
970.7277	2434.0503	4467.85	3573.6
970.8572	2435.4246	4439	3546.1
970.9867	2436.7982	4438.9	3543.65
971.1161	2438.1711	4431.35	3538.85
971.2456	2439.5433	4391.2	3498.05
971.375	2440.9148	4390.25	3491.35
971.5043	2442.2856	4375.3	3482.3
971.6336	2443.6557	4358.45	3464.1
971.7629	2445.025	4341.3	3448.3
971.8922	2446.3937	4334.7	3439.9
972.0214	2447.7617	4320.35	3428.2
972.1506	2449.1289	4309.65	3416.65
972.2798	2450.4955	4310.45	3413.75
972.4089	2451.8613	4292.2	3399.7
972.538	2453.2265	4275.15	3384.2
972.6671	2454.5909	4285	3391.4
972.7961	2455.9546	4265.4	3373.7
972.9251	2457.3177	4250.45	3357.75
973.0541	2458.68	4236.9	3343.05
973.1831	2460.0416	4252.8	3359.55
973.312	2461.4025	4236.3	3341.2
973.4408	2462.7627	4243.9	3340.45
973.5697	2464.1222	4199.8	3309.25
973.6985	2465.4811	4194.15	3304.65
973.8273	2466.8392	4172.4	3282.65
973.956	2468.1966	4174.15	3281.35
974.0847	2469.5533	4164.25	3270.2
974.2134	2470.9093	4157.2	3264.4
974.3421	2472.2645	4152.7	3264.15
974.4707	2473.6191	4153.4	3260.6
974.5993	2474.973	4135.4	3244.85
974.7278	2476.3262	4123.6	3232.15
974.8563	2477.6787	4082.8	3191.9
974.9848	2479.0305	4070.9	3179.15
975.1132	2480.3816	4072.85	3180.05
975.2417	2481.7319	4057.2	3166
975.37	2483.0816	4033.7	3140.35
975.4984	2484.4306	4036.35	3143.95
975.6267	2485.7789	4022.85	3132.55
975.755	2487.1264	4008.4	3116.3
975.8833	2488.4733	3992	3100.85
976.0115	2489.8195	4001.7	3094.25
976.1397	2491.165	3989.9	3094.75
976.2678	2492.5097	3976.4	3082.45
976.3959	2493.8538	3949.05	3058.75
976.524	2495.1972	3940.3	3049.3
976.6521	2496.5398	3921.4	3028.85
976.7801	2497.8818	3927.7	3032.65
976.9081	2499.2231	3905.05	3012
977.036	2500.5637	3890.55	2996.8
977.164	2501.9035	3877.75	2983.1
977.2918	2503.2427	3871.25	2977.65
977.4197	2504.5812	3868.65	2976.6
977.5475	2505.919	3870.35	2976.2
977.6753	2507.256	3852.5	2961.65
977.8031	2508.5924	3831.65	2941.1
977.9308	2509.9281	3835.85	2938.65
978.0585	2511.2631	3824.9	2932.65
978.1861	2512.5974	3799.7	2908.2
978.3137	2513.9309	3790.6	2899.45
978.4413	2515.2638	3812.6	2891
978.5689	2516.596	3772.8	2881.4
978.6964	2517.9275	3752.65	2858.6
978.8239	2519.2583	3746.7	2855.25
978.9513	2520.5884	3737.1	2845.35
979.0788	2521.9178	3721.95	2831.3
979.2062	2523.2465	3710.8	2818.45
979.3335	2524.5745	3695.15	2803.85
979.4608	2525.9018	3681.35	2788.25
979.5881	2527.2284	3683.5	2792.45
979.7154	2528.5543	3667.4	2774
979.8426	2529.8796	3657.45	2765.15
979.9698	2531.2041	3659.7	2768.7
980.0969	2532.5279	3661.6	2770.75
980.224	2533.851	3662.45	2773.5
980.3511	2535.1735	3629.1	2737.9
980.4781	2536.4952	3636.6	2743.9
980.6052	2537.8163	3633.65	2740.15
980.7321	2539.1366	3614.45	2720.7
980.8591	2540.4562	3607.2	2715.1
980.986	2541.7752	3618	2725.1
981.1129	2543.0935	3601.75	2708.65
981.2397	2544.411	3601.05	2706.15
981.3665	2545.7279	3606.05	2713.15
981.4933	2547.0441	3595.4	2701.95
981.62	2548.3596	3594.5	2699.55
981.7467	2549.6744	3575.65	2682.65
981.8734	2550.9885	3562.5	2669.45
982.0001	2552.3019	3554.05	2662.85
982.1267	2553.6146	3556	2663.2
982.2532	2554.9266	3536.05	2643.95
982.3798	2556.2379	3519.95	2626.15
982.5063	2557.5485	3535.1	2645.55
982.6327	2558.8585	3526.35	2626
982.7592	2560.1677	3510.65	2611.75
982.8856	2561.4762	3509	2616.65
983.0119	2562.7841	3498.85	2604.25
983.1383	2564.0913	3491.4	2599.95
983.2646	2565.3977	3480	2588.55
983.3908	2566.7035	3473.6	2580.45
983.517	2568.0086	3469.2	2573.45
983.6432	2569.313	3462	2568.4
983.7694	2570.6167	3448.35	2552.85
983.8955	2571.9197	3443.65	2552.9
984.0216	2573.222	3454.35	2561.45
984.1476	2574.5236	3433.4	2539.35
984.2737	2575.8246	3433.25	2540.9
984.3996	2577.1248	3431.9	2535.6
984.5256	2578.4244	3407.5	2515.45
984.6515	2579.7232	3410.35	2517.9
984.7774	2581.0214	3425.45	2504.65
984.9032	2582.3189	3404.2	2513.65
985.029	2583.6157	3409.8	2513.9
985.1548	2584.9118	3386.85	2494.35
985.2806	2586.2072	3388.2	2495.75
985.4063	2587.5019	3376.95	2485.65
985.5319	2588.7959	3383.45	2491.15
985.6576	2590.0893	3368.45	2476.5
985.7832	2591.3819	3358.95	2466.35
985.9087	2592.6739	3353.9	2463.55
986.0343	2593.9652	3346.5	2453.7
986.1597	2595.2557	3331.9	2440.55
986.2852	2596.5456	3327.4	2433.5
986.4106	2597.8348	3308.05	2417
986.536	2599.1234	3311.1	2417.75
986.6614	2600.4112	3316.95	2425.85
986.7867	2601.6983	3307.6	2412.75
986.912	2602.9848	3276.6	2382.95
987.0372	2604.2705	3286.05	2388.2
987.1624	2605.5556	3266.65	2375.55
987.2876	2606.84	3262.5	2372.95
987.4128	2608.1237	3259.25	2366.85
987.5379	2609.4067	3244.05	2352.25
987.6629	2610.689	3238.3	2337.35
987.788	2611.9707	3227.3	2330.35
987.913	2613.2516	3218.6	2322.75
988.0379	2614.5319	3205.6	2314.8
988.1629	2615.8115	3192.55	2300.6
988.2878	2617.0903	3193.8	2300.4
988.4126	2618.3685	3180.85	2289.75
988.5375	2619.6461	3152.85	2262.15
988.6622	2620.9229	3143.6	2253.8
988.787	2622.199	3136.15	2243.9
988.9117	2623.4745	3141.55	2249.1
989.0364	2624.7493	3135.55	2242.35
989.161	2626.0234	3126.95	2238.1
989.2857	2627.2968	3123.55	2232.7
989.4102	2628.5695	3113.75	2220.55
989.5348	2629.8415	3094.95	2201.55
989.6593	2631.1128	3079.55	2185.95
989.7837	2632.3835	3085.65	2194.35
989.9082	2633.6535	3072.15	2182.45
990.0326	2634.9228	3067.55	2178.15
990.1569	2636.1914	3052.05	2161.1
990.2812	2637.4593	3051.4	2158.05
990.4055	2638.7265	3044.05	2152.95
990.5298	2639.9931	3039.6	2149.35
990.654	2641.259	3026.2	2133.9
990.7782	2642.5242	3017.95	2125.5
990.9023	2643.7887	3005.15	2113.8
991.0264	2645.0525	3006.6	2114.95
991.1505	2646.3156	3013.15	2108.4
991.2745	2647.5781	3004.45	2112.65
991.3985	2648.8398	2974.25	2084.7
991.5225	2650.1009	2991.05	2074.6
991.6464	2651.3613	2974.1	2083.4
991.7703	2652.6211	2956.95	2066.35
991.8942	2653.8801	2965.8	2075.25
992.018	2655.1385	2953.45	2058.85
992.1418	2656.3961	2956.8	2065.3
992.2655	2657.6531	2938.8	2048.25
992.3892	2658.9094	2929.45	2037.6
992.5129	2660.1651	2929.8	2039.05
992.6366	2661.42	2921	2032.45
992.7602	2662.6743	2924.6	2035.2
992.8837	2663.9279	2911.7	2023.8
993.0073	2665.1808	2901.75	2012.5
993.1307	2666.433	2921.45	2029.4
993.2542	2667.6846	2897	2007.45
993.3776	2668.9354	2914.45	2021.25
993.501	2670.1856	2888.5	1996.8
993.6244	2671.4351	2890.7	2001.5
993.7477	2672.6839	2885.5	1993.2
993.8709	2673.9321	2892.25	2004.4
993.9942	2675.1795	2893.7	2002.7
994.1174	2676.4263	2887.3	1997.75
994.2405	2677.6724	2861.65	1970.95
994.3637	2678.9179	2854.45	1961.8
994.4868	2680.1626	2861.25	1971.85
994.6098	2681.4067	2854.3	1961.75
994.7328	2682.6501	2858.35	1966.85
994.8558	2683.8928	2845.95	1954.75
994.9788	2685.1348	2825.45	1934.4
995.1017	2686.3761	2815.85	1926.95
995.2245	2687.6168	2818.2	1927.95
995.3474	2688.8568	2807.6	1917.9
995.4702	2690.0961	2797.75	1908.2
995.5929	2691.3348	2789.25	1897.3
995.7156	2692.5727	2774.7	1886.15
995.8383	2693.81	2779.35	1888.75
995.961	2695.0466	2780	1891.75
996.0836	2696.2826	2762.85	1870.55
996.2062	2697.5178	2758.65	1865.2
996.3287	2698.7524	2762.7	1871.25
996.4512	2699.9863	2751.35	1857.4
996.5737	2701.2195	2744.2	1856.7
996.6961	2702.452	2744.8	1854.15
996.8185	2703.6839	2749.35	1858.25
996.9408	2704.9151	2745.8	1857
997.0631	2706.1456	2738.95	1847.9
997.1854	2707.3755	2734.2	1842.45
997.3077	2708.6046	2732.7	1837.95
997.4299	2709.8331	2729.05	1839.2
997.552	2711.0609	2715.85	1826.2
997.6742	2712.2881	2734.75	1846.7
997.7963	2713.5145	2724.5	1832.1
997.9183	2714.7403	2737.85	1850
998.0403	2715.9654	2725.8	1833.45
998.1623	2717.1899	2748.4	1843.45
998.2842	2718.4136	2731.95	1841.55
998.4062	2719.6367	2746.45	1856.45
998.528	2720.8591	2755.45	1860.35
998.6498	2722.0809	2733.3	1845.05
998.7716	2723.3019	2741.5	1848.65
998.8934	2724.5223	2728.65	1837.55
999.0151	2725.7421	2750.65	1859.95
999.1368	2726.9611	2742.75	1851.15
999.2584	2728.1795	2733.45	1838.35
999.38	2729.3972	2719.85	1829.1
999.5016	2730.6142	2714.9	1817.9
999.6231	2731.8306	2686.2	1795.6
999.7446	2733.0462	2664.25	1773.15
999.8661	2734.2612	2677.45	1784.3
999.9875	2735.4756	2646.45	1754.75
1000.1089	2736.6892	2627.2	1736.15
1000.2302	2737.9022	2610.45	1721.1
1000.3515	2739.1145	2583.65	1694.35
1000.4728	2740.3262	2590.55	1691.1
1000.594	2741.5372	2568.6	1677.9
1000.7152	2742.7475	2548.4	1658.05
1000.8363	2743.9571	2544.75	1652.75
1000.9575	2745.1661	2526.6	1632.5
1001.0785	2746.3744	2520.85	1630.45
1001.1996	2747.582	2514.65	1627.5
1001.3206	2748.7889	2496.95	1607.25
1001.4415	2749.9952	2477.9	1588.4
1001.5625	2751.2008	2476.45	1586.05
1001.6833	2752.4057	2467.5	1576.6
1001.8042	2753.61	2458.2	1566.3
1001.925	2754.8136	2451.7	1562.75
1002.0458	2756.0165	2460.3	1571.15
1002.1665	2757.2188	2439.05	1553.05
1002.2872	2758.4204	2437.3	1549.45
1002.4078	2759.6213	2429.4	1538.05
1002.5285	2760.8215	2428.4	1536.05
1002.649	2762.0211	2424.1	1532.7
1002.7696	2763.22	2423.05	1529.95
1002.8901	2764.4182	2422.75	1532.15
1003.0106	2765.6158	2408.3	1520.2
1003.131	2766.8127	2398.05	1508.25
1003.2514	2768.009	2387.6	1500.1
1003.3717	2769.2045	2379.9	1489.7
1003.492	2770.3994	2385.9	1496.3
1003.6123	2771.5936	2387.95	1497.55
1003.7325	2772.7872	2367.15	1479.75
1003.8527	2773.9801	2355.9	1465.3
1003.9729	2775.1723	2368.65	1464.25
1004.093	2776.3639	2364.4	1475.5
1004.2131	2777.5548	2335.2	1445.1
1004.3331	2778.745	2335.4	1444.9
1004.4531	2779.9346	2330.4	1442.4
1004.5731	2781.1235	2345.7	1457.4
1004.693	2782.3117	2333.2	1445.3
1004.8129	2783.4992	2327.7	1441
1004.9328	2784.6861	2320.6	1432.3
1005.0526	2785.8723	2323.65	1433.5
1005.1723	2787.0579	2319.15	1430.3
1005.2921	2788.2428	2323.45	1433.7
1005.4118	2789.427	2308.55	1421.4
1005.5314	2790.6106	2310.65	1423.2
1005.651	2791.7935	2322.75	1432.5
1005.7706	2792.9757	2317.65	1430.65
1005.8902	2794.1573	2317.9	1428.75
1006.0097	2795.3382	2318.85	1431.1
1006.1291	2796.5184	2318.15	1430.65
1006.2485	2797.698	2338.15	1447.3
1006.3679	2798.8769	2351.45	1463.8
1006.4873	2800.0551	2345.45	1456.1
1006.6066	2801.2327	2351.7	1462.5
1006.7258	2802.4096	2347.9	1459.75
1006.8451	2803.5859	2366.9	1478.95
1006.9642	2804.7615	2365	1474.65
1007.0834	2805.9364	2378.3	1491.5
1007.2025	2807.1106	2389.8	1502.7
1007.3216	2808.2842	2411.6	1524.15
1007.4406	2809.4572	2414.85	1526.35
1007.5596	2810.6294	2445.05	1556.65
1007.6785	2811.801	2474.8	1586.75
1007.7975	2812.972	2486.6	1600.25
1007.9163	2814.1423	2513.15	1626.85
1008.0352	2815.3119	2547	1659.45
1008.154	2816.4808	2577	1689.6
1008.2727	2817.6491	2617.7	1729.2
1008.3914	2818.8167	2641.15	1754.9
1008.5101	2819.9837	2684.4	1792.5
1008.6288	2821.15	2720.55	1832.95
1008.7474	2822.3157	2764.5	1878.3
1008.8659	2823.4807	2796.2	1910.2
1008.9844	2824.645	2842.1	1953.5
1009.1029	2825.8086	2881.55	1994.95
1009.2214	2826.9716	2917.1	2029.05
1009.3398	2828.134	2973.1	2086.2
1009.4581	2829.2957	2998.5	2110.55
1009.5764	2830.4567	3016.65	2128.55
1009.6947	2831.617	3022.85	2134.7
1009.813	2832.7767	3056.9	2171.3
1009.9312	2833.9358	3034.1	2147.4
1010.0493	2835.0941	3028.35	2139.65
1010.1675	2836.2519	3017.6	2129.4
1010.2855	2837.4089	2992.9	2105.6
1010.4036	2838.5653	2976.9	2088.75
1010.5216	2839.7211	2967.85	2083.9
1010.6396	2840.8761	2963.45	2076.05
1010.7575	2842.0306	2964.25	2078.4
1010.8754	2843.1843	2980.1	2093.2
1010.9932	2844.3374	3009.7	2123.95
1011.111	2845.4899	3039.5	2150.35
1011.2288	2846.6417	3089.45	2201.6
1011.3465	2847.7928	3120.55	2234.05
1011.4642	2848.9433	3175.7	2287.7
1011.5818	2850.0931	3210.15	2324.55
1011.6995	2851.2422	3270.15	2382.15
1011.817	2852.3907	3322.85	2434.7
1011.9345	2853.5385	3358.7	2470.65
1012.052	2854.6857	3409.5	2514.15
1012.1695	2855.8323	3413	2524.5
1012.2869	2856.9781	3456.85	2569.3
1012.4042	2858.1233	3491.8	2603.65
1012.5216	2859.2679	3509.4	2622.45
1012.6389	2860.4118	3553.4	2666.6
1012.7561	2861.555	3595.85	2705.3
1012.8733	2862.6976	3634.15	2743.6
1012.9905	2863.8395	3651.7	2766.6
1013.1076	2864.9808	3659.85	2773.95
1013.2247	2866.1214	3669.2	2785.3
1013.3417	2867.2614	3707.55	2822.65
1013.4587	2868.4007	3715.25	2826.5
1013.5757	2869.5393	3711.8	2824.85
1013.6926	2870.6773	3720.75	2830.85
1013.8095	2871.8146	3723.7	2832.75
1013.9263	2872.9513	3710.25	2823.25
1014.0431	2874.0874	3703.75	2816.5
1014.1599	2875.2227	3706.75	2821.2
1014.2766	2876.3574	3674.05	2786.25
1014.3933	2877.4915	3653.65	2767.2
1014.51	2878.6249	3633.2	2749.2
1014.6266	2879.7577	3612.95	2725.2
1014.7431	2880.8898	3596.25	2700.05
1014.8596	2882.0212	3567.6	2680.2
1014.9761	2883.152	3574.35	2687.2
1015.0925	2884.2821	3545.95	2660.8
1015.2089	2885.4116	3551.5	2668.45
1015.3253	2886.5405	3531.5	2643.65
1015.4416	2887.6686	3550.3	2660.35
1015.5579	2888.7962	3542.35	2657.3
1015.6741	2889.923	3532.35	2647.85
1015.7903	2891.0493	3544	2660.95
1015.9065	2892.1748	3551.55	2664.9
1016.0226	2893.2997	3561.55	2674.8
1016.1387	2894.424	3575.6	2688.85
1016.2547	2895.5476	3574.6	2689.2
1016.3707	2896.6706	3585.35	2700.4
1016.4866	2897.7929	3585.9	2699.3
1016.6025	2898.9145	3619.75	2734.5
1016.7184	2900.0355	3638.45	2749
1016.8342	2901.1559	3641.25	2755.1
1016.95	2902.2756	3670.85	2783.95
1017.0658	2903.3946	3697.35	2811.95
1017.1815	2904.513	3709.65	2820.3
1017.2971	2905.6308	3729.55	2844.05
1017.4127	2906.7479	3750.95	2864.7
1017.5283	2907.8643	3766.35	2879.45
1017.6439	2908.9801	3759.5	2872.8
1017.7594	2910.0953	3758.4	2873.4
1017.8748	2911.2098	3753.35	2864.15
1017.9902	2912.3236	3753.7	2861.6
1018.1056	2913.4368	3747.45	2859.5
1018.2209	2914.5494	3729.15	2842.95
1018.3362	2915.6613	3701.95	2810.75
1018.4515	2916.7725	3671.3	2782.7
1018.5667	2917.8831	3656.75	2768.8
1018.6819	2918.9931	3632.5	2745.35
1018.797	2920.1024	3593.25	2705.9
1018.9121	2921.211	3572.65	2688.3
1019.0271	2922.319	3571.25	2682.3
1019.1421	2923.4264	3546.95	2660.9
1019.2571	2924.5331	3537.7	2654.25
1019.372	2925.6391	3535.25	2650.85
1019.4869	2926.7445	3528.4	2644.15
1019.6017	2927.8493	3521.05	2636.4
1019.7165	2928.9534	3526.7	2640.85
1019.8313	2930.0569	3527.45	2638.85
1019.946	2931.1597	3523.65	2637.35
1020.0606	2932.2619	3522.6	2638.65
1020.1753	2933.3634	3520.75	2635.8
1020.2899	2934.4643	3528.95	2635.95
1020.4044	2935.5645	3498.95	2605.65
1020.5189	2936.6641	3496.55	2607.15
1020.6334	2937.763	3455.65	2570.35
1020.7478	2938.8613	3434.05	2550.45
1020.8622	2939.959	3388.75	2497.95
1020.9765	2941.056	3343.9	2458.5
1021.0908	2942.1523	3284.55	2396.9
1021.2051	2943.248	3238.6	2353.1
1021.3193	2944.3431	3159.75	2274.55
1021.4334	2945.4375	3090.2	2204.2
1021.5476	2946.5313	3020.2	2137.5
1021.6617	2947.6244	2926.6	2041.45
1021.7757	2948.7169	2850.15	1964.85
1021.8897	2949.8087	2775.55	1890.45
1022.0037	2950.8999	2699.3	1813.6
1022.1176	2951.9904	2639.4	1754.25
1022.2315	2953.0803	2577.5	1693
1022.3453	2954.1696	2529.3	1646.15
1022.4591	2955.2582	2472.2	1588.35
1022.5728	2956.3462	2443.8	1557.35
1022.6865	2957.4335	2403.6	1517.9
1022.8002	2958.5202	2376.05	1488.35
1022.9138	2959.6062	2344.2	1459.7
1023.0274	2960.6916	2326.85	1443.6
1023.141	2961.7764	2317.9	1429.8
1023.2545	2962.8605	2298.3	1412.55
1023.3679	2963.9439	2279.65	1394.8
1023.4813	2965.0267	2273.75	1387.55
1023.5947	2966.1089	2283.1	1375.65
1023.708	2967.1905	2251.9	1367.1
1023.8213	2968.2714	2240.95	1356.6
1023.9346	2969.3516	2249.5	1364.15
1024.0478	2970.4312	2255.05	1361.95
1024.1609	2971.5102	2248.05	1364.05
1024.274	2972.5885	2243.95	1360.35
1024.3871	2973.6662	2252.8	1361.6
1024.5002	2974.7432	2252.2	1365.75
1024.6132	2975.8196	2246.4	1361.45
1024.7261	2976.8954	2228.85	1344.6
1024.839	2977.9705	2225.5	1340.05
1024.9519	2979.045	2211.95	1328.25
1025.0647	2980.1188	2188.5	1302.15
1025.1775	2981.192	2180.55	1293.6
1025.2902	2982.2645	2167.15	1282.35
1025.4029	2983.3364	2152.1	1266.45
1025.5156	2984.4077	2138.65	1254.3
1025.6282	2985.4783	2114.5	1224.1
1025.7407	2986.5483	2089.35	1205.15
1025.8532	2987.6177	2060.5	1176.25
1025.9657	2988.6864	2028	1143.7
1026.0782	2989.7545	1998.85	1112.75
1026.1906	2990.8219	1971.9	1088.2
1026.3029	2991.8887	1952.35	1064.45
1026.4152	2992.9548	1923.05	1037.75
1026.5275	2994.0204	1892.95	1010.75
1026.6397	2995.0852	1870.7	987.9
1026.7519	2996.1495	1857.95	974.3
1026.864	2997.2131	1826.85	942.1
1026.9761	2998.276	1804.4	918.65
1027.0882	2999.3383	1785.65	901.15
1027.2002	3000.4	1766.85	881.8
1027.3122	3001.4611	1754.15	869.5
1027.4241	3002.5215	1731.85	847.05
1027.536	3003.5812	1716.15	832.6
1027.6478	3004.6404	1705.6	819.4
1027.7596	3005.6989	1695.55	809.5
1027.8714	3006.7567	1689.6	803.85
1027.9831	3007.8139	1699.35	793.75
1028.0947	3008.8705	1669.95	786.75
1028.2064	3009.9264	1676.25	776.7
1028.3179	3010.9818	1655.4	771.7
1028.4295	3012.0364	1652.6	767.25
1028.541	3013.0905	1640.65	755
1028.6524	3014.1439	1632.15	745.75
1028.7638	3015.1966	1626.8	742.15
1028.8752	3016.2487	1633.1	747.15
1028.9865	3017.3002	1631	744.35
1029.0978	3018.3511	1617.5	734.25
1029.209	3019.4013	1610.25	725.95
1029.3202	3020.4509	1612.1	725.35
1029.4314	3021.4998	1606.25	720.65
1029.5425	3022.5481	1603.2	719.1
1029.6535	3023.5958	1602.65	719
1029.7645	3024.6428	1594.6	708.45
1029.8755	3025.6892	1606.85	724.05
1029.9864	3026.735	1604.95	720.5
1030.0973	3027.7802	1590.95	707.2
1030.2082	3028.8247	1598.65	713.7
1030.319	3029.8685	1601.45	716.05
1030.4297	3030.9118	1587.35	701.6
1030.5404	3031.9544	1592.6	707.45
1030.6511	3032.9963	1596.3	712
1030.7617	3034.0376	1587.05	704.75
1030.8723	3035.0783	1589.2	701.1
1030.9829	3036.1184	1587.95	703.65
1031.0934	3037.1578	1586.6	703.4
1031.2038	3038.1966	1588.15	702.4
1031.3142	3039.2348	1582.25	699
1031.4246	3040.2723	1596.5	704.8
1031.5349	3041.3092	1588.3	706.55
1031.6452	3042.3455	1583.85	698.8
1031.7554	3043.3811	1591.75	707.2
1031.8656	3044.4161	1577.05	690.95
1031.9758	3045.4505	1577.75	695.4
1032.0859	3046.4842	1573.5	689.45
1032.1959	3047.5173	1566.1	684
1032.3059	3048.5498	1565.7	681.55
1032.4159	3049.5816	1559.2	674.05
1032.5258	3050.6128	1559.55	673.45
1032.6357	3051.6434	1556.35	671.1
1032.7455	3052.6734	1554.25	668.35
1032.8553	3053.7027	1536.4	652.25
1032.9651	3054.7314	1549.2	665.9
1033.0748	3055.7594	1531.9	647.4
1033.1845	3056.7868	1526.8	641.75
1033.2941	3057.8136	1529.75	646.8
1033.4037	3058.8398	1524.05	640.45
1033.5132	3059.8653	1521.7	637.4
1033.6227	3060.8902	1512.8	627.85
1033.7321	3061.9145	1507.75	623.6
1033.8415	3062.9381	1508.05	624.25
1033.9509	3063.9612	1514.7	614.65
1034.0602	3064.9835	1500.05	616.25
1034.1694	3066.0053	1497.35	612.05
1034.2787	3067.0264	1487.4	604.3
1034.3878	3068.0469	1479.45	595.4
1034.497	3069.0668	1476.05	590.15
1034.6061	3070.086	1470.35	586.65
1034.7151	3071.1046	1473.5	588.5
1034.8241	3072.1226	1465.6	581.15
1034.9331	3073.1399	1469.9	586.8
1035.042	3074.1567	1450.7	565.4
1035.1508	3075.1727	1452.5	568.45
1035.2597	3076.1882	1433.4	548.65
1035.3684	3077.203	1429.55	545.95
1035.4772	3078.2173	1427.2	541.6
1035.5859	3079.2308	1415.45	528.1
1035.6945	3080.2438	1407.25	521.35
1035.8031	3081.2561	1405.85	521.65
1035.9117	3082.2678	1396.65	512.45
1036.0202	3083.2789	1397.15	512.55
1036.1286	3084.2893	1381.65	496.95
1036.2371	3085.2991	1383.35	499.7
1036.3454	3086.3083	1383.15	495.6
1036.4538	3087.3169	1370.45	486.2
1036.562	3088.3248	1372.9	487.5
1036.6703	3089.3321	1358.4	474.75
1036.7785	3090.3388	1356.7	474.6
1036.8866	3091.3449	1350.55	464.7
1036.9948	3092.3503	1357.9	472.4
1037.1028	3093.3551	1346.75	465.35
1037.2108	3094.3593	1342	457.9
1037.3188	3095.3629	1336.5	451.9
1037.4267	3096.3658	1341.6	456.1
1037.5346	3097.3681	1325.1	439.85
1037.6425	3098.3698	1326.65	440.6
1037.7503	3099.3708	1325.65	435.55
1037.858	3100.3713	1312.1	430.15
1037.9657	3101.3711	1313.8	430.15
1038.0734	3102.3702	1441.75	426.5
1038.181	3103.3688	1308.55	424.85
1038.2886	3104.3667	1302.1	420.3
1038.3961	3105.364	1305.85	422.6
1038.5036	3106.3607	1299.25	415.6
1038.611	3107.3568	1296.85	410.55
1038.7184	3108.3522	1290.75	408.05
1038.8257	3109.347	1293	407.9
1038.933	3110.3412	1298.15	410.7
1039.0403	3111.3348	1288.05	405.65
1039.1475	3112.3277	1280.7	397.9
1039.2547	3113.32	1275.35	392.95
1039.3618	3114.3117	1280.5	396.15
1039.4689	3115.3028	1270.05	387.95
1039.5759	3116.2932	1274.3	387.25
1039.6829	3117.2831	1271.95	383.45
1039.7898	3118.2723	1263.7	382.5
1039.8967	3119.2608	1256.4	373.7
1040.0035	3120.2488	1266.15	384.1
1040.1103	3121.2361	1254	371.2
1040.2171	3122.2229	1253	369.8
1040.3238	3123.209	1254.9	370.45
1040.4305	3124.1944	1240.25	357.2
1040.5371	3125.1793	1243.85	359
1040.6437	3126.1635	1244	360.05
1040.7502	3127.1471	1238.4	354.1
1040.8567	3128.1301	1240.45	357.4
1040.9631	3129.1125	1241.25	358.25
1041.0695	3130.0942	1234.2	352.1
1041.1759	3131.0753	1245.75	352.85
1041.2822	3132.0558	1235.75	349.75
1041.3884	3133.0357	1227.95	343.55
1041.4946	3134.015	1227.6	344.55
1041.6008	3134.9936	1229.7	343.2
1041.7069	3135.9716	1247.9	340.95
1041.813	3136.949	1227.45	345.8
1041.919	3137.9258	1235.55	333.25
1042.025	3138.902	1227.9	340.5
1042.1309	3139.8775	1218.4	334.4
1042.2368	3140.8524	1214.55	332.2
1042.3427	3141.8267	1215.35	330.2
1042.4485	3142.8004	1208.35	324.55
1042.5542	3143.7735	1215.9	326.75
1042.6599	3144.7459	1209.1	324.45
1042.7656	3145.7178	1209.75	325.55
1042.8712	3146.689	1206.25	325.2
1042.9768	3147.6596	1210.15	323.75
1043.0823	3148.6295	1201	319.25
1043.1878	3149.5989	1195.8	313.2
1043.2932	3150.5676	1197.75	316.7
1043.3986	3151.5357	1195	312.8
1043.5039	3152.5032	1190.3	308.5
1043.6092	3153.4701	1192.6	307.75
1043.7145	3154.4364	1196.35	313.7
1043.8197	3155.402	1183.1	301.5
1043.9248	3156.367	1186.55	301.25
1044.03	3157.3315	1214.25	293.65
1044.135	3158.2952	1186.8	305.2
1044.24	3159.2584	1181.1	300.2
1044.345	3160.221	1174.05	290.15
1044.4499	3161.1829	1174.55	292.35
1044.5548	3162.1442	1174.3	291.4
1044.6596	3163.105	1171.85	288.6
1044.7644	3164.065	1170.4	287.45
1044.8692	3165.0245	1174.25	287.45
1044.9739	3165.9834	1164	285.15
1045.0785	3166.9416	1168.75	286.05
1045.1831	3167.8993	1165.1	282.1
1045.2877	3168.8563	1162.95	278.85
1045.3922	3169.8127	1166.05	284.65
1045.4966	3170.7684	1160.8	276.65
1045.6011	3171.7236	1161.75	277.2
1045.7054	3172.6782	1158.3	277.1
1045.8098	3173.6321	1159.8	277.05
1045.914	3174.5854	1154.55	267.25
1046.0183	3175.5381	1155.15	271.8
1046.1224	3176.4902	1151.6	268
1046.2266	3177.4417	1151.25	268
1046.3307	3178.3926	1149.05	267.55
1046.4347	3179.3428	1143.4	263.8
1046.5387	3180.2924	1141.8	259.15
1046.6427	3181.2415	1142.1	260.05
1046.7466	3182.1899	1144.45	259.15
1046.8504	3183.1377	1139.75	258.75
1046.9542	3184.0848	1139	253.6
1047.058	3185.0314	1142.1	259.1
1047.1617	3185.9773	1139.75	257.1
1047.2654	3186.9227	1132.6	248.3
1047.369	3187.8674	1133.1	248.2
1047.4726	3188.8115	1135.75	249.55
1047.5761	3189.755	1131.05	246.7
1047.6796	3190.6979	1129.1	245.1
1047.783	3191.6402	1125.95	243.65
1047.8864	3192.5818	1129.2	246.8
1047.9898	3193.5229	1129	240.15
1048.0931	3194.4633	1125.6	244.55
1048.1963	3195.4031	1122.95	239.8
1048.2995	3196.3423	1125.65	244.35
1048.4027	3197.2809	1115.9	231.65
1048.5058	3198.2189	1122.45	242.75
1048.6089	3199.1563	1124.45	234.25
1048.7119	3200.0931	1115.8	233.3
1048.8148	3201.0292	1115.1	232.85
1048.9178	3201.9648	1110.8	228.7
1049.0206	3202.8997	1111.75	225.95
1049.1235	3203.834	1114.8	232.3
1049.2262	3204.7677	1111.35	229.9
1049.329	3205.7008	1113.45	228.9
1049.4317	3206.6333	1104.5	222.9
1049.5343	3207.5652	1113.2	228.95
1049.6369	3208.4964	1103.65	220.35
1049.7394	3209.4271	1100.95	219.15
1049.8419	3210.3571	1102.65	221.85
1049.9444	3211.2865	1098.15	215.25
1050.0468	3212.2154	1100.8	214.6
1050.1491	3213.1436	1106.05	219.3
1050.2514	3214.0712	1103.3	212.45
1050.3537	3214.9982	1096.65	213.2
1050.4559	3215.9246	1098	214.15
1050.5581	3216.8503	1094.4	214.55
1050.6602	3217.7755	1100.85	217.55
1050.7623	3218.7001	1095	212.4
1050.8643	3219.624	1092.5	208.7
1050.9663	3220.5473	1096.05	214
1051.0682	3221.4701	1089.35	207.05
1051.1701	3222.3922	1090.95	205.95
1051.2719	3223.3137	1088.5	205.15
1051.3737	3224.2346	1091.55	208
1051.4754	3225.1549	1082.9	200.05
1051.5771	3226.0746	1084.55	203.05
1051.6788	3226.9937	1083.4	200.1
1051.7804	3227.9121	1082.45	202.2
1051.8819	3228.83	1082.4	199.85
1051.9834	3229.7473	1080.25	196.6
1052.0849	3230.6639	1081.8	198.55
1052.1863	3231.5799	1074.65	191.8
1052.2876	3232.4954	1078.9	196.65
1052.3889	3233.4102	1081	200.35
1052.4902	3234.3244	1080.1	196.3
1052.5914	3235.238	1073.15	189.9
1052.6926	3236.151	1101.5	193.75
1052.7937	3237.0634	1067.9	186.1
1052.8948	3237.9752	1071.95	189.9
1052.9958	3238.8864	1071.75	188.55
1053.0968	3239.797	1066.45	183.25
1053.1977	3240.7069	1066.75	184.35
1053.2986	3241.6163	1069.75	185.5
1053.3994	3242.5251	1063.85	184.2
1053.5002	3243.4332	1063.5	181.25
1053.6009	3244.3408	1063.85	181.55
1053.7016	3245.2477	1061.2	178.4
1053.8022	3246.154	1057.25	174.85
1053.9028	3247.0598	1057.2	175.35
1054.0034	3247.9649	1053.75	172.5
1054.1039	3248.8694	1055.5	171.05
1054.2043	3249.7733	1056.5	173.55
1054.3047	3250.6766	1050.95	168.7
1054.4051	3251.5793	1056.7	174.95
1054.5054	3252.4814	1051.05	166.8
1054.6056	3253.3829	1056.45	175.15
1054.7058	3254.2838	1047.1	163.75
1054.806	3255.1841	1047.65	167.2
1054.9061	3256.0838	1042.3	160.6
1055.0061	3256.9829	1044.65	163.8
1055.1062	3257.8814	1039.4	154.9
1055.2061	3258.7792	1045.15	160.25
1055.306	3259.6765	1039.25	156.65
1055.4059	3260.5731	1036.85	153.85
1055.5057	3261.4692	1037.45	155
1055.6055	3262.3647	1037.75	155.85
1055.7052	3263.2595	1027.6	145
1055.8049	3264.1538	1028.15	146.2
1055.9045	3265.0474	1028.1	145.3
1056.0041	3265.9404	1024.7	142.85
1056.1036	3266.8329	1025.6	144.45
1056.2031	3267.7247	1029.75	137.45
1056.3025	3268.616	1017.3	137.6
1056.4019	3269.5066	1015.95	133.15
1056.5013	3270.3966	1010.45	126.5
1056.6005	3271.286	1002.6	120.45
