Software Version:	3.9.2.0
Unit SN:	10000200
Spectrometer SN:	6960
Date:	3/26/2024 2:17:34 PM
Data Line Index:	25
Spectral Points:	2048
Integration time (ms):	125
Averages:	20
Delay (ms):	30000
Sequence Number:	1
Processing:	dark subtract
Laser Power (mW):	300
Laser Current (mA):	820
Laser Diode Temp (C):	25.1
Laser Case Temp (C):	27.6
System Temp (C):	27.6
Spectrometer Temp (C):	25.4
CCD Temp (C):	0.002
Secondary Temp (C):	20.01
Heatsink Temp (C):	23.04
CCDPCB Temp (C):	36.94
SecondaryPCB Temp (C):	34.584

Wavelength	RamanShift	Raw Counts	Dark Subtracted
787.061	30.1047	664.7	256.65
787.2016	32.3739	679.65	273.65
787.3422	34.6426	694.7	287.2
787.4828	36.9109	708.4	299.4
787.6235	39.1787	739.1	323.45
787.7642	41.4461	768.4	348.95
787.9049	43.7131	793	368.9
788.0456	45.9796	818.05	390.7
788.1863	48.2456	843.7	414.05
788.3271	50.5112	874.5	440.15
788.4679	52.7764	893.85	457.7
788.6087	55.0411	936.4	497.15
788.7496	57.3054	966.9	522.15
788.8904	59.5692	1005.85	556.1
789.0313	61.8326	1043.25	590.55
789.1722	64.0955	1082.7	625.75
789.3132	66.3579	1135.8	674.45
789.4541	68.6199	1196.1	731.25
789.5951	70.8815	1304.05	836.8
789.7361	73.1426	1510.9	1041.55
789.8771	75.4032	2057.4	1579
790.0181	77.6634	3428.25	2944.8
790.1592	79.9231	6861.85	6367.45
790.3003	82.1824	14744	14231.7
790.4414	84.4412	34575.9	34031.35
790.5825	86.6995	62813.8	62218.65
790.7237	88.9574	65535	64895.15
790.8648	91.2148	65535	64862.95
791.006	93.4717	65535	64844.55
791.1472	95.7282	65535	64832.6
791.2885	97.9842	65535	64829.2
791.4297	100.2398	65535	64820.9
791.571	102.4949	65535	64817.65
791.7123	104.7495	65535	64817.5
791.8536	107.0036	65535	64817.4
791.9949	109.2573	65535	64818
792.1363	111.5105	65535	64812.15
792.2777	113.7632	65535	64815.35
792.4191	116.0154	65535	64802.1
792.5605	118.2672	65535	64810.5
792.7019	120.5185	65535	64808.3
792.8434	122.7693	65535	64806.65
792.9849	125.0197	65535	64801.8
793.1264	127.2696	65535	64806.6
793.2679	129.519	65535	64797.25
793.4094	131.7679	65535	64792.55
793.551	134.0163	65535	64785.75
793.6926	136.2642	65535	64787.75
793.8342	138.5117	65535	64781.6
793.9758	140.7587	65535	64782.55
794.1175	143.0052	65535	64776.3
794.2591	145.2512	65535	64772.95
794.4008	147.4967	65535	64779.05
794.5425	149.7417	65535	64778.35
794.6842	151.9863	65535	64776.3
794.826	154.2304	65535	64770.05
794.9677	156.4739	65535	64764.45
795.1095	158.717	65535	64768.05
795.2513	160.9596	65535	64758.5
795.3931	163.2017	65535	64757.05
795.535	165.4433	65535	64757.3
795.6768	167.6844	65535	64757.7
795.8187	169.925	65535	64755.2
795.9606	172.1651	65535	64752.5
796.1025	174.4047	65535	64749.2
796.2445	176.6439	65535	64747.2
796.3864	178.8825	65535	64744.2
796.5284	181.1206	65535	64734.9
796.6704	183.3582	65535	64731.4
796.8124	185.5954	65535	64728.75
796.9544	187.832	65535	64730.7
797.0965	190.0681	65535	64722.9
797.2386	192.3037	65535	64724.25
797.3806	194.5388	65535	64721.7
797.5228	196.7734	65535	64719.75
797.6649	199.0075	65535	64713.25
797.807	201.2411	65535	64717
797.9492	203.4742	65535	64713.8
798.0914	205.7068	65535	64708.1
798.2336	207.9389	65535	64706.85
798.3758	210.1704	65535	64710.55
798.518	212.4015	65535	64698.35
798.6603	214.632	65535	64704.2
798.8025	216.862	65535	64710.4
798.9448	219.0915	65535	64723.6
799.0871	221.3205	65535	64724.25
799.2294	223.549	65535	64730.9
799.3718	225.777	65535	64727.55
799.5141	228.0044	65535	64721.85
799.6565	230.2314	65535	64727.65
799.7989	232.4578	65535	64726.5
799.9413	234.6837	65535	64723.1
800.0837	236.909	65535	64714.7
800.2262	239.1339	65535	64692.9
800.3687	241.3582	65535	64703.4
800.5111	243.582	65535	64678
800.6536	245.8053	65535	64692.4
800.7961	248.0281	65535	64692.25
800.9387	250.2503	65535	64692.85
801.0812	252.472	65535	64679.55
801.2238	254.6932	65535	64683.75
801.3664	256.9139	65535	64680.5
801.509	259.134	65535	64679.15
801.6516	261.3536	65535	64678
801.7942	263.5727	65535	64674.05
801.9369	265.7912	65535	64677.6
802.0795	268.0092	65535	64676.85
802.2222	270.2267	65535	64678.7
802.3649	272.4436	65535	64675.9
802.5076	274.6601	65535	64667.45
802.6504	276.8759	65535	64676.05
802.7931	279.0913	65535	64675
802.9359	281.3061	65535	64669.7
803.0787	283.5204	65535	64664
803.2215	285.7341	65535	64662.55
803.3643	287.9473	65535	64653.55
803.5071	290.16	65535	64658.3
803.6499	292.3721	65535	64662.6
803.7928	294.5837	65535	64664.1
803.9357	296.7947	65535	64663.45
804.0786	299.0052	65535	64659.35
804.2215	301.2152	65535	64658.45
804.3644	303.4246	65535	64668.45
804.5074	305.6334	65535	64661.3
804.6503	307.8418	65535	64663.1
804.7933	310.0495	65535	64659.4
804.9363	312.2568	65535	64659.65
805.0793	314.4635	65535	64653.5
805.2223	316.6696	65535	64655.75
805.3653	318.8752	65535	64645.2
805.5084	321.0802	65535	64659.35
805.6514	323.2847	65535	64655.7
805.7945	325.4887	65535	64653.25
805.9376	327.692	65535	64650.55
806.0807	329.8949	65535	64650.95
806.2238	332.0972	65535	64650.55
806.367	334.2989	65535	64643.85
806.5101	336.5001	65535	64644.75
806.6533	338.7007	65535	64645.8
806.7965	340.9008	65535	64641.35
806.9397	343.1003	65535	64647.8
807.0829	345.2992	65535	64644.45
807.2261	347.4976	65535	64638.8
807.3693	349.6955	65535	64634.75
807.5126	351.8927	65535	64635.95
807.6559	354.0895	65535	64624.75
807.7991	356.2856	65535	64629.6
807.9424	358.4812	65535	64637.85
808.0857	360.6763	65535	64632.4
808.2291	362.8707	65535	64631.55
808.3724	365.0646	65535	64632.45
808.5158	367.258	65535	64634.4
808.6591	369.4508	65535	64627.25
808.8025	371.643	65535	64624.4
808.9459	373.8346	65535	64629.05
809.0893	376.0257	65535	64623.05
809.2327	378.2162	65535	64626.15
809.3762	380.4062	65535	64626.25
809.5196	382.5956	65535	64626.15
809.6631	384.7844	65535	64624.7
809.8066	386.9726	65535	64623.75
809.9501	389.1603	65535	64624.45
810.0936	391.3474	65535	64593
810.2371	393.5339	65535	64620.55
810.3806	395.7199	65535	64627.25
810.5241	397.9052	65535	64633.45
810.6677	400.09	65535	64634.25
810.8113	402.2743	65535	64632.1
810.9548	404.4579	65535	64634.65
811.0984	406.641	65535	64631.55
811.2421	408.8235	65535	64634.55
811.3857	411.0054	65535	64631.3
811.5293	413.1868	65535	64626.9
811.673	415.3675	65535	64622.15
811.8166	417.5477	65535	64623.55
811.9603	419.7273	65535	64624.35
812.104	421.9064	65535	64619.25
812.2477	424.0848	65535	64617.9
812.3914	426.2627	65535	64617.35
812.5351	428.4399	65535	64615.75
812.6788	430.6166	65535	64613.15
812.8226	432.7928	65535	64614.15
812.9663	434.9683	65535	64615.7
813.1101	437.1432	65535	64620.15
813.2539	439.3176	65535	64625.65
813.3977	441.4914	65535	64621.3
813.5415	443.6645	65535	64617.6
813.6853	445.8371	65535	64619.5
813.8291	448.0091	65535	64618.3
813.973	450.1806	65535	64619.3
814.1168	452.3514	65535	64618.1
814.2607	454.5216	65535	64613.5
814.4046	456.6913	65535	64612.8
814.5485	458.8603	65535	64625
814.6924	461.0288	65535	64624.65
814.8363	463.1967	65535	64626.1
814.9802	465.3639	65535	64620.5
815.1241	467.5306	65535	64620.05
815.2681	469.6967	65535	64626
815.412	471.8622	65535	64621.3
815.556	474.0271	65535	64617.85
815.7	476.1914	65535	64615.05
815.844	478.3551	65535	64610.25
815.988	480.5182	65535	64621.95
816.132	482.6807	65535	64625.05
816.276	484.8426	65535	64630.95
816.4201	487.0039	65535	64623.95
816.5641	489.1647	65535	64619.75
816.7082	491.3248	65535	64617.1
816.8522	493.4843	65535	64623.95
816.9963	495.6432	65535	64623.7
817.1404	497.8015	65535	64613.55
817.2845	499.9592	65535	64605.25
817.4286	502.1163	65535	64605.45
817.5727	504.2728	65535	64614.4
817.7168	506.4287	65535	64624.65
817.861	508.5839	65535	64627.2
818.0051	510.7386	65535	64620.2
818.1493	512.8927	65535	64605.35
818.2935	515.0461	65535	64607.05
818.4377	517.199	65535	64610.5
818.5818	519.3512	65535	64607.95
818.726	521.5029	65535	64610.35
818.8703	523.6539	65535	64608.35
819.0145	525.8043	65535	64610.8
819.1587	527.9541	65535	64604.35
819.303	530.1033	65535	64608.35
819.4472	532.2519	65535	64611.55
819.5915	534.3999	65535	64602.7
819.7357	536.5472	65535	64609.25
819.88	538.694	65535	64613.5
820.0243	540.8401	65535	64607.6
820.1686	542.9856	65535	64599.65
820.3129	545.1305	65535	64588.7
820.4572	547.2748	65535	64587.15
820.6016	549.4185	65535	64590
820.7459	551.5615	65535	64591
820.8902	553.704	65535	64594.45
821.0346	555.8458	65535	64595.35
821.1789	557.987	65535	64598.75
821.3233	560.1276	65535	64591.8
821.4677	562.2675	65535	64591.65
821.6121	564.4069	65535	64597.35
821.7565	566.5456	65535	64596.7
821.9009	568.6837	65535	64600.45
822.0453	570.8212	65535	64601.4
822.1897	572.958	65535	64601.05
822.3342	575.0942	65535	64605.85
822.4786	577.2299	65535	64609.45
822.6231	579.3648	65535	64619
822.7675	581.4992	65535	64628.4
822.912	583.6329	65535	64628.25
823.0565	585.766	65535	64624.15
823.201	587.8985	65535	64616.9
823.3454	590.0304	65535	64596.5
823.4899	592.1616	65535	64597.25
823.6345	594.2922	65535	64600.1
823.779	596.4222	65535	64592.55
823.9235	598.5515	65535	64589.6
824.068	600.6802	65535	64595.45
824.2126	602.8083	65535	64597.85
824.3571	604.9358	65535	64600.6
824.5017	607.0626	65535	64592.4
824.6462	609.1888	65535	64586.9
824.7908	611.3144	65535	64585.9
824.9354	613.4393	65535	64587.45
825.08	615.5636	65535	64588.2
825.2246	617.6873	65535	64589.1
825.3692	619.8103	65535	64589.85
825.5138	621.9327	65535	64589.55
825.6584	624.0544	65535	64599.8
825.803	626.1756	65535	64595.5
825.9477	628.2961	65535	64596.2
826.0923	630.4159	65535	64592.5
826.237	632.5351	65535	64588.3
826.3816	634.6537	65535	64586.4
826.5263	636.7716	65535	64581.55
826.6709	638.8889	65535	64584.05
826.8156	641.0056	65535	64584.5
826.9603	643.1216	65535	64585.8
827.105	645.237	65535	64585.55
827.2497	647.3518	65535	64595.4
827.3944	649.4659	65535	64598.6
827.5391	651.5793	65535	64600.75
827.6838	653.6922	65535	64595.95
827.8285	655.8043	65535	64594.05
827.9733	657.9159	65535	64595.55
828.118	660.0268	65535	64592.95
828.2627	662.137	65535	64592.4
828.4075	664.2466	65535	64583.1
828.5522	666.3556	65535	64585.9
828.697	668.4639	65535	64590.55
828.8418	670.5716	65535	64598.5
828.9865	672.6786	65535	64594.8
829.1313	674.785	65535	64584.1
829.2761	676.8907	65535	64588.65
829.4209	678.9958	65535	64596.65
829.5657	681.1002	65535	64591.2
829.7105	683.204	65535	64578.45
829.8553	685.3072	65535	64582.85
830.0001	687.4097	65535	64592.6
830.1449	689.5115	65535	64585.1
830.2898	691.6127	65535	64586.75
830.4346	693.7132	65535	64592.3
830.5794	695.8131	65535	64569.45
830.7243	697.9123	65535	64582
830.8691	700.0109	65535	64581.05
831.014	702.1089	65535	64582.45
831.1588	704.2061	65535	64584.5
831.3037	706.3028	65535	64584.3
831.4486	708.3987	65535	64587.8
831.5935	710.4941	65535	64586.3
831.7383	712.5887	65535	64585.75
831.8832	714.6827	65535	64587.95
832.0281	716.7761	65535	64588.7
832.173	718.8688	65535	64587.15
832.3179	720.9608	65535	64581.45
832.4628	723.0522	65535	64577
832.6077	725.1429	65535	64581
832.7527	727.233	65535	64581.3
832.8976	729.3224	65535	64580.15
833.0425	731.4112	65535	64583.1
833.1874	733.4993	65535	64580.8
833.3324	735.5867	65535	64583.15
833.4773	737.6735	65535	64583.9
833.6222	739.7596	65535	64576.7
833.7672	741.845	65535	64584.55
833.9122	743.9298	65535	64579.6
834.0571	746.014	65535	64583.1
834.2021	748.0974	65535	64573.85
834.347	750.1802	65535	64573.8
834.492	752.2624	65535	64575.6
834.637	754.3439	65535	64574.2
834.782	756.4247	65535	64568.95
834.9269	758.5048	65535	64579.45
835.0719	760.5843	65535	64572.7
835.2169	762.6631	65535	64575.6
835.3619	764.7413	65535	64575.5
835.5069	766.8188	65535	64575.85
835.6519	768.8956	65535	64575.5
835.7969	770.9718	65535	64575.1
835.9419	773.0473	65535	64578.15
836.0869	775.1221	65535	64579.65
836.232	777.1962	65535	64577.35
836.377	779.2697	65535	64574.8
836.522	781.3426	65535	64558.5
836.667	783.4147	65535	64574.65
836.8121	785.4862	65535	64578.3
836.9571	787.557	65535	64575.35
837.1021	789.6271	65535	64572.25
837.2472	791.6966	65535	64577
837.3922	793.7654	65535	64575.6
837.5373	795.8335	65535	64576.6
837.6823	797.901	65535	64576.25
837.8274	799.9678	65535	64573.3
837.9724	802.0339	65535	64575.55
838.1175	804.0993	65535	64562.8
838.2626	806.1641	65535	64574.35
838.4076	808.2282	65535	64578.45
838.5527	810.2916	65535	64574.2
838.6978	812.3544	65535	64578.75
838.8428	814.4164	65535	64577.4
838.9879	816.4778	65535	64573.85
839.133	818.5385	65535	64573.15
839.2781	820.5986	65535	64574.45
839.4232	822.658	65535	64569.75
839.5682	824.7166	65535	64571.65
839.7133	826.7747	65535	64571.75
839.8584	828.832	65535	64572.7
840.0035	830.8886	65535	64569.9
840.1486	832.9446	65535	64572.65
840.2937	834.9999	65535	64576.6
840.4388	837.0545	65535	64572.5
840.5839	839.1085	65535	64571.5
840.729	841.1618	65535	64571.05
840.8741	843.2143	65535	64575.25
841.0192	845.2662	65535	64575.85
841.1643	847.3175	65535	64573.05
841.3095	849.368	65535	64573.6
841.4546	851.4179	65535	64574.9
841.5997	853.467	65535	64573.6
841.7448	855.5155	65535	64571.75
841.8899	857.5633	65535	64572.9
842.0351	859.6105	65535	64573.6
842.1802	861.6569	65535	64571.15
842.3253	863.7027	65529.65	64567.35
842.4704	865.7478	65535	64573.15
842.6156	867.7922	65534.55	64568.25
842.7607	869.8359	65535	64570.95
842.9058	871.8789	65528.8	64564
843.0509	873.9212	65535	64544.25
843.1961	875.9629	65535	64572.55
843.3412	878.0039	65535	64572.8
843.4863	880.0441	65535	64574.45
843.6315	882.0837	65535	64571.85
843.7766	884.1226	65528.4	64563.95
843.9218	886.1609	65522.75	64562.1
844.0669	888.1984	65508.25	64550.2
844.212	890.2352	65528.2	64564.75
844.3572	892.2714	65504.1	64533.75
844.5023	894.3069	65518.65	64554.4
844.6475	896.3416	65502	64538.55
844.7926	898.3757	65502.3	64539.4
844.9377	900.4091	65365.4	64399.5
845.0829	902.4418	65514.15	64544.8
845.228	904.4739	65467.5	64505.25
845.3732	906.5052	65465.65	64499.7
845.5183	908.5358	65395.8	64433.75
845.6635	910.5658	65355.85	64387.2
845.8086	912.595	65345.1	64377.05
845.9538	914.6236	65093.9	64129.75
846.0989	916.6515	65443.95	64476.85
846.2441	918.6786	65093.7	64129.25
846.3892	920.7051	65224.6	64259.2
846.5344	922.7309	65151.4	64189.05
846.6795	924.756	65225.15	64260
846.8246	926.7804	65104.15	64138.7
846.9698	928.8041	64628.55	63660
847.1149	930.8272	64989.6	64023.85
847.2601	932.8495	65011.9	64047.7
847.4052	934.8711	64694.35	63728.95
847.5504	936.892	64382.45	63415.75
847.6955	938.9123	64586.75	63621.4
847.8407	940.9318	64258.1	63292.35
847.9858	942.9506	64189.85	63223.5
848.131	944.9688	64302.05	63335.45
848.2761	946.9862	63555.2	62593.05
848.4213	949.003	63870.6	62908.6
848.5664	951.019	63147.5	62179.7
848.7115	953.0344	63282.4	62319.6
848.8567	955.0491	63161.2	62197.75
849.0018	957.063	63500.25	62537.15
849.147	959.0763	63537.3	62564.5
849.2921	961.0888	62916.35	61952.75
849.4373	963.1007	63411.85	62453.2
849.5824	965.1119	63364.35	62412.75
849.7275	967.1223	62900.15	61951.5
849.8727	969.1321	63479.9	62534.85
850.0178	971.1412	62731	61777.2
850.1629	973.1495	62456.5	61498.35
850.3081	975.1572	62852.1	61836.25
850.4532	977.1641	62443.35	61480.15
850.5983	979.1704	62402.6	61434.95
850.7435	981.1759	62443.8	61474.9
850.8886	983.1808	61958.55	60990.4
851.0337	985.1849	62032.65	61059.65
851.1788	987.1884	62262.85	61294.35
851.324	989.1911	62696.85	61733.2
851.4691	991.1932	61393.95	60434.85
851.6142	993.1945	61775.2	60813.05
851.7593	995.1951	62084.9	61121.8
851.9045	997.1951	61306.6	60340.1
852.0496	999.1943	61113.6	60148.2
852.1947	1001.1928	60823.3	59858.85
852.3398	1003.1906	60998.3	60033.85
852.4849	1005.1877	60012.65	59051.75
852.63	1007.1841	59689	58726.35
852.7751	1009.1798	59751.85	58793.2
852.9202	1011.1748	59616.25	58654.6
853.0653	1013.1691	59339	58377
853.2104	1015.1627	57776.5	56816.75
853.3555	1017.1556	58110	57150.25
853.5006	1019.1477	58377.05	57417.25
853.6457	1021.1392	57609.2	56658.05
853.7908	1023.1299	56729.5	55776.35
853.9359	1025.12	57174.05	56228.55
854.081	1027.1093	56677.5	55745.45
854.2261	1029.0979	56645.7	55712.9
854.3712	1031.0859	56554	55615.55
854.5163	1033.0731	55876.85	54927.25
854.6613	1035.0596	56023.55	55073.05
854.8064	1037.0454	55826.9	54871.5
854.9515	1039.0304	55267.5	54310.85
855.0965	1041.0148	54559.25	53599.05
855.2416	1042.9985	54553.9	53595
855.3867	1044.9814	54835.25	53879.85
855.5317	1046.9636	54186.9	53228.65
855.6768	1048.9452	54068.45	53112.5
855.8219	1050.926	53869.85	52911.85
855.9669	1052.9061	53772.95	52815.45
856.112	1054.8855	53721.5	52762.85
856.257	1056.8642	53360.3	52399.8
856.4021	1058.8421	53287	52322
856.5471	1060.8194	53209.5	52251.95
856.6921	1062.7959	53038.25	52078.8
856.8372	1064.7717	53041.35	52082.3
856.9822	1066.7469	52769.2	51807.95
857.1272	1068.7213	52642.8	51683.35
857.2723	1070.695	52449.9	51493.1
857.4173	1072.6679	51976.6	51019.55
857.5623	1074.6402	52037.65	51073.85
857.7073	1076.6117	51888.15	50925.25
857.8523	1078.5826	51766.7	50807.9
857.9973	1080.5527	51677.95	50718.15
858.1423	1082.5221	51592.35	50633.5
858.2873	1084.4908	51738.65	50779.45
858.4323	1086.4587	51762.6	50805.2
858.5773	1088.426	51794.85	50837.35
858.7223	1090.3925	51614.05	50653.25
858.8673	1092.3584	51468.6	50510
859.0123	1094.3235	50950.7	49992.55
859.1573	1096.2879	50724.5	49765.25
859.3022	1098.2515	50576.15	49617.55
859.4472	1100.2145	50514.65	49557.95
859.5922	1102.1767	50336.85	49375.9
859.7371	1104.1382	50340.85	49382.25
859.8821	1106.099	50323.4	49366.75
860.027	1108.0591	50397.55	49443.95
860.172	1110.0185	50228	49268.2
860.3169	1111.9771	50339.75	49384.4
860.4619	1113.9351	49855.35	48895.95
860.6068	1115.8923	49312.35	48356.85
860.7517	1117.8488	48828.8	47869.55
860.8967	1119.8045	48285.7	47329.8
861.0416	1121.7596	48066.65	47110.8
861.1865	1123.7139	47855.9	46903.15
861.3314	1125.6675	47727.05	46771.05
861.4763	1127.6204	47796.45	46839.8
861.6212	1129.5726	47542.15	46582.35
861.7661	1131.524	47526.35	46569.95
861.911	1133.4748	47500.45	46545.65
862.0559	1135.4248	47360.55	46406
862.2008	1137.3741	47298.2	46344.45
862.3457	1139.3226	47126.15	46166.5
862.4905	1141.2705	47084.65	46125.6
862.6354	1143.2176	46752.85	45792.05
862.7803	1145.164	46693.8	45735.95
862.9251	1147.1097	46590.35	45634.7
863.07	1149.0546	46520.95	45565.15
863.2148	1150.9989	46350.5	45396
863.3597	1152.9424	46046.65	45090
863.5045	1154.8852	45731.65	44778.55
863.6493	1156.8272	45513.65	44559.5
863.7942	1158.7686	45398.55	44435.55
863.939	1160.7092	45136.15	44176.95
864.0838	1162.6491	44901.1	43940.9
864.2286	1164.5883	44954.35	43999.2
864.3734	1166.5267	44871.65	43917.1
864.5182	1168.4644	44920.8	43967.95
864.663	1170.4014	44968.7	44009.2
864.8078	1172.3377	45206.05	44256.85
864.9526	1174.2732	45240.65	44289.35
865.0974	1176.2081	45318.35	44364.8
865.2421	1178.1421	45390.7	44430.6
865.3869	1180.0755	45386.2	44429.3
865.5317	1182.0082	45233.65	44280.7
865.6764	1183.9401	45068.7	44118.35
865.8212	1185.8713	44748	43800.85
865.9659	1187.8017	44364.45	43422.35
866.1106	1189.7315	44075.75	43143.95
866.2554	1191.6605	43558.1	42623.3
866.4001	1193.5888	43218.35	42279.1
866.5448	1195.5163	43036.05	42091.05
866.6895	1197.4432	42805.8	41857.7
866.8342	1199.3693	42549.05	41599.7
866.9789	1201.2947	42362.2	41401.65
867.1236	1203.2193	42177.45	41224.65
867.2683	1205.1432	42104.35	41153.9
867.413	1207.0664	41991.5	41041.8
867.5576	1208.9889	41937.15	40981.75
867.7023	1210.9106	41839.8	40888.55
867.847	1212.8316	41766.35	40813.9
867.9916	1214.7519	41773.9	40814.5
868.1363	1216.6715	41602.25	40652
868.2809	1218.5903	41434.5	40486.3
868.4255	1220.5084	41292.8	40344.15
868.5701	1222.4257	41182.65	40234.45
868.7148	1224.3424	40878.7	39932.4
868.8594	1226.2583	40845.3	39896.3
869.004	1228.1735	40852.3	39903.7
869.1486	1230.0879	40736.8	39784.95
869.2932	1232.0016	40752.35	39802.55
869.4377	1233.9146	40650.55	39698.05
869.5823	1235.8269	40455.9	39504.6
869.7269	1237.7384	40267.7	39319.6
869.8715	1239.6492	39893.25	38944.75
870.016	1241.5592	39727.7	38775.65
870.1606	1243.4686	39492.4	38544
870.3051	1245.3772	39313.15	38362.25
870.4496	1247.285	39134.95	38186.45
870.5941	1249.1922	38922.45	37975
870.7387	1251.0986	38801.1	37855.65
870.8832	1253.0042	38654.25	37705.35
871.0277	1254.9092	38648.65	37702.9
871.1722	1256.8134	38646.15	37699.5
871.3167	1258.7169	38733.4	37785.65
871.4611	1260.6196	38741.2	37791.45
871.6056	1262.5216	38882.3	37934.5
871.7501	1264.4229	38897.25	37954.25
871.8945	1266.3234	38922.7	37975.2
872.039	1268.2232	38870.55	37924.95
872.1834	1270.1223	38803.25	37852.6
872.3278	1272.0207	38656.1	37707.2
872.4723	1273.9183	38513.9	37557.45
872.6167	1275.8151	38345.15	37399.45
872.7611	1277.7113	38155.15	37208.9
872.9055	1279.6067	37851.25	36901
873.0499	1281.5014	37587.1	36638.95
873.1943	1283.3953	37395.4	36445.65
873.3386	1285.2885	37192.6	36246.7
873.483	1287.181	37009.1	36065.8
873.6274	1289.0727	36997.05	36056.8
873.7717	1290.9637	36860.2	35912.05
873.9161	1292.854	36982.3	36037.7
874.0604	1294.7435	37049.8	36104.05
874.2047	1296.6323	37178.7	36230.5
874.349	1298.5204	37328.75	36376
874.4933	1300.4077	37533.5	36585
874.6376	1302.2943	37618.45	36669.65
874.7819	1304.1802	37702.4	36755.95
874.9262	1306.0653	37458.2	36511.5
875.0705	1307.9497	37286.25	36342.15
875.2147	1309.8333	37159.4	36214.8
875.359	1311.7162	37060.3	36112.95
875.5032	1313.5984	37135.55	36187.3
875.6475	1315.4798	37116.5	36158.3
875.7917	1317.3605	37215.95	36266.65
875.9359	1319.2405	37302.3	36352.7
876.0801	1321.1197	37303.45	36352.95
876.2243	1322.9982	37126.25	36175.3
876.3685	1324.876	37085.75	36140.25
876.5127	1326.753	36961.3	36014.25
876.6569	1328.6293	36956.2	36007.05
876.801	1330.5048	36999.75	36054.3
876.9452	1332.3796	36853.4	35905.85
877.0893	1334.2537	36795.45	35827.7
877.2335	1336.127	36636.3	35692
877.3776	1337.9996	36492.05	35546.75
877.5217	1339.8714	36325.3	35379.2
877.6658	1341.7426	36209.85	35220.25
877.8099	1343.6129	36116.3	35170.45
877.954	1345.4826	35926	34976.45
878.0981	1347.3515	35829	34879.7
878.2422	1349.2196	35718.35	34770.9
878.3862	1351.087	35651.1	34703.15
878.5303	1352.9537	35636.85	34688.55
878.6743	1354.8197	35715.95	34768.85
878.8184	1356.6849	35821	34874.7
878.9624	1358.5493	35790.65	34846.3
879.1064	1360.4131	35700.8	34756.85
879.2504	1362.276	35543.5	34599.5
879.3944	1364.1383	35284.5	34341.95
879.5384	1365.9998	34942.3	33988.85
879.6823	1367.8606	34546.65	33601.05
879.8263	1369.7206	34283.8	33336.6
879.9702	1371.5799	34023.35	33076.75
880.1142	1373.4384	33802.75	32857.1
880.2581	1375.2962	33608.3	32663.15
880.402	1377.1533	33240.05	32298.15
880.5459	1379.0096	32823.4	31884.05
880.6898	1380.8652	32492.6	31554.85
880.8337	1382.7201	32171.4	31228.75
880.9776	1384.5742	31844.25	30901.2
881.1215	1386.4275	31620.1	30676.6
881.2653	1388.2802	31407.7	30467
881.4092	1390.132	31187.05	30243
881.553	1391.9832	31122.35	30176.9
881.6968	1393.8336	30909.9	29965.95
881.8406	1395.6832	30791.25	29846.35
881.9844	1397.5322	30635.9	29689.5
882.1282	1399.3803	30529.4	29581.2
882.272	1401.2278	30361.6	29417.3
882.4158	1403.0745	30240.5	29299.25
882.5595	1404.9204	30093.75	29154.3
882.7033	1406.7656	30083.35	29139.05
882.847	1408.6101	29930.55	28985.8
882.9908	1410.4538	29831.15	28886.25
883.1345	1412.2968	29790.8	28847.75
883.2782	1414.139	29672	28730.35
883.4219	1415.9805	29669.6	28726.85
883.5656	1417.8213	29658.9	28696.7
883.7092	1419.6613	29674.4	28733.1
883.8529	1421.5006	29807.6	28867.2
883.9965	1423.3391	30010.45	29069.65
884.1402	1425.1769	30260.2	29317.55
884.2838	1427.0139	30722.7	29782.25
884.4274	1428.8502	31262.15	30319.1
884.571	1430.6858	31743.7	30805.2
884.7146	1432.5206	32037	31096.4
884.8582	1434.3547	32263.25	31321.85
885.0018	1436.188	32258.4	31319.05
885.1453	1438.0206	32198.35	31255.95
885.2889	1439.8524	31956.85	31015.9
885.4324	1441.6835	31834.45	30895.95
885.5759	1443.5139	31628.7	30683.45
885.7194	1445.3435	31418.05	30478.65
885.8629	1447.1724	31368.4	30430.6
886.0064	1449.0005	31252.45	30314.95
886.1499	1450.8279	31067	30126.5
886.2933	1452.6545	30986.5	30047.9
886.4368	1454.4804	31004.1	30070
886.5802	1456.3056	30905.4	29960.1
886.7237	1458.13	30758.9	29821.1
886.8671	1459.9536	30540.7	29600.65
887.0105	1461.7766	30082.35	29144.1
887.1539	1463.5987	29594.25	28653.95
887.2972	1465.4202	29189.35	28251.7
887.4406	1467.2409	28745.4	27805.7
887.584	1469.0608	28435.5	27497.55
887.7273	1470.88	28092.55	27153
887.8706	1472.6984	27877.65	26939.55
888.0139	1474.5161	27535.3	26596.45
888.1572	1476.3331	27388.9	26449.15
888.3005	1478.1493	27174.1	26231.45
888.4438	1479.9648	27073.6	26132.15
888.5871	1481.7795	26922	25983.45
888.7303	1483.5935	26822.7	25883.65
888.8736	1485.4067	26739.8	25801.7
889.0168	1487.2192	26641.8	25705.05
889.16	1489.031	26532.1	25591.65
889.3032	1490.842	26429	25489.2
889.4464	1492.6522	26383.9	25446.6
889.5896	1494.4618	26267.4	25327.55
889.7327	1496.2705	26212.5	25274.5
889.8759	1498.0785	26134.3	25197
890.019	1499.8858	26047.8	25111.6
890.1622	1501.6924	25967.75	25028.55
890.3053	1503.4981	25943.65	25009.95
890.4484	1505.3032	25841.1	24903.9
890.5914	1507.1075	25794.65	24856.65
890.7345	1508.911	25737.65	24800.8
890.8776	1510.7138	25634.35	24694.4
891.0206	1512.5159	25454.65	24516.3
891.1637	1514.3172	25360.15	24425.9
891.3067	1516.1178	25223.8	24289.45
891.4497	1517.9176	25217	24278
891.5927	1519.7166	25051.3	24117
891.7357	1521.515	24997.5	24057.4
891.8786	1523.3126	24962.3	24027.05
892.0216	1525.1094	24835.65	23899.7
892.1645	1526.9055	24784.6	23851.1
892.3074	1528.7008	24642.5	23709.3
892.4503	1530.4954	24503.05	23562.7
892.5932	1532.2893	24497.1	23567.6
892.7361	1534.0824	24318.05	23385.3
892.879	1535.8747	24334.4	23402.5
893.0218	1537.6663	24214.45	23283.25
893.1647	1539.4572	24098.3	23166.6
893.3075	1541.2473	24058.15	23127.45
893.4503	1543.0367	23968.65	23041.25
893.5931	1544.8253	23860.6	22925.75
893.7359	1546.6132	23856.05	22923.55
893.8787	1548.4003	23749	22809.25
894.0214	1550.1867	23693.65	22755.8
894.1642	1551.9723	23638.15	22705.8
894.3069	1553.7572	23643.65	22718.15
894.4496	1555.5414	23588.2	22661.45
894.5923	1557.3247	23534.25	22608.4
894.735	1559.1074	23501.9	22575.05
894.8777	1560.8893	23456.6	22533.8
895.0204	1562.6705	23458.05	22536.6
895.163	1564.4509	23492.55	22567.95
895.3056	1566.2305	23468.95	22550.05
895.4482	1568.0094	23593.8	22674.45
895.5908	1569.7876	23627.45	22703.75
895.7334	1571.565	23644.35	22721.25
895.876	1573.3417	23636	22714.05
896.0186	1575.1176	23586.65	22665.1
896.1611	1576.8928	23538.9	22620.05
896.3036	1578.6672	23394	22480.8
896.4461	1580.4409	23209.85	22297.45
896.5886	1582.2138	22970.75	22054
896.7311	1583.986	22796.35	21875.85
896.8736	1585.7575	22669.2	21749.65
897.0161	1587.5282	22500.1	21584.25
897.1585	1589.2981	22474.9	21560.9
897.3009	1591.0673	22310.9	21399.25
897.4433	1592.8358	22247.1	21328.45
897.5857	1594.6035	22196.15	21278.6
897.7281	1596.3704	22067.35	21150.6
897.8705	1598.1366	22008.2	21091.65
898.0128	1599.9021	22010.2	21094
898.1551	1601.6668	21938.85	21021.25
898.2975	1603.4308	21897.95	20977.1
898.4398	1605.194	21955.3	21033.9
898.5821	1606.9564	21970.5	21057.55
898.7243	1608.7182	22024.4	21115.35
898.8666	1610.4791	22103.1	21198.7
899.0088	1612.2394	22125.4	21224.75
899.1511	1613.9988	22282	21378.55
899.2933	1615.7576	22457.4	21549.85
899.4355	1617.5156	22659.7	21740.45
899.5776	1619.2728	22883.6	21965.35
899.7198	1621.0293	22992.85	22076.3
899.862	1622.785	22976.85	22065.5
900.0041	1624.54	22871.05	21960.25
900.1462	1626.2942	22707.75	21797.35
900.2883	1628.0477	22365.3	21452.4
900.4304	1629.8005	22070.8	21159.4
900.5725	1631.5525	21807.35	20896.95
900.7145	1633.3037	21529.4	20618.35
900.8566	1635.0542	21324.8	20415.9
900.9986	1636.804	21131.95	20222.35
901.1406	1638.553	21004.75	20047.85
901.2826	1640.3013	20868.45	19959.15
901.4245	1642.0488	20767.45	19854.35
901.5665	1643.7955	20694	19787.1
901.7085	1645.5416	20662.65	19756.75
901.8504	1647.2868	20650.95	19743.35
901.9923	1649.0313	20663.75	19751.9
902.1342	1650.7751	20750.95	19838.9
902.2761	1652.5181	20872.75	19966.95
902.4179	1654.2604	21019.75	20109.3
902.5598	1656.0019	21288.95	20381.35
902.7016	1657.7427	21636.55	20727.95
902.8434	1659.4828	21957.45	21046.6
902.9852	1661.222	22174.1	21263.75
903.127	1662.9606	22173.85	21263.75
903.2687	1664.6984	22003.45	21090.5
903.4105	1666.4354	21685.6	20771.15
903.5522	1668.1717	21169.8	20256.15
903.6939	1669.9072	20641.45	19726.45
903.8356	1671.642	20275.8	19358.9
903.9773	1673.3761	19954.75	19042.5
904.119	1675.1094	19665.3	18756.2
904.2606	1676.8419	19434.15	18522.85
904.4022	1678.5737	19225.9	18316.05
904.5439	1680.3048	19099.1	18185.3
904.6855	1682.0351	18927.2	18013.75
904.827	1683.7646	18819.3	17908.2
904.9686	1685.4934	18733	17823
905.1101	1687.2215	18648.15	17738.6
905.2517	1688.9488	18548.75	17642.05
905.3932	1690.6754	18384.05	17473.85
905.5347	1692.4012	18387.5	17477.8
905.6761	1694.1263	18300.95	17390.6
905.8176	1695.8506	18232.1	17324.65
905.9591	1697.5742	18160.05	17252.65
906.1005	1699.297	18121.95	17218.3
906.2419	1701.0191	17997.1	17093.85
906.3833	1702.7404	17910.65	17005.35
906.5246	1704.461	17776.95	16868.55
906.666	1706.1808	17721.4	16813.2
906.8073	1707.8999	17664.65	16756.65
906.9487	1709.6182	17605.4	16703.6
907.09	1711.3358	17569.05	16669.3
907.2313	1713.0527	17466.05	16565.2
907.3725	1714.7688	17428.4	16522.55
907.5138	1716.4841	17310.15	16404.95
907.655	1718.1987	17344.15	16433.8
907.7962	1719.9126	17227.7	16323.85
907.9374	1721.6257	17189.55	16287.9
908.0786	1723.338	17169.55	16268.9
908.2198	1725.0496	17044.35	16141.3
908.3609	1726.7605	17021.55	16118.1
908.502	1728.4706	16925.35	16024.3
908.6431	1730.18	16840.8	15936
908.7842	1731.8886	16823.85	15925.2
908.9253	1733.5964	16774.6	15854.75
909.0664	1735.3036	16717.75	15816.6
909.2074	1737.0099	16694.15	15792.95
909.3484	1738.7156	16655.95	15757.7
909.4894	1740.4204	16555.35	15651.35
909.6304	1742.1246	16532.25	15628.25
909.7714	1743.8279	16477.3	15575.05
909.9123	1745.5306	16432.3	15533.8
910.0532	1747.2325	16403.55	15505.05
910.1941	1748.9336	16334.2	15436.2
910.335	1750.634	16247.4	15343.5
910.4759	1752.3336	16279.65	15379.2
910.6168	1754.0325	16207.9	15310.95
910.7576	1755.7307	16169.3	15271.05
910.8984	1757.4281	16171.15	15270.85
911.0392	1759.1247	16134.95	15223.75
911.18	1760.8206	16073.95	15165.75
911.3208	1762.5158	16060.5	15154.25
911.4615	1764.2102	15969.9	15068.3
911.6022	1765.9039	15903.3	15003.8
911.7429	1767.5968	15876.25	14981.25
911.8836	1769.289	15818.85	14922.35
912.0243	1770.9804	15788.75	14889
912.1649	1772.6711	15767.1	14863.15
912.3056	1774.361	15738.75	14834.8
912.4462	1776.0502	15682.2	14781.55
912.5868	1777.7386	15641.95	14737.85
912.7274	1779.4263	15569.9	14669.3
912.8679	1781.1132	15587.2	14688.5
913.0084	1782.7994	15521.9	14624.3
913.149	1784.4849	15457.15	14559.95
913.2895	1786.1696	15437.2	14519.85
913.4299	1787.8535	15408.2	14513.25
913.5704	1789.5367	15335.9	14440.75
913.7108	1791.2192	15356.95	14464.5
913.8513	1792.9009	15307.05	14381
913.9917	1794.5818	15228.35	14324.8
914.132	1796.2621	15189.3	14290
914.2724	1797.9415	15144.8	14245.75
914.4128	1799.6202	15110.15	14209.6
914.5531	1801.2982	15092.8	14193.65
914.6934	1802.9755	15085.2	14182.4
914.8337	1804.6519	15041.3	14142.3
914.9739	1806.3277	14933.15	14037.2
915.1142	1808.0027	14847.2	13955.45
915.2544	1809.6769	14882.95	13988.6
915.3946	1811.3504	14820.05	13924.3
915.5348	1813.0231	14765.6	13872
915.675	1814.6951	14732.5	13836.4
915.8151	1816.3664	14734.8	13835
915.9553	1818.0369	14704.4	13805.65
916.0954	1819.7067	14683.7	13785.1
916.2355	1821.3757	14640.4	13738.7
916.3755	1823.044	14613.65	13712.95
916.5156	1824.7115	14532.55	13631.8
916.6556	1826.3783	14519.55	13620.3
916.7956	1828.0443	14464.35	13565.85
916.9356	1829.7096	14436.6	13538
917.0756	1831.3741	14427.05	13524.9
917.2155	1833.0379	14389.05	13492.95
917.3555	1834.701	14331.4	13437.25
917.4954	1836.3633	14281.85	13385.35
917.6353	1838.0248	14242.15	13346.7
917.7751	1839.6856	14211.95	13314.95
917.915	1841.3457	14216.35	13318.75
918.0548	1843.005	14182.8	13281.1
918.1946	1844.6636	14155.75	13257.15
918.3344	1846.3214	14103.95	13206.6
918.4742	1847.9785	14108.6	13210.8
918.6139	1849.6349	14061.6	13163.25
918.7537	1851.2904	14056.55	13149.2
918.8934	1852.9453	13995	13093.1
919.0331	1854.5994	13921.65	13020.9
919.1727	1856.2528	13979.55	13076.1
919.3124	1857.9054	13929.95	13030.2
919.452	1859.5572	13888.35	12989.65
919.5916	1861.2083	13865.7	12964.75
919.7312	1862.8587	13830.9	12932
919.8708	1864.5084	13800.05	12898.2
920.0103	1866.1572	13732.6	12828.45
920.1498	1867.8054	13675.25	12771.6
920.2893	1869.4528	13667.3	12766.1
920.4288	1871.0994	13637.5	12737.1
920.5683	1872.7453	13625.45	12726.05
920.7077	1874.3905	13579.65	12673.95
920.8471	1876.0349	13512.6	12614.85
920.9865	1877.6786	13512.9	12614.65
921.1259	1879.3215	13506.05	12608.85
921.2653	1880.9637	13466.65	12567.15
921.4046	1882.6051	13427.95	12531.7
921.5439	1884.2458	13409.85	12509.6
921.6832	1885.8858	13325.65	12429.45
921.8225	1887.525	13305.6	12406.9
921.9617	1889.1634	13270.65	12373.15
922.101	1890.8011	13233.35	12333.5
922.2402	1892.4381	13209.95	12313
922.3794	1894.0743	13163.3	12264.2
922.5185	1895.7098	13147.4	12249.75
922.6577	1897.3446	13121.2	12223.6
922.7968	1898.9786	13079.7	12177.95
922.9359	1900.6118	13096.85	12198.15
923.075	1902.2443	12987.8	12089
923.214	1903.8761	12954.2	12053.65
923.3531	1905.5071	12893.8	11995.6
923.4921	1907.1374	12833.05	11934.8
923.6311	1908.7669	12809.7	11913.75
923.77	1910.3957	12821.15	11925.85
923.909	1912.0237	12701.45	11803.2
924.0479	1913.651	12702.3	11804.4
924.1868	1915.2776	12661.65	11767.9
924.3257	1916.9034	12598.1	11703.15
924.4646	1918.5285	12536.2	11641.35
924.6034	1920.1528	12489	11590.1
924.7422	1921.7764	12485.25	11588.05
924.881	1923.3992	12445.7	11550.15
925.0198	1925.0213	12356.25	11459.2
925.1586	1926.6427	12300.9	11405.2
925.2973	1928.2633	12356.95	11389.55
925.436	1929.8832	12273.15	11376.45
925.5747	1931.5023	12208.7	11312.25
925.7134	1933.1207	12188.7	11290.95
925.852	1934.7383	12175.25	11278.4
925.9906	1936.3552	12105.85	11212.7
926.1292	1937.9714	12065.55	11170.65
926.2678	1939.5868	12028.65	11130.45
926.4064	1941.2015	11984.2	11086.65
926.5449	1942.8154	11932.8	11035.4
926.6834	1944.4286	11890.3	10991.15
926.8219	1946.041	11855.55	10939.65
926.9604	1947.6528	11813.9	10912.7
927.0988	1949.2637	11758.7	10862
927.2372	1950.8739	11715	10820.55
927.3756	1952.4834	11688.15	10793.2
927.514	1954.0921	11674.75	10779.45
927.6523	1955.7001	11632.25	10732.1
927.7907	1957.3074	11607.8	10713.6
927.929	1958.9139	11533.6	10642.7
928.0673	1960.5197	11507.25	10615.2
928.2055	1962.1247	11483.05	10589.75
928.3438	1963.729	11394.3	10502.25
928.482	1965.3325	11389.05	10474.15
928.6202	1966.9353	11356.95	10467.65
928.7584	1968.5374	11302.2	10410.65
928.8965	1970.1387	11268.85	10376.45
929.0346	1971.7393	11217.75	10326
929.1727	1973.3392	11204.95	10312.15
929.3108	1974.9383	11171.7	10279.15
929.4489	1976.5366	11095.2	10205.2
929.5869	1978.1342	11065	10172.95
929.7249	1979.7311	11054.9	10163.45
929.8629	1981.3273	11021.5	10130.65
930.0009	1982.9227	10981.95	10091.65
930.1388	1984.5173	10929.45	10038.3
930.2767	1986.1112	10881.15	9993.75
930.4146	1987.7044	10878.1	9988.15
930.5525	1989.2968	10850.2	9957.65
930.6904	1990.8885	10805.2	9912.25
930.8282	1992.4795	10774.1	9885.65
930.966	1994.0697	10719.2	9832.1
931.1038	1995.6592	10713.2	9825.75
931.2415	1997.2479	10661.85	9772.4
931.3793	1998.8359	10652.2	9764.6
931.517	2000.4232	10611.3	9725.3
931.6547	2002.0097	10570.4	9686.4
931.7923	2003.5955	10519.7	9633
931.93	2005.1805	10523.6	9636.75
932.0676	2006.7648	10467.3	9580.9
932.2052	2008.3484	10452.3	9565.2
932.3427	2009.9312	10466.05	9579.7
932.4803	2011.5133	10399.7	9517.7
932.6178	2013.0946	10356.75	9471.8
932.7553	2014.6752	10316.35	9430.05
932.8928	2016.2551	10305.4	9416.35
933.0302	2017.8342	10301.65	9414.45
933.1676	2019.4126	10240.2	9355.95
933.305	2020.9902	10213.05	9330.2
933.4424	2022.5672	10175	9289.95
933.5798	2024.1433	10152.25	9261.9
933.7171	2025.7188	10119.15	9235.55
933.8544	2027.2935	10074.1	9189.35
933.9917	2028.8674	10030.65	9146.7
934.129	2030.4406	10010.05	9127.15
934.2662	2032.0131	9963.5	9080.9
934.4034	2033.5849	9948.95	9060.25
934.5406	2035.1559	9943.45	9060.6
934.6778	2036.7261	9932.6	9047.45
934.8149	2038.2957	9877.25	8990.15
934.952	2039.8645	9861.2	8970.55
935.0891	2041.4325	9882	8992.75
935.2262	2042.9998	9825.5	8939.85
935.3632	2044.5664	9800.7	8913.3
935.5002	2046.1323	9759.8	8874.2
935.6372	2047.6974	9729.1	8843.7
935.7742	2049.2617	9708.1	8823.85
935.9111	2050.8254	9707.2	8818.65
936.048	2052.3883	9694.6	8806.6
936.1849	2053.9504	9647.3	8756.75
936.3218	2055.5118	9646.9	8759.4
936.4586	2057.0725	9581.7	8692.55
936.5955	2058.6325	9545.45	8660.7
936.7323	2060.1917	9512.45	8627.6
936.869	2061.7502	9516.25	8628.05
937.0058	2063.3079	9462.75	8578.45
937.1425	2064.8649	9428.45	8541.05
937.2792	2066.4212	9439.8	8550.5
937.4159	2067.9767	9377.6	8490.15
937.5525	2069.5315	9330.35	8444.15
937.6891	2071.0856	9311.4	8423.75
937.8257	2072.6389	9278.9	8392.6
937.9623	2074.1915	9232.1	8350.55
938.0989	2075.7433	9175.9	8287.95
938.2354	2077.2945	9151.85	8266.05
938.3719	2078.8448	9152.85	8266.1
938.5084	2080.3945	9093.3	8205.55
938.6448	2081.9434	9098.9	8212.8
938.7812	2083.4916	9068.3	8179.05
938.9176	2085.039	9038.35	8146
939.054	2086.5857	9019.35	8126.25
939.1903	2088.1317	9013.3	8120.4
939.3267	2089.677	8968	8073.7
939.463	2091.2215	8943.4	8048.4
939.5992	2092.7652	8923.4	8027.75
939.7355	2094.3083	8890.65	7999.55
939.8717	2095.8506	8882.5	7993.9
940.0079	2097.3921	8869.6	7981.55
940.1441	2098.933	8856	7967.4
940.2802	2100.4731	8834.4	7943.85
940.4163	2102.0124	8833.6	7936.25
940.5524	2103.5511	8797.3	7906.7
940.6885	2105.089	8766.15	7875.15
940.8245	2106.6261	8741.5	7848.75
940.9606	2108.1626	8728.3	7839.15
941.0965	2109.6983	8713.65	7798.65
941.2325	2111.2332	8680.3	7790.55
941.3684	2112.7675	8671.65	7779.95
941.5044	2114.301	8635.65	7742.85
941.6403	2115.8337	8613	7721.15
941.7761	2117.3657	8589.15	7699.8
941.912	2118.897	8566.5	7675.35
942.0478	2120.4276	8545.5	7648.75
942.1835	2121.9575	8511.65	7617.2
942.3193	2123.4866	8492.25	7597.45
942.455	2125.0149	8465.8	7573.55
942.5907	2126.5426	8427.7	7540.75
942.7264	2128.0695	8418.95	7529.5
942.8621	2129.5956	8388.9	7503.1
942.9977	2131.1211	8385.05	7496
943.1333	2132.6458	8367.45	7479.8
943.2689	2134.1698	8343.75	7453.6
943.4044	2135.693	8304.5	7411.6
943.54	2137.2155	8306.65	7412.15
943.6755	2138.7373	8282.95	7391.3
943.8109	2140.2584	8242.25	7358.2
943.9464	2141.7787	8225.8	7335.55
944.0818	2143.2983	8187.45	7303.25
944.2172	2144.8171	8144.35	7260.4
944.3526	2146.3353	8135.2	7246.95
944.4879	2147.8527	8102.3	7216.6
944.6232	2149.3693	8103.85	7213.75
944.7585	2150.8853	8101.9	7209.6
944.8938	2152.4005	8043.45	7152.25
945.029	2153.9149	8029.7	7136.3
945.1642	2155.4287	8084.45	7088.35
945.2994	2156.9417	7995.7	7102.45
945.4346	2158.454	7940.85	7051.15
945.5697	2159.9655	7948.2	7062.4
945.7048	2161.4764	7928.95	7041.15
945.8399	2162.9865	7893.75	7006
945.9749	2164.4958	7884	6995.35
946.1099	2166.0045	7854.3	6964.3
946.2449	2167.5124	7824.3	6936
946.3799	2169.0195	7806.6	6916.85
946.5148	2170.526	7810	6921.25
946.6498	2172.0317	7788.85	6899.85
946.7846	2173.5367	7775	6884.65
946.9195	2175.0409	7727.95	6837.95
947.0543	2176.5445	7746.8	6856.5
947.1891	2178.0473	7698.95	6807.05
947.3239	2179.5494	7672.3	6778
947.4587	2181.0507	7638.15	6747.15
947.5934	2182.5513	7609.25	6721.6
947.7281	2184.0512	7599.9	6709.75
947.8628	2185.5504	7576.45	6687.75
947.9974	2187.0488	7529.2	6641.6
948.132	2188.5465	7505.9	6617.5
948.2666	2190.0435	7478.25	6590.25
948.4012	2191.5397	7471.55	6579.95
948.5357	2193.0353	7446.25	6555
948.6702	2194.5301	7410.5	6518.7
948.8047	2196.0241	7394.4	6499.75
948.9392	2197.5175	7402.15	6508.55
949.0736	2199.0101	7357.45	6459.55
949.208	2200.502	7325.2	6435.3
949.3424	2201.9931	7271.95	6382.65
949.4767	2203.4835	7262.95	6375.35
949.611	2204.9733	7249.2	6344.7
949.7453	2206.4622	7244.65	6358.3
949.8796	2207.9505	7192.75	6305.75
950.0138	2209.438	7170.95	6286.3
950.148	2210.9248	7149.5	6261.9
950.2822	2212.4109	7130	6241.15
950.4164	2213.8962	7116.65	6222.7
950.5505	2215.3809	7118.9	6222.75
950.6846	2216.8648	7082.35	6188.35
950.8186	2218.3479	7060.9	6160.3
950.9527	2219.8304	7023.85	6124.9
951.0867	2221.3121	6993.1	6097.2
951.2207	2222.7931	6986	6093.65
951.3546	2224.2733	6974.4	6083.1
951.4886	2225.7529	6956.75	6065.6
951.6225	2227.2317	6921.05	6029.4
951.7563	2228.7098	6906.55	6021.2
951.8902	2230.1872	6871.7	5983.6
952.024	2231.6638	6845.4	5959.4
952.1578	2233.1397	6827.9	5934.8
952.2916	2234.6149	6797.85	5910.7
952.4253	2236.0894	6795.2	5905.3
952.559	2237.5632	6803.85	5910.5
952.6927	2239.0362	6746.8	5858.05
952.8263	2240.5085	6725.9	5835.45
952.9599	2241.9801	6689.35	5799.5
953.0935	2243.4509	6692.75	5800.9
953.2271	2244.921	6671.65	5778.95
953.3606	2246.3904	6646.1	5750.3
953.4941	2247.8591	6611.55	5720
953.6276	2249.3271	6601.3	5709.2
953.7611	2250.7943	6565.95	5673.9
953.8945	2252.2608	6577.4	5683.9
954.0279	2253.7266	6543.05	5653
954.1612	2255.1917	6518	5625.95
954.2946	2256.656	6517.25	5627.55
954.4279	2258.1197	6474.65	5586.45
954.5612	2259.5826	6471.7	5580.7
954.6944	2261.0447	6454.2	5561.85
954.8276	2262.5062	6434.35	5541.35
954.9608	2263.9669	6429.7	5535.25
955.094	2265.4269	6422.95	5533.45
955.2271	2266.8862	6399.95	5508.8
955.3602	2268.3448	6373.05	5484.4
955.4933	2269.8026	6381.4	5493.55
955.6264	2271.2598	6326.25	5434.95
955.7594	2272.7162	6307	5418.05
955.8924	2274.1719	6279.25	5386.75
956.0253	2275.6268	6293.45	5399.8
956.1583	2277.0811	6281	5386.65
956.2912	2278.5346	6248.4	5360.2
956.4241	2279.9874	6249.6	5361.45
956.5569	2281.4395	6234.1	5346.6
956.6897	2282.8908	6211.95	5315.5
956.8225	2284.3414	6205.45	5314.7
956.9553	2285.7914	6171.45	5281.8
957.088	2287.2406	6156.7	5267.25
957.2207	2288.689	6154.4	5260.95
957.3534	2290.1368	6150.8	5254.7
957.486	2291.5838	6141.9	5243.4
957.6186	2293.0302	6109.35	5210.9
957.7512	2294.4758	6056.8	5162.5
957.8838	2295.9206	6025	5128.6
958.0163	2297.3648	6031.45	5141.1
958.1488	2298.8082	6015.15	5124.05
958.2813	2300.251	6014	5119.9
958.4137	2301.693	5992.1	5095.75
958.5461	2303.1343	5997.45	5103.05
958.6785	2304.5748	5951.5	5060.9
958.8108	2306.0147	5932.45	5043.45
958.9432	2307.4538	5909	5018.95
959.0754	2308.8922	5899.75	5016.7
959.2077	2310.3299	5891.95	5003.3
959.3399	2311.7669	5868.35	4978.8
959.4721	2313.2031	5827.45	4937.15
959.6043	2314.6387	5815.4	4925.55
959.7365	2316.0735	5800.85	4909.45
959.8686	2317.5076	5807.25	4917
960.0006	2318.941	5792.2	4900
960.1327	2320.3737	5770	4875.85
960.2647	2321.8056	5747.6	4852.95
960.3967	2323.2369	5738.95	4846.4
960.5287	2324.6674	5704.25	4809.95
960.6606	2326.0972	5701.15	4809.65
960.7925	2327.5263	5678	4787.2
960.9244	2328.9547	5667	4773.65
961.0562	2330.3823	5651.55	4756.7
961.1881	2331.8092	5637.55	4740.3
961.3198	2333.2355	5618	4723.15
961.4516	2334.661	5605.75	4710.95
961.5833	2336.0858	5603.35	4707.2
961.715	2337.5098	5580.7	4688.2
961.8467	2338.9332	5567.55	4674.9
961.9783	2340.3558	5555.6	4659.75
962.1099	2341.7778	5528.45	4638.45
962.2415	2343.199	5512.65	4619.45
962.373	2344.6195	5508.75	4619.05
962.5045	2346.0393	5487.3	4599.6
962.636	2347.4583	5485.95	4593.3
962.7675	2348.8767	5473.95	4580.25
962.8989	2350.2943	5446.3	4550.95
963.0303	2351.7113	5437.5	4540.25
963.1617	2353.1275	5423.35	4528.25
963.293	2354.543	5412.5	4509.4
963.4243	2355.9578	5395.35	4503.4
963.5556	2357.3718	5363.5	4474.35
963.6868	2358.7852	5325.45	4434.4
963.818	2360.1978	5316.15	4426.35
963.9492	2361.6098	5309.85	4419
964.0803	2363.021	5293	4397.5
964.2114	2364.4315	5280.1	4389.75
964.3425	2365.8413	5264.65	4374.15
964.4736	2367.2504	5259.75	4370
964.6046	2368.6587	5226.7	4334.55
964.7356	2370.0664	5203.1	4313.4
964.8666	2371.4733	5204.05	4314.05
964.9975	2372.8795	5172.1	4281
965.1284	2374.285	5154.75	4262.55
965.2593	2375.6899	5126.9	4237.25
965.3901	2377.0939	5114.15	4225.55
965.5209	2378.4973	5093	4204
965.6517	2379.9	5080.3	4190.75
965.7825	2381.3019	5054.55	4165.8
965.9132	2382.7032	5047.55	4159.75
966.0439	2384.1037	5032.25	4146.8
966.1745	2385.5035	5006.7	4117.6
966.3051	2386.9027	4999.35	4112.9
966.4357	2388.3011	4974.95	4084.7
966.5663	2389.6987	4971.35	4082.4
966.6968	2391.0957	4960.45	4071.65
966.8273	2392.492	4933.4	4046.9
966.9578	2393.8876	4920.2	4031.85
967.0882	2395.2824	4887.4	3999.45
967.2186	2396.6765	4886.05	3997.95
967.349	2398.07	4858.7	3970.1
967.4793	2399.4627	4863.65	3970.05
967.6097	2400.8547	4856	3964.75
967.7399	2402.246	4831.35	3934.3
967.8702	2403.6366	4791.9	3902.5
968.0004	2405.0265	4792.75	3904.2
968.1306	2406.4156	4770.95	3879.2
968.2607	2407.8041	4761.05	3867.4
968.3909	2409.1918	4744.15	3853.8
968.521	2410.5789	4732.65	3841.25
968.651	2411.9652	4729.85	3835.6
968.781	2413.3508	4716.55	3825.6
968.911	2414.7358	4711.65	3822
969.041	2416.12	4667	3779.4
969.1709	2417.5035	4653.75	3764.3
969.3008	2418.8863	4640.25	3750.2
969.4307	2420.2684	4621.55	3730.6
969.5606	2421.6497	4609	3715.9
969.6904	2423.0304	4588.55	3699
969.8201	2424.4104	4576	3684.5
969.9499	2425.7896	4565.45	3674.9
970.0796	2427.1682	4551.45	3664.8
970.2093	2428.546	4540	3649.7
970.3389	2429.9232	4526.55	3635.9
970.4685	2431.2996	4520.65	3629.8
970.5981	2432.6753	4521.05	3629.9
970.7277	2434.0503	4492.05	3601.35
970.8572	2435.4246	4473.35	3583
970.9867	2436.7982	4459	3565.7
971.1161	2438.1711	4442.9	3551.85
971.2456	2439.5433	4432.7	3541.8
971.375	2440.9148	4422.5	3528
971.5043	2442.2856	4411.1	3520.45
971.6336	2443.6557	4400.05	3507.75
971.7629	2445.025	4392.2	3503.1
971.8922	2446.3937	4380	3487.4
972.0214	2447.7617	4374.3	3480.95
972.1506	2449.1289	4351.7	3460.4
972.2798	2450.4955	4350.95	3457.45
972.4089	2451.8613	4340.85	3450.15
972.538	2453.2265	4331.1	3441.65
972.6671	2454.5909	4309.5	3419.8
972.7961	2455.9546	4316.4	3424.95
972.9251	2457.3177	4298.95	3410.85
973.0541	2458.68	4274.2	3382
973.1831	2460.0416	4300.35	3409.4
973.312	2461.4025	4280.2	3388.2
973.4408	2462.7627	4250.25	3350
973.5697	2464.1222	4232.95	3346.5
973.6985	2465.4811	4232.85	3345.25
973.8273	2466.8392	4217.15	3327.75
973.956	2468.1966	4212.85	3319.35
974.0847	2469.5533	4194.5	3301.65
974.2134	2470.9093	4197.45	3306.85
974.3421	2472.2645	4195.55	3303.2
974.4707	2473.6191	4181.9	3291.95
974.5993	2474.973	4171.05	3282.75
974.7278	2476.3262	4157.05	3266.75
974.8563	2477.6787	4139.6	3252.05
974.9848	2479.0305	4125.25	3237.2
975.1132	2480.3816	4106.4	3214.65
975.2417	2481.7319	4104.15	3215.3
975.37	2483.0816	4081.9	3192.65
975.4984	2484.4306	4097.1	3206.75
975.6267	2485.7789	4047.9	3160.9
975.755	2487.1264	4050	3159.7
975.8833	2488.4733	4027.4	3139.3
976.0115	2489.8195	4026.55	3120.45
976.1397	2491.165	4009.45	3115.7
976.2678	2492.5097	3995.85	3106.15
976.3959	2493.8538	3980.2	3093.8
976.524	2495.1972	3970.1	3080.7
976.6521	2496.5398	3949.6	3057.3
976.7801	2497.8818	3937.55	3043.2
976.9081	2499.2231	3930.55	3038.25
977.036	2500.5637	3922.2	3029.65
977.164	2501.9035	3913.55	3021.8
977.2918	2503.2427	3906.45	3013.55
977.4197	2504.5812	3884.15	2993.65
977.5475	2505.919	3871.35	2980.05
977.6753	2507.256	3881.4	2992.7
977.8031	2508.5924	3854.2	2964.4
977.9308	2509.9281	3854.7	2960
978.0585	2511.2631	3832	2941.05
978.1861	2512.5974	3811.25	2920.85
978.3137	2513.9309	3814.4	2923.7
978.4413	2515.2638	3819.95	2902.15
978.5689	2516.596	3808.35	2918.05
978.6964	2517.9275	3780	2886.6
978.8239	2519.2583	3774	2884.65
978.9513	2520.5884	3756.55	2866.2
979.0788	2521.9178	3756.95	2866.05
979.2062	2523.2465	3746.1	2857.9
979.3335	2524.5745	3724.75	2835.8
979.4608	2525.9018	3719.75	2828.5
979.5881	2527.2284	3699.55	2811.35
979.7154	2528.5543	3691.55	2800.85
979.8426	2529.8796	3669.95	2779.9
979.9698	2531.2041	3678.6	2787.1
980.0969	2532.5279	3676.15	2789.15
980.224	2533.851	3671.55	2781.35
980.3511	2535.1735	3669.6	2780.85
980.4781	2536.4952	3659.55	2768.95
980.6052	2537.8163	3643.35	2751.8
980.7321	2539.1366	3617.1	2725.45
980.8591	2540.4562	3620.7	2728.2
980.986	2541.7752	3608.15	2716.35
981.1129	2543.0935	3590.8	2700.1
981.2397	2544.411	3600.25	2709.2
981.3665	2545.7279	3598.3	2707.85
981.4933	2547.0441	3600.55	2711.3
981.62	2548.3596	3575.5	2682.05
981.7467	2549.6744	3577.4	2686.9
981.8734	2550.9885	3575.95	2681.75
982.0001	2552.3019	3550.65	2661.7
982.1267	2553.6146	3541.4	2650.6
982.2532	2554.9266	3539.1	2647.6
982.3798	2556.2379	3533.25	2642.9
982.5063	2557.5485	3524.05	2634.05
982.6327	2558.8585	3520.8	2623.2
982.7592	2560.1677	3517.15	2621
982.8856	2561.4762	3501.35	2610.25
983.0119	2562.7841	3496.1	2602.95
983.1383	2564.0913	3483.05	2593.6
983.2646	2565.3977	3471	2582.4
983.3908	2566.7035	3459.7	2567.15
983.517	2568.0086	3475.55	2583.1
983.6432	2569.313	3473.5	2582.5
983.7694	2570.6167	3462.2	2567.9
983.8955	2571.9197	3449.5	2559.2
984.0216	2573.222	3461.4	2566.05
984.1476	2574.5236	3433.7	2539.8
984.2737	2575.8246	3424.9	2530.95
984.3996	2577.1248	3405.95	2512.35
984.5256	2578.4244	3421.3	2529.3
984.6515	2579.7232	3414.75	2523.2
984.7774	2581.0214	3433.95	2515.5
984.9032	2582.3189	3406.8	2517.9
985.029	2583.6157	3412	2516.15
985.1548	2584.9118	3386.35	2497.05
985.2806	2586.2072	3397.95	2508.35
985.4063	2587.5019	3388.3	2496.05
985.5319	2588.7959	3387.05	2496.65
985.6576	2590.0893	3368.65	2475.95
985.7832	2591.3819	3363.15	2473.35
985.9087	2592.6739	3342.35	2452.1
986.0343	2593.9652	3356.8	2464.35
986.1597	2595.2557	3339.95	2448.35
986.2852	2596.5456	3334.65	2440.85
986.4106	2597.8348	3321.25	2430.65
986.536	2599.1234	3313.3	2423
986.6614	2600.4112	3312.3	2422.35
986.7867	2601.6983	3320.85	2427.9
986.912	2602.9848	3303.2	2413.35
987.0372	2604.2705	3298.4	2398.9
987.1624	2605.5556	3294	2400.7
987.2876	2606.84	3273.6	2383.1
987.4128	2608.1237	3263.35	2372.65
987.5379	2609.4067	3263.65	2371.5
987.6629	2610.689	3250.3	2351.65
987.788	2611.9707	3245.6	2351.3
987.913	2613.2516	3229.8	2334.15
988.0379	2614.5319	3214.45	2322.05
988.1629	2615.8115	3200.7	2310.95
988.2878	2617.0903	3196	2303.3
988.4126	2618.3685	3196.15	2304.15
988.5375	2619.6461	3182.15	2290.85
988.6622	2620.9229	3178.95	2287.5
988.787	2622.199	3170.4	2278.85
988.9117	2623.4745	3159.8	2269.25
989.0364	2624.7493	3139.55	2249.3
989.161	2626.0234	3146.3	2255.2
989.2857	2627.2968	3152.7	2261
989.4102	2628.5695	3130.75	2239.2
989.5348	2629.8415	3117.35	2226.9
989.6593	2631.1128	3125.5	2234.1
989.7837	2632.3835	3105.7	2215.55
989.9082	2633.6535	3098.25	2208.15
990.0326	2634.9228	3096.8	2206.5
990.1569	2636.1914	3095.75	2203.3
990.2812	2637.4593	3093.65	2196.6
990.4055	2638.7265	3058.3	2165.7
990.5298	2639.9931	3061.2	2170.15
990.654	2641.259	3059.9	2168.5
990.7782	2642.5242	3034.4	2143.2
990.9023	2643.7887	3043.15	2151.05
991.0264	2645.0525	3033.3	2144.5
991.1505	2646.3156	3024.55	2118.15
991.2745	2647.5781	3013.95	2123.55
991.3985	2648.8398	3003.8	2114.95
991.5225	2650.1009	2996.95	2099.6
991.6464	2651.3613	2984.15	2093.8
991.7703	2652.6211	2979.55	2088
991.8942	2653.8801	2977.35	2088.95
992.018	2655.1385	2986.6	2092.7
992.1418	2656.3961	2957.8	2068.55
992.2655	2657.6531	2949.15	2056.6
992.3892	2658.9094	2950.55	2059.7
992.5129	2660.1651	2962.95	2072.85
992.6366	2661.42	2944.55	2053.75
992.7602	2662.6743	2934.05	2043.3
992.8837	2663.9279	2935.65	2045.1
993.0073	2665.1808	2927.45	2036.8
993.1307	2666.433	2928.6	2037.2
993.2542	2667.6846	2910.05	2019.8
993.3776	2668.9354	2923	2028.5
993.501	2670.1856	2923.55	2032.1
993.6244	2671.4351	2933.4	2043.55
993.7477	2672.6839	2919	2027.35
993.8709	2673.9321	2901.25	2013.1
993.9942	2675.1795	2894.05	2003.65
994.1174	2676.4263	2890.8	2000.75
994.2405	2677.6724	2888.65	1996.95
994.3637	2678.9179	2890.55	1998.8
994.4868	2680.1626	2882.25	1993.05
994.6098	2681.4067	2874.35	1983.85
994.7328	2682.6501	2874.25	1985.5
994.8558	2683.8928	2857.95	1967
994.9788	2685.1348	2860.55	1970.9
995.1017	2686.3761	2849.3	1961.8
995.2245	2687.6168	2837.4	1946.3
995.3474	2688.8568	2824.25	1935.65
995.4702	2690.0961	2807.4	1917.85
995.5929	2691.3348	2818.2	1927.85
995.7156	2692.5727	2804.05	1915.9
995.8383	2693.81	2804.85	1915.95
995.961	2695.0466	2783.95	1898.1
996.0836	2696.2826	2786.25	1895
996.2062	2697.5178	2783	1890.45
996.3287	2698.7524	2787.5	1897.15
996.4512	2699.9863	2783.8	1893.05
996.5737	2701.2195	2770.35	1880.6
996.6961	2702.452	2766.8	1875.45
996.8185	2703.6839	2770.1	1880.65
996.9408	2704.9151	2750.55	1862.15
997.0631	2706.1456	2754.1	1862.35
997.1854	2707.3755	2761.45	1870.35
997.3077	2708.6046	2767.5	1875.05
997.4299	2709.8331	2766.7	1876.05
997.552	2711.0609	2768.95	1879.1
997.6742	2712.2881	2765.8	1874.05
997.7963	2713.5145	2772.4	1883.65
997.9183	2714.7403	2785.55	1896.8
998.0403	2715.9654	2779	1887.75
998.1623	2717.1899	2791.9	1887.15
998.2842	2718.4136	2789.4	1900.8
998.4062	2719.6367	2793.1	1902.1
998.528	2720.8591	2803.25	1908.3
998.6498	2722.0809	2804.9	1917.1
998.7716	2723.3019	2798.5	1905.75
998.8934	2724.5223	2803.4	1911
999.0151	2725.7421	2793.45	1902.85
999.1368	2726.9611	2809.7	1920.45
999.2584	2728.1795	2799	1906.1
999.38	2729.3972	2785.1	1896.55
999.5016	2730.6142	2774.95	1875.75
999.6231	2731.8306	2754.45	1865.4
999.7446	2733.0462	2736.1	1845.8
999.8661	2734.2612	2706.7	1812.8
999.9875	2735.4756	2685.95	1796.35
1000.1089	2736.6892	2668.15	1778.65
1000.2302	2737.9022	2650.35	1762.55
1000.3515	2739.1145	2619.6	1729.3
1000.4728	2740.3262	2615.45	1718.55
1000.594	2741.5372	2589.9	1700.8
1000.7152	2742.7475	2573.05	1683.05
1000.8363	2743.9571	2564.45	1673.05
1000.9575	2745.1661	2556.55	1663.5
1001.0785	2746.3744	2552	1663.95
1001.1996	2747.582	2528.7	1641.95
1001.3206	2748.7889	2511.1	1621.4
1001.4415	2749.9952	2495.65	1606.8
1001.5625	2751.2008	2491.65	1601.55
1001.6833	2752.4057	2483.55	1591.25
1001.8042	2753.61	2483.35	1592.85
1001.925	2754.8136	2478.1	1587.6
1002.0458	2756.0165	2468.1	1579.7
1002.1665	2757.2188	2455.45	1566.1
1002.2872	2758.4204	2445.65	1558.15
1002.4078	2759.6213	2465.65	1578.05
1002.5285	2760.8215	2457.3	1565.05
1002.649	2762.0211	2440.75	1550.85
1002.7696	2763.22	2441.6	1549.3
1002.8901	2764.4182	2432.45	1542.6
1003.0106	2765.6158	2417.2	1530.05
1003.131	2766.8127	2410.95	1522.45
1003.2514	2768.009	2414.3	1526.8
1003.3717	2769.2045	2400.05	1509.65
1003.492	2770.3994	2397.4	1507.45
1003.6123	2771.5936	2386.3	1498.35
1003.7325	2772.7872	2374.15	1488.4
1003.8527	2773.9801	2366.7	1477.35
1003.9729	2775.1723	2382.75	1479.05
1004.093	2776.3639	2353.85	1467.7
1004.2131	2777.5548	2365.5	1475.4
1004.3331	2778.745	2364.95	1477.2
1004.4531	2779.9346	2354.85	1468.75
1004.5731	2781.1235	2355.9	1467.55
1004.693	2782.3117	2354.9	1467.65
1004.8129	2783.4992	2354.45	1469.6
1004.9328	2784.6861	2337.2	1449.4
1005.0526	2785.8723	2360.1	1469.9
1005.1723	2787.0579	2355.75	1467.75
1005.2921	2788.2428	2364.45	1477.65
1005.4118	2789.427	2364.2	1477.65
1005.5314	2790.6106	2368.4	1480.15
1005.651	2791.7935	2379.9	1493.35
1005.7706	2792.9757	2373.3	1487.65
1005.8902	2794.1573	2381.85	1491.8
1006.0097	2795.3382	2402.25	1512.2
1006.1291	2796.5184	2419.3	1532.7
1006.2485	2797.698	2419.4	1530.75
1006.3679	2798.8769	2432.95	1543.35
1006.4873	2800.0551	2434.4	1546.65
1006.6066	2801.2327	2446.8	1555.05
1006.7258	2802.4096	2463.7	1577.5
1006.8451	2803.5859	2485.5	1599.25
1006.9642	2804.7615	2501.3	1613.25
1007.0834	2805.9364	2536.05	1648.75
1007.2025	2807.1106	2549.15	1662.35
1007.3216	2808.2842	2572.4	1685.1
1007.4406	2809.4572	2604.6	1717.45
1007.5596	2810.6294	2645.7	1757.2
1007.6785	2811.801	2682.15	1797.05
1007.7975	2812.972	2712.65	1828.3
1007.9163	2814.1423	2752.65	1866.3
1008.0352	2815.3119	2804.7	1917.95
1008.154	2816.4808	2835.05	1949.6
1008.2727	2817.6491	2868.6	1984.05
1008.3914	2818.8167	2942.55	2055.45
1008.5101	2819.9837	2980	2088.7
1008.6288	2821.15	3028.2	2140.95
1008.7474	2822.3157	3056.6	2171.55
1008.8659	2823.4807	3093.6	2206.5
1008.9844	2824.645	3149.15	2261.35
1009.1029	2825.8086	3184.8	2297.75
1009.2214	2826.9716	3207.7	2322.35
1009.3398	2828.134	3237.1	2351.6
1009.4581	2829.2957	3290.3	2404.2
1009.5764	2830.4567	3313.05	2427.75
1009.6947	2831.617	3326.5	2440.95
1009.813	2832.7767	3339.05	2453.4
1009.9312	2833.9358	3330.7	2445.6
1010.0493	2835.0941	3317.65	2431.05
1010.1675	2836.2519	3313.15	2427.8
1010.2855	2837.4089	3294.95	2407.65
1010.4036	2838.5653	3288.9	2404.25
1010.5216	2839.7211	3281.2	2394.45
1010.6396	2840.8761	3287.7	2400.55
1010.7575	2842.0306	3312.65	2429.25
1010.8754	2843.1843	3336.1	2450
1010.9932	2844.3374	3404	2517.95
1011.111	2845.4899	3450.6	2564.85
1011.2288	2846.6417	3519.1	2632.6
1011.3465	2847.7928	3584.9	2700.2
1011.4642	2848.9433	3667.85	2781.25
1011.5818	2850.0931	3766.7	2881.7
1011.6995	2851.2422	3822.35	2936.95
1011.817	2852.3907	3903.45	3015.6
1011.9345	2853.5385	3964.4	3076.15
1012.052	2854.6857	4021.7	3127.25
1012.1695	2855.8323	4071.55	3186.95
1012.2869	2856.9781	4100.8	3213.8
1012.4042	2858.1233	4157.35	3272.4
1012.5216	2859.2679	4197	3312.05
1012.6389	2860.4118	4248.25	3362.9
1012.7561	2861.555	4273.9	3382.6
1012.8733	2862.6976	4298.2	3409.1
1012.9905	2863.8395	4312.95	3426.3
1013.1076	2864.9808	4344.2	3457.95
1013.2247	2866.1214	4354.05	3470.9
1013.3417	2867.2614	4385.2	3497
1013.4587	2868.4007	4389.9	3503.6
1013.5757	2869.5393	4382.95	3494.85
1013.6926	2870.6773	4393.05	3504.05
1013.8095	2871.8146	4416	3527.25
1013.9263	2872.9513	4413.75	3526.65
1014.0431	2874.0874	4390.15	3504.3
1014.1599	2875.2227	4383.2	3496.85
1014.2766	2876.3574	4364.1	3481.1
1014.3933	2877.4915	4331.2	3446.4
1014.51	2878.6249	4308.35	3422.55
1014.6266	2879.7577	4284.8	3396.45
1014.7431	2880.8898	4277.8	3381.95
1014.8596	2882.0212	4238.3	3354.25
1014.9761	2883.152	4231.95	3346
1015.0925	2884.2821	4214	3330.85
1015.2089	2885.4116	4182.85	3299.25
1015.3253	2886.5405	4195.45	3310.85
1015.4416	2887.6686	4220.05	3331.15
1015.5579	2888.7962	4223.2	3339.7
1015.6741	2889.923	4206.55	3322.45
1015.7903	2891.0493	4216.3	3331.45
1015.9065	2892.1748	4218.75	3335.3
1016.0226	2893.2997	4234.9	3347.9
1016.1387	2894.424	4258.45	3371.65
1016.2547	2895.5476	4263.8	3380.45
1016.3707	2896.6706	4283.15	3398.3
1016.4866	2897.7929	4300.05	3413.25
1016.6025	2898.9145	4334.2	3448.2
1016.7184	2900.0355	4363.1	3475.75
1016.8342	2901.1559	4377.65	3491.3
1016.95	2902.2756	4417.35	3531.5
1017.0658	2903.3946	4432	3547.2
1017.1815	2904.513	4470.75	3584.4
1017.2971	2905.6308	4498.9	3614.25
1017.4127	2906.7479	4517.9	3632.5
1017.5283	2907.8643	4536.55	3650.7
1017.6439	2908.9801	4557.1	3673.65
1017.7594	2910.0953	4554.85	3671.05
1017.8748	2911.2098	4541.95	3653.05
1017.9902	2912.3236	4549.1	3657
1018.1056	2913.4368	4511.25	3621.7
1018.2209	2914.5494	4511.15	3625.55
1018.3362	2915.6613	4467.1	3579.8
1018.4515	2916.7725	4446.2	3558.85
1018.5667	2917.8831	4410.1	3523.35
1018.6819	2918.9931	4375.05	3488.65
1018.797	2920.1024	4351.45	3466.7
1018.9121	2921.211	4328.55	3444.35
1019.0271	2922.319	4300.05	3416.1
1019.1421	2923.4264	4293.85	3409.65
1019.2571	2924.5331	4269.65	3385.35
1019.372	2925.6391	4250.55	3367.9
1019.4869	2926.7445	4254.45	3370.9
1019.6017	2927.8493	4238.55	3352.95
1019.7165	2928.9534	4235.8	3350.2
1019.8313	2930.0569	4211.85	3326.35
1019.946	2931.1597	4191.6	3306.1
1020.0606	2932.2619	4183.25	3300.3
1020.1753	2933.3634	4183.3	3299.1
1020.2899	2934.4643	4178.45	3287.5
1020.4044	2935.5645	4148.8	3257.95
1020.5189	2936.6641	4117.05	3230.65
1020.6334	2937.763	4051.7	3167.55
1020.7478	2938.8613	4015.5	3131.6
1020.8622	2939.959	3968.1	3079.1
1020.9765	2941.056	3880.2	2997.4
1021.0908	2942.1523	3789.6	2904.55
1021.2051	2943.248	3695.6	2810.2
1021.3193	2944.3431	3597.4	2713.85
1021.4334	2945.4375	3499.65	2615.55
1021.5476	2946.5313	3406.65	2525
1021.6617	2947.6244	3286.8	2404.35
1021.7757	2948.7169	3189.2	2305.15
1021.8897	2949.8087	3102.1	2219.35
1022.0037	2950.8999	3010.7	2127
1022.1176	2951.9904	2927.55	2042.7
1022.2315	2953.0803	2846.65	1962.7
1022.3453	2954.1696	2790.65	1907.95
1022.4591	2955.2582	2727.35	1843.15
1022.5728	2956.3462	2672.5	1788.35
1022.6865	2957.4335	2621.9	1740.05
1022.8002	2958.5202	2596	1712.45
1022.9138	2959.6062	2569.95	1684.8
1023.0274	2960.6916	2550.45	1665.7
1023.141	2961.7764	2535.7	1652.7
1023.2545	2962.8605	2506.25	1623.5
1023.3679	2963.9439	2488.65	1604.15
1023.4813	2965.0267	2477.15	1594.15
1023.5947	2966.1089	2489.45	1582.25
1023.708	2967.1905	2469.1	1584.35
1023.8213	2968.2714	2459.4	1576.2
1023.9346	2969.3516	2450.85	1568.95
1024.0478	2970.4312	2461.95	1570
1024.1609	2971.5102	2447.6	1563.45
1024.274	2972.5885	2443	1559.9
1024.3871	2973.6662	2439.7	1551.8
1024.5002	2974.7432	2437.75	1556.45
1024.6132	2975.8196	2429	1545.2
1024.7261	2976.8954	2407.6	1526.05
1024.839	2977.9705	2408.25	1524.55
1024.9519	2979.045	2400.45	1515.2
1025.0647	2980.1188	2387.55	1503.45
1025.1775	2981.192	2342.2	1458.3
1025.2902	2982.2645	2337.8	1452.95
1025.4029	2983.3364	2315.55	1430.9
1025.5156	2984.4077	2265.8	1383.1
1025.6282	2985.4783	2246.2	1358.25
1025.7407	2986.5483	2214.1	1332.15
1025.8532	2987.6177	2172.7	1291.95
1025.9657	2988.6864	2140.75	1257.1
1026.0782	2989.7545	2107.9	1221.25
1026.1906	2990.8219	2070.95	1188.3
1026.3029	2991.8887	2032.6	1146.35
1026.4152	2992.9548	1998.6	1114.9
1026.5275	2994.0204	1974.85	1091.65
1026.6397	2995.0852	1944.4	1060.15
1026.7519	2996.1495	1917.95	1033.6
1026.864	2997.2131	1891.45	1007.95
1026.9761	2998.276	1870.25	984.7
1027.0882	2999.3383	1844.9	960.8
1027.2002	3000.4	1825.65	941.8
1027.3122	3001.4611	1810.45	927.95
1027.4241	3002.5215	1795.9	912.15
1027.536	3003.5812	1781.7	898.15
1027.6478	3004.6404	1765.9	882.15
1027.7596	3005.6989	1758.1	875.45
1027.8714	3006.7567	1749.9	864.4
1027.9831	3007.8139	1755.5	853.95
1028.0947	3008.8705	1732.1	849.3
1028.2064	3009.9264	1739.9	839.45
1028.3179	3010.9818	1716.05	833.6
1028.4295	3012.0364	1714.55	831.2
1028.541	3013.0905	1703.85	820
1028.6524	3014.1439	1708.95	823.75
1028.7638	3015.1966	1704.55	823.85
1028.8752	3016.2487	1706.2	821.95
1028.9865	3017.3002	1706.35	816.9
1029.0978	3018.3511	1699.4	817.4
1029.209	3019.4013	1699.3	815.85
1029.3202	3020.4509	1695.25	813.45
1029.4314	3021.4998	1695.85	811.55
1029.5425	3022.5481	1694.85	811.95
1029.6535	3023.5958	1695.75	813.75
1029.7645	3024.6428	1693.25	809.45
1029.8755	3025.6892	1696.25	812.7
1029.9864	3026.735	1692.75	809
1030.0973	3027.7802	1698.45	813.75
1030.2082	3028.8247	1693.6	812.65
1030.319	3029.8685	1695.85	812.4
1030.4297	3030.9118	1703.65	821.5
1030.5404	3031.9544	1704.85	823.15
1030.6511	3032.9963	1705.7	824.05
1030.7617	3034.0376	1701.35	819.45
1030.8723	3035.0783	1711.5	826.5
1030.9829	3036.1184	1713.8	829.45
1031.0934	3037.1578	1713.65	832.85
1031.2038	3038.1966	1724.9	840.85
1031.3142	3039.2348	1711.6	831.4
1031.4246	3040.2723	1724.4	834.65
1031.5349	3041.3092	1709.2	827.5
1031.6452	3042.3455	1702.2	820.25
1031.7554	3043.3811	1699.7	815.4
1031.8656	3044.4161	1694.3	811.7
1031.9758	3045.4505	1690.7	806.15
1032.0859	3046.4842	1682.3	800.4
1032.1959	3047.5173	1665.75	782.3
1032.3059	3048.5498	1674.7	790.3
1032.4159	3049.5816	1657.45	775.25
1032.5258	3050.6128	1647.3	762.2
1032.6357	3051.6434	1645.1	761.05
1032.7455	3052.6734	1632.85	749.95
1032.8553	3053.7027	1637.7	753.3
1032.9651	3054.7314	1622.75	741.65
1033.0748	3055.7594	1614.5	731.95
1033.1845	3056.7868	1608.5	723.6
1033.2941	3057.8136	1597.4	716.3
1033.4037	3058.8398	1597.15	715.75
1033.5132	3059.8653	1586	703.65
1033.6227	3060.8902	1584.4	702.2
1033.7321	3061.9145	1574.5	692.15
1033.8415	3062.9381	1564.9	682.5
1033.9509	3063.9612	1578.85	681.15
1034.0602	3064.9835	1558.2	674.9
1034.1694	3066.0053	1551.35	667.05
1034.2787	3067.0264	1535.95	655.15
1034.3878	3068.0469	1521.45	637
1034.497	3069.0668	1519.2	633.55
1034.6061	3070.086	1504.85	626.45
1034.7151	3071.1046	1502.5	621.4
1034.8241	3072.1226	1496.8	612.15
1034.9331	3073.1399	1481.9	600.4
1035.042	3074.1567	1472.45	589.9
1035.1508	3075.1727	1457.3	572.6
1035.2597	3076.1882	1453.65	571
1035.3684	3077.203	1441.4	557.45
1035.4772	3078.2173	1428.3	545.05
1035.5859	3079.2308	1427.75	541.35
1035.6945	3080.2438	1423.05	538.55
1035.8031	3081.2561	1403.85	522.3
1035.9117	3082.2678	1394.9	513.75
1036.0202	3083.2789	1392.65	510.35
1036.1286	3084.2893	1375.45	495.8
1036.2371	3085.2991	1374.5	491.35
1036.3454	3086.3083	1371.55	483.8
1036.4538	3087.3169	1369.55	484.15
1036.562	3088.3248	1350.25	466.9
1036.6703	3089.3321	1354.85	471.5
1036.7785	3090.3388	1341.6	461.55
1036.8866	3091.3449	1340.65	459.5
1036.9948	3092.3503	1339.65	454.5
1037.1028	3093.3551	1329.8	448.2
1037.2108	3094.3593	1324.45	447.05
1037.3188	3095.3629	1326.7	445.5
1037.4267	3096.3658	1317.95	433.35
1037.5346	3097.3681	1310.15	430.4
1037.6425	3098.3698	1312.05	427.1
1037.7503	3099.3708	1308.45	421.15
1037.858	3100.3713	1294.8	412.75
1037.9657	3101.3711	1302.95	421.35
1038.0734	3102.3702	1424.45	410.45
1038.181	3103.3688	1294.85	411.75
1038.2886	3104.3667	1288.4	407.7
1038.3961	3105.364	1286.75	407.5
1038.5036	3106.3607	1276.45	392.9
1038.611	3107.3568	1280.65	399.85
1038.7184	3108.3522	1271.3	389.95
1038.8257	3109.347	1271.35	389.35
1038.933	3110.3412	1271.25	384.6
1039.0403	3111.3348	1264.85	383.2
1039.1475	3112.3277	1262.75	380.75
1039.2547	3113.32	1256	373.3
1039.3618	3114.3117	1261.55	379.9
1039.4689	3115.3028	1258.7	377.15
1039.5759	3116.2932	1259.65	376.25
1039.6829	3117.2831	1259.5	371.65
1039.7898	3118.2723	1247.7	365.85
1039.8967	3119.2608	1250.55	369.25
1040.0035	3120.2488	1249.85	367.25
1040.1103	3121.2361	1247.1	363.45
1040.2171	3122.2229	1242.1	360.95
1040.3238	3123.209	1242.6	358.85
1040.4305	3124.1944	1237.85	355.4
1040.5371	3125.1793	1233.05	351.3
1040.6437	3126.1635	1227.6	348
1040.7502	3127.1471	1228.55	349.4
1040.8567	3128.1301	1227.15	345.65
1040.9631	3129.1125	1226.95	345.75
1041.0695	3130.0942	1230.6	348.75
1041.1759	3131.0753	1229.4	340.15
1041.2822	3132.0558	1229.5	344.9
1041.3884	3133.0357	1222.1	340.55
1041.4946	3134.015	1214.7	333.35
1041.6008	3134.9936	1211.8	329
1041.7069	3135.9716	1226.85	325.75
1041.813	3136.949	1208.6	330.25
1041.919	3137.9258	1228.7	330.5
1042.025	3138.902	1212.9	325.6
1042.1309	3139.8775	1206.75	326.55
1042.2368	3140.8524	1196.9	314.95
1042.3427	3141.8267	1203.05	317.4
1042.4485	3142.8004	1197.7	315.95
1042.5542	3143.7735	1200.65	314.8
1042.6599	3144.7459	1196.05	312.75
1042.7656	3145.7178	1198.15	316.95
1042.8712	3146.689	1189.9	308.75
1042.9768	3147.6596	1191.95	309.65
1043.0823	3148.6295	1185.4	303.45
1043.1878	3149.5989	1183.35	302.2
1043.2932	3150.5676	1181.7	301.15
1043.3986	3151.5357	1185.45	304.85
1043.5039	3152.5032	1183	304.1
1043.6092	3153.4701	1175.2	292.1
1043.7145	3154.4364	1174.45	290.6
1043.8197	3155.402	1174.8	294.6
1043.9248	3156.367	1170.2	289.45
1044.03	3157.3315	1212.6	285.7
1044.135	3158.2952	1169.2	287.15
1044.24	3159.2584	1163.25	283
1044.345	3160.221	1163.4	283.85
1044.4499	3161.1829	1161.55	279.75
1044.5548	3162.1442	1155.65	275.95
1044.6596	3163.105	1157.4	274.15
1044.7644	3164.065	1154.6	275.25
1044.8692	3165.0245	1158.25	273.1
1044.9739	3165.9834	1147.75	269.15
1045.0785	3166.9416	1152.65	271.6
1045.1831	3167.8993	1151.15	270
1045.2877	3168.8563	1156.65	276.6
1045.3922	3169.8127	1141.5	261.05
1045.4966	3170.7684	1146.55	263.7
1045.6011	3171.7236	1146.15	263.05
1045.7054	3172.6782	1140.5	259.45
1045.8098	3173.6321	1144.9	266.2
1045.914	3174.5854	1142.8	256.2
1046.0183	3175.5381	1134.85	254.6
1046.1224	3176.4902	1135.5	254.35
1046.2266	3177.4417	1139.95	258.55
1046.3307	3178.3926	1135.3	254.45
1046.4347	3179.3428	1136.65	256.1
1046.5387	3180.2924	1126.15	245.35
1046.6427	3181.2415	1129.9	249.55
1046.7466	3182.1899	1129.75	248.2
1046.8504	3183.1377	1124.45	243.7
1046.9542	3184.0848	1129.35	245.5
1047.058	3185.0314	1121.95	240.2
1047.1617	3185.9773	1124.25	243
1047.2654	3186.9227	1121.15	239.7
1047.369	3187.8674	1123.75	242.8
1047.4726	3188.8115	1124.3	240.25
1047.5761	3189.755	1117.25	238.9
1047.6796	3190.6979	1114.75	233.9
1047.783	3191.6402	1113.9	234.4
1047.8864	3192.5818	1112.8	234.55
1047.9898	3193.5229	1120.95	232.75
1048.0931	3194.4633	1109.25	228.3
1048.1963	3195.4031	1110.65	228.1
1048.2995	3196.3423	1112.45	233.05
1048.4027	3197.2809	1105.4	225.25
1048.5058	3198.2189	1107.65	227.1
1048.6089	3199.1563	1111.8	226.5
1048.7119	3200.0931	1100.2	220.4
1048.8148	3201.0292	1103.2	224.2
1048.9178	3201.9648	1100.65	219.5
1049.0206	3202.8997	1105.9	224.55
1049.1235	3203.834	1097.45	216.45
1049.2262	3204.7677	1097.85	216.1
1049.329	3205.7008	1100	216.95
1049.4317	3206.6333	1090.1	212.4
1049.5343	3207.5652	1094.85	213.5
1049.6369	3208.4964	1094.1	214.75
1049.7394	3209.4271	1090.75	209.55
1049.8419	3210.3571	1090.6	210.8
1049.9444	3211.2865	1091.3	210.3
1050.0468	3212.2154	1091.05	210.05
1050.1491	3213.1436	1092.8	208.3
1050.2514	3214.0712	1097.2	209.25
1050.3537	3214.9982	1086.45	207.1
1050.4559	3215.9246	1080.75	200.55
1050.5581	3216.8503	1082.85	203.55
1050.6602	3217.7755	1084.65	204.3
1050.7623	3218.7001	1081.65	201.75
1050.8643	3219.624	1082.9	202.1
1050.9663	3220.5473	1082.1	201.25
1051.0682	3221.4701	1081.65	198.3
1051.1701	3222.3922	1083.1	200.65
1051.2719	3223.3137	1080.05	198.4
1051.3737	3224.2346	1075.75	195.4
1051.4754	3225.1549	1070.5	191.25
1051.5771	3226.0746	1075.05	195.15
1051.6788	3226.9937	1074	192.35
1051.7804	3227.9121	1071.7	191.4
1051.8819	3228.83	1070.95	190.65
1051.9834	3229.7473	1070	188.3
1052.0849	3230.6639	1068.1	187.8
1052.1863	3231.5799	1062.95	183.8
1052.2876	3232.4954	1065.55	184.45
1052.3889	3233.4102	1062.6	182.75
1052.4902	3234.3244	1063.2	181.6
1052.5914	3235.238	1065.75	184.85
1052.6926	3236.151	1090.65	185.1
1052.7937	3237.0634	1063.3	184.55
1052.8948	3237.9752	1062.65	182.75
1052.9958	3238.8864	1060.35	178.75
1053.0968	3239.797	1056.2	174.35
1053.1977	3240.7069	1054.85	175.15
1053.2986	3241.6163	1054.55	171.65
1053.3994	3242.5251	1054.25	174.75
1053.5002	3243.4332	1052.6	172.8
1053.6009	3244.3408	1055.95	174.1
1053.7016	3245.2477	1053.3	175.3
1053.8022	3246.154	1049.65	168.45
1053.9028	3247.0598	1049	167.85
1054.0034	3247.9649	1047.6	168.9
1054.1039	3248.8694	1047.85	165.4
1054.2043	3249.7733	1047.95	168.55
1054.3047	3250.6766	1045.6	165.45
1054.4051	3251.5793	1045	166.4
1054.5054	3252.4814	1043.65	165.25
1054.6056	3253.3829	1042.75	162.2
1054.7058	3254.2838	1042.95	163.3
1054.806	3255.1841	1039.05	160.6
1054.9061	3256.0838	1033.35	152.9
1055.0061	3256.9829	1036.2	158.55
1055.1062	3257.8814	1037.5	156.8
1055.2061	3258.7792	1037.7	155.15
1055.306	3259.6765	1033.65	152
1055.4059	3260.5731	1030.85	149.65
1055.5057	3261.4692	1030.3	149.6
1055.6055	3262.3647	1022.95	142.1
1055.7052	3263.2595	1023.5	144.25
1055.8049	3264.1538	1026.1	147.1
1055.9045	3265.0474	1021.45	140.7
1056.0041	3265.9404	1015.95	138.15
1056.1036	3266.8329	1012.15	133.45
1056.2031	3267.7247	1024.7	134.35
1056.3025	3268.616	1010.4	132.7
1056.4019	3269.5066	1009.05	127.3
1056.5013	3270.3966	1004.65	123.15
1056.6005	3271.286	997.85	117.85
