Software Version:	3.9.2.0
Unit SN:	10000200
Spectrometer SN:	6960
Date:	3/26/2024 1:56:13 PM
Data Line Index:	25
Spectral Points:	2048
Integration time (ms):	125
Averages:	20
Delay (ms):	30000
Sequence Number:	1
Processing:	dark subtract
Laser Power (mW):	305
Laser Current (mA):	821
Laser Diode Temp (C):	25
Laser Case Temp (C):	27.3
System Temp (C):	27.3
Spectrometer Temp (C):	25.2
CCD Temp (C):	-0.013
Secondary Temp (C):	20.006
Heatsink Temp (C):	22.58
CCDPCB Temp (C):	36.729
SecondaryPCB Temp (C):	34.373

Wavelength	RamanShift	Raw Counts	Dark Subtracted
787.061	30.1047	576.85	166.4
787.2016	32.3739	579.7	171.85
787.3422	34.6426	590.8	179.9
787.4828	36.9109	603.95	190.85
787.6235	39.1787	620	203.55
787.7642	41.4461	644.8	223.65
787.9049	43.7131	658.1	232.7
788.0456	45.9796	676.45	248.6
788.1863	48.2456	694.85	263.25
788.3271	50.5112	719.3	284.6
788.4679	52.7764	735.35	298.95
788.6087	55.0411	757.85	315.7
788.7496	57.3054	778.95	332.3
788.8904	59.5692	798.6	348.95
789.0313	61.8326	834.65	381.4
789.1722	64.0955	868.75	412.7
789.3132	66.3579	900.25	438.55
789.4541	68.6199	940.95	476.9
789.5951	70.8815	1009.75	542.5
789.7361	73.1426	1158.45	687.6
789.8771	75.4032	1536.65	1058.75
790.0181	77.6634	2483.45	1997.35
790.1592	79.9231	4789.3	4294.6
790.3003	82.1824	10101.75	9583.55
790.4414	84.4412	20539.65	19984.85
790.5825	86.6995	38555.5	37944.8
790.7237	88.9574	51435.55	50779.55
790.8648	91.2148	58381.8	57694.35
791.006	93.4717	60023.75	59306.8
791.1472	95.7282	60676.75	59949.3
791.2885	97.9842	60944.2	60211.1
791.4297	100.2398	60839.8	60103.3
791.571	102.4949	60753.6	60018
791.7123	104.7495	60677.55	59932.25
791.8536	107.0036	60423.55	59684.1
791.9949	109.2573	60588.35	59848.75
792.1363	111.5105	60241.8	59501.55
792.2777	113.7632	60226.15	59485.7
792.4191	116.0154	60286.25	59527.2
792.5605	118.2672	60425.9	59674.8
792.7019	120.5185	60347	59596.2
792.8434	122.7693	60294.15	59544.8
792.9849	125.0197	59869.9	59117.65
793.1264	127.2696	60560.3	59803.55
793.2679	129.519	60375.95	59609.3
793.4094	131.7679	60628.5	59862
793.551	134.0163	59909.35	59140.15
793.6926	136.2642	60144.75	59373.3
793.8342	138.5117	60534.85	59758.75
793.9758	140.7587	60330.35	59548.55
794.1175	143.0052	60276.2	59492.4
794.2591	145.2512	59859.2	59076.45
794.4008	147.4967	60347	59569.1
794.5425	149.7417	60157.2	59376.6
794.6842	151.9863	60110.95	59327.1
794.826	154.2304	59848.5	59061
794.9677	156.4739	59988.75	59193.1
795.1095	158.717	60292.2	59497.1
795.2513	160.9596	60016.3	59214.6
795.3931	163.2017	59593.65	58789.15
795.535	165.4433	59955.4	59152.8
795.6768	167.6844	59662.25	58857.95
795.8187	169.925	59843.95	59037
795.9606	172.1651	59500.15	58690.7
796.1025	174.4047	59610.35	58803.15
796.2445	176.6439	59466.85	58653.2
796.3864	178.8825	59283.65	58466.55
796.5284	181.1206	59691.5	58868.6
796.6704	183.3582	59574.4	58747.45
796.8124	185.5954	59349.25	58521.8
796.9544	187.832	59348.2	58520.4
797.0965	190.0681	59000.75	58166.25
797.2386	192.3037	59551.95	58716.95
797.3806	194.5388	60000	59161.5
797.5228	196.7734	58741.35	57899.7
797.6649	199.0075	59937.8	59093.4
797.807	201.2411	59516.15	58668.45
797.9492	203.4742	60108.25	59261.25
798.0914	205.7068	59999.2	59148.35
798.2336	207.9389	59947.85	59097.3
798.3758	210.1704	59902.85	59048.5
798.518	212.4015	60279.85	59424.85
798.6603	214.632	59818.2	58968
798.8025	216.862	60321.8	59475.4
798.9448	219.0915	60116.95	59275.95
799.0871	221.3205	60062.25	59225.65
799.2294	223.549	60454.15	59618.4
799.3718	225.777	60437.15	59605.6
799.5141	228.0044	60666.1	59829.75
799.6565	230.2314	60565.5	59731.8
799.7989	232.4578	60622.45	59792.85
799.9413	234.6837	60734.75	59898.85
800.0837	236.909	61302.7	60463
800.2262	239.1339	60427.3	59562.2
800.3687	241.3582	60783.35	59928.55
800.5111	243.582	60780.6	59896.55
800.6536	245.8053	60680.2	59811.15
800.7961	248.0281	60701.25	59837.85
800.9387	250.2503	60806.95	59933.55
801.0812	252.472	60483.9	59605.65
801.2238	254.6932	60705.85	59829.15
801.3664	256.9139	60565.65	59685.75
801.509	259.134	61101.5	60219.45
801.6516	261.3536	60479.95	59596.55
801.7942	263.5727	60874.5	59992.75
801.9369	265.7912	60675.35	59796.2
802.0795	268.0092	60769.7	59887.85
802.2222	270.2267	60807	59926.9
802.3649	272.4436	60502.2	59618.25
802.5076	274.6601	60787.4	59901.85
802.6504	276.8759	60878	59994.65
802.7931	279.0913	60716.95	59828.95
802.9359	281.3061	60764.35	59877.6
803.0787	283.5204	60779.25	59885.3
803.2215	285.7341	60748.95	59850.35
803.3643	287.9473	61025.75	60120.7
803.5071	290.16	60799.35	59899.3
803.6499	292.3721	60980.85	60084.85
803.7928	294.5837	60822.75	59923.55
803.9357	296.7947	60716.45	59812.05
804.0786	299.0052	61109.6	60206.7
804.2215	301.2152	60877.7	59972.5
804.3644	303.4246	61029.35	60133.85
804.5074	305.6334	60953	60061.15
804.6503	307.8418	60585.85	59691.1
804.7933	310.0495	60556.8	59657.75
804.9363	312.2568	60480.85	59577.55
805.0793	314.4635	60426.8	59522.4
805.2223	316.6696	60547.5	59638.55
805.3653	318.8752	60673.95	59756.6
805.5084	321.0802	60069.2	59164.45
805.6514	323.2847	60347.35	59436
805.7945	325.4887	60304.4	59393.3
805.9376	327.692	60166.55	59255.85
806.0807	329.8949	60306.05	59395.45
806.2238	332.0972	60151.7	59238.75
806.367	334.2989	60201.1	59285.6
806.5101	336.5001	60354.05	59440.4
806.6533	338.7007	59822.8	58908.25
806.7965	340.9008	60079.9	59168.7
806.9397	343.1003	60088.7	59172.35
807.0829	345.2992	60221.85	59306
807.2261	347.4976	59959.65	59037.95
807.3693	349.6955	60046.55	59119.65
807.5126	351.8927	59843.95	58914.75
807.6559	354.0895	60108.9	59176.3
807.7991	356.2856	60077.95	59153.3
807.9424	358.4812	60262.85	59336.8
808.0857	360.6763	59849.75	58918
808.2291	362.8707	60161	59235
808.3724	365.0646	59965.3	59040.8
808.5158	367.258	60000	59079.4
808.6591	369.4508	59766.3	58835.8
808.8025	371.643	60150.6	59216.95
808.9459	373.8346	59942.05	59004.5
809.0893	376.0257	59954.8	59019.4
809.2327	378.2162	59865.5	58926.45
809.3762	380.4062	59502.3	58568.05
809.5196	382.5956	59824.35	58885.1
809.6631	384.7844	59743.05	58810.25
809.8066	386.9726	59844.25	58907.55
809.9501	389.1603	59816.2	58880.1
810.0936	391.3474	59505.1	58527.1
810.2371	393.5339	59768.85	58833.85
810.3806	395.7199	59337.75	58403.3
810.5241	397.9052	59390.5	58462
810.6677	400.09	59501.6	58574
810.8113	402.2743	59757.35	58832.25
810.9548	404.4579	59447.95	58525
811.0984	406.641	59434.6	58506.1
811.2421	408.8235	59639.65	58711.05
811.3857	411.0054	59713.95	58787.95
811.5293	413.1868	59814.75	58887.95
811.673	415.3675	59767.3	58833
811.8166	417.5477	59812.25	58876.6
811.9603	419.7273	59781.65	58849.45
812.104	421.9064	59695.45	58754.5
812.2477	424.0848	59747.9	58813.25
812.3914	426.2627	59887.1	58944.9
812.5351	428.4399	59462.5	58523.15
812.6788	430.6166	59064.2	58115.55
812.8226	432.7928	59421.15	58475.45
812.9663	434.9683	59025.5	58086.4
813.1101	437.1432	58932.2	57990.65
813.2539	439.3176	59176.5	58241.95
813.3977	441.4914	58623.9	57689.3
813.5415	443.6645	58670.35	57732.55
813.6853	445.8371	58735.6	57793.05
813.8291	448.0091	58454	57509.35
813.973	450.1806	58297.9	57360.1
814.1168	452.3514	58363.85	57430.85
814.2607	454.5216	58055	57113.95
814.4046	456.6913	58356.35	57418.95
814.5485	458.8603	58456.1	57522.45
814.6924	461.0288	58015.35	57086.55
814.8363	463.1967	58367.5	57438.4
814.9802	465.3639	58366.55	57430.2
815.1241	467.5306	57634.9	56695.35
815.2681	469.6967	58127.85	57197.65
815.412	471.8622	58394.75	57466.35
815.556	474.0271	58112.7	57182.65
815.7	476.1914	58199.05	57256.3
815.844	478.3551	58206.2	57269.1
815.988	480.5182	58624.2	57686.75
816.132	482.6807	58033.45	57109.35
816.276	484.8426	58134.35	57216.55
816.4201	487.0039	58679.3	57756.75
816.5641	489.1647	58751.65	57812.95
816.7082	491.3248	58247	57307.6
816.8522	493.4843	58887.6	57957.3
816.9963	495.6432	58870.85	57940.8
817.1404	497.8015	58244.6	57302.7
817.2845	499.9592	58613.35	57663.9
817.4286	502.1163	58538.65	57583.45
817.5727	504.2728	58394.35	57454.9
817.7168	506.4287	58303.15	57377.1
817.861	508.5839	57909.65	56979.85
818.0051	510.7386	58074.85	57138.3
818.1493	512.8927	58120.5	57180.95
818.2935	515.0461	57991	57048.5
818.4377	517.199	58243.55	57294.7
818.5818	519.3512	57902.95	56959.5
818.726	521.5029	57930.7	56983
818.8703	523.6539	57994.75	57052.05
819.0145	525.8043	57578.5	56636.6
819.1587	527.9541	57973.25	57026
819.303	530.1033	57897.15	56951.65
819.4472	532.2519	57692.6	56741.4
819.5915	534.3999	58028.25	57083.95
819.7357	536.5472	58273.35	57328.55
819.88	538.694	57776.2	56837.4
820.0243	540.8401	58223.75	57278.25
820.1686	542.9856	58332.95	57375.95
820.3129	545.1305	58554.1	57587.4
820.4572	547.2748	58113.5	57146.3
820.6016	549.4185	58022.3	57056.1
820.7459	551.5615	58299.7	57331.55
820.8902	553.704	58122.95	57156.5
821.0346	555.8458	57854.05	56894.95
821.1789	557.987	57951.95	56991.7
821.3233	560.1276	58080.9	57121.6
821.4677	562.2675	57961.85	57000.05
821.6121	564.4069	58096.7	57133.8
821.7565	566.5456	58301.7	57341.95
821.9009	568.6837	57811.5	56857.2
822.0453	570.8212	57923.8	56970.55
822.1897	572.958	57191.15	56237.55
822.3342	575.0942	57611.4	56660.7
822.4786	577.2299	57190.15	56246.2
822.6231	579.3648	57072.2	56141.4
822.7675	581.4992	56982.7	56064.55
822.912	583.6329	56983.95	56069.1
823.0565	585.766	57021.8	56096.35
823.201	587.8985	57173.4	56236.5
823.3454	590.0304	56531.9	55570.6
823.4899	592.1616	57045.3	56090
823.6345	594.2922	56700.2	55739.55
823.779	596.4222	56273.2	55311.5
823.9235	598.5515	56306.6	55341
824.068	600.6802	56538.75	55575.75
824.2126	602.8083	55914.75	54957.75
824.3571	604.9358	55914.1	54954.95
824.5017	607.0626	56276.25	55312.35
824.6462	609.1888	55663.9	54696.45
824.7908	611.3144	56049	55078.3
824.9354	613.4393	55739.95	54771.4
825.08	615.5636	55461.55	54494
825.2246	617.6873	55788.75	54818.9
825.3692	619.8103	55362.85	54395.9
825.5138	621.9327	55689.1	54728.5
825.6584	624.0544	55667.1	54710.8
825.803	626.1756	55427.15	54468.2
825.9477	628.2961	55410.9	54445.85
826.0923	630.4159	55101.55	54142.4
826.237	632.5351	55026.25	54064.4
826.3816	634.6537	55650.15	54684.05
826.5263	636.7716	54962.1	53988.25
826.6709	638.8889	55153.4	54179.65
826.8156	641.0056	55060.95	54087.3
826.9603	643.1216	55162.45	54187.05
827.105	645.237	55330.55	54363.65
827.2497	647.3518	54910.9	53950.8
827.3944	649.4659	54999.6	54045.9
827.5391	651.5793	55014.65	54056.9
827.6838	653.6922	55061.95	54098.9
827.8285	655.8043	54611.55	53650.7
827.9733	657.9159	55251.1	54290.05
828.118	660.0268	54106.05	53147.6
828.2627	662.137	54620.6	53652.2
828.4075	664.2466	54726.75	53756.25
828.5522	666.3556	54497.5	53528.95
828.697	668.4639	54605.45	53639.65
828.8418	670.5716	54422.8	53463.3
828.9865	672.6786	54588.95	53626.75
829.1313	674.785	54201.6	53230.05
829.2761	676.8907	54274.1	53309.9
829.4209	678.9958	54400.7	53440.1
829.5657	681.1002	54453.1	53485.25
829.7105	683.204	54080.95	53100.75
829.8553	685.3072	53910.7	52936.3
830.0001	687.4097	53954.95	52987.6
830.1449	689.5115	53918.9	52948.25
830.2898	691.6127	54076.05	53103.4
830.4346	693.7132	53744.35	52782.7
830.5794	695.8131	53849.55	52862.15
830.7243	697.9123	53884.2	52907.8
830.8691	700.0109	53917	52937.15
831.014	702.1089	53449.15	52476.1
831.1588	704.2061	53583.95	52611.85
831.3037	706.3028	53640.75	52663.65
831.4486	708.3987	53660.6	52682.75
831.5935	710.4941	53466.85	52494.4
831.7383	712.5887	53680.05	52707.95
831.8832	714.6827	53692.15	52721.5
832.0281	716.7761	53873.15	52908.2
832.173	718.8688	53949.9	52979.3
832.3179	720.9608	53781.1	52805.7
832.4628	723.0522	53872.2	52889.05
832.6077	725.1429	53551.05	52575.45
832.7527	727.233	54045.15	53073.1
832.8976	729.3224	53161.8	52188.5
833.0425	731.4112	53312.2	52338.05
833.1874	733.4993	53237.4	52262.8
833.3324	735.5867	53061.1	52089.9
833.4773	737.6735	52903	51926.65
833.6222	739.7596	52663.6	51688.2
833.7672	741.845	52593.15	51620.85
833.9122	743.9298	52741.15	51766.2
834.0571	746.014	52541.35	51568.85
834.2021	748.0974	52349.15	51366.85
834.347	750.1802	52547.25	51565.35
834.492	752.2624	52017.1	51040.2
834.637	754.3439	52090.6	51110.9
834.782	756.4247	52177.55	51191.5
834.9269	758.5048	52033.5	51056.5
835.0719	760.5843	52107.25	51127.25
835.2169	762.6631	52199.9	51221.15
835.3619	764.7413	52253.1	51274.05
835.5069	766.8188	52510.55	51532.7
835.6519	768.8956	52664.75	51685.95
835.7969	770.9718	52719.15	51740.75
835.9419	773.0473	52575.7	51594.8
836.0869	775.1221	52249.3	51273.4
836.232	777.1962	52040.3	51062.2
836.377	779.2697	51723.25	50744.6
836.522	781.3426	51842.6	50851
836.667	783.4147	51908.5	50929.85
836.8121	785.4862	51909.2	50929.1
836.9571	787.557	51723.8	50738.5
837.1021	789.6271	51691.25	50709.9
837.2472	791.6966	51322.6	50340.5
837.3922	793.7654	50825.55	49849.1
837.5373	795.8335	50674.35	49697.15
837.6823	797.901	50617	49639.3
837.8274	799.9678	50460.45	49475
837.9724	802.0339	50311.65	49325.55
838.1175	804.0993	50299.4	49306.9
838.2626	806.1641	50133.35	49151.45
838.4076	808.2282	49971.3	48992.8
838.5527	810.2916	49922.2	48938.1
838.6978	812.3544	50003.35	49024.95
838.8428	814.4164	49640.9	48662.75
838.9879	816.4778	49727.95	48743.05
839.133	818.5385	49627.85	48643.4
839.2781	820.5986	49587.1	48606.6
839.4232	822.658	49720.75	48738
839.5682	824.7166	49748.6	48767.15
839.7133	826.7747	49658.95	48674.75
839.8584	828.832	49852.55	48865.05
840.0035	830.8886	49913.4	48929.35
840.1486	832.9446	49939.45	48950.85
840.2937	834.9999	49468.2	48482.25
840.4388	837.0545	49574.55	48589.75
840.5839	839.1085	49557.9	48572.95
840.729	841.1618	49389.85	48406.35
840.8741	843.2143	49100.8	48118.65
841.0192	845.2662	48925.8	47940.35
841.1643	847.3175	48937.85	47953.15
841.3095	849.368	48606.15	47622.45
841.4546	851.4179	48634.05	47651.2
841.5997	853.467	48400.8	47419.25
841.7448	855.5155	48386.25	47403.7
841.8899	857.5633	48171.45	47184.4
842.0351	859.6105	47999.4	47014.25
842.1802	861.6569	48009.35	47025.2
842.3253	863.7027	47763.9	46772.75
842.4704	865.7478	47791.25	46806
842.6156	867.7922	47673.85	46687.75
842.7607	869.8359	47701.95	46715.85
842.9058	871.8789	47561.1	46575.95
843.0509	873.9212	47666.7	46648.45
843.1961	875.9629	47642.45	46658.8
843.3412	878.0039	47690.7	46704.25
843.4863	880.0441	47630.8	46645.75
843.6315	882.0837	47615.65	46633.4
843.7766	884.1226	47507	46519.1
843.9218	886.1609	47408.6	46426.8
844.0669	888.1984	47291.9	46310.1
844.212	890.2352	47454.95	46472.35
844.3572	892.2714	47158.5	46170.15
844.5023	894.3069	47180.2	46199.75
844.6475	896.3416	46953.8	45968.1
844.7926	898.3757	46914.05	45927.95
844.9377	900.4091	46670.7	45685.55
845.0829	902.4418	46729.55	45738.6
845.228	904.4739	46567.8	45579.7
845.3732	906.5052	46602.6	45613.05
845.5183	908.5358	46384.65	45398.55
845.6635	910.5658	46185.75	45192.4
845.8086	912.595	46024.1	45034.1
845.9538	914.6236	45691.8	44704.65
846.0989	916.6515	45954.85	44966.7
846.2441	918.6786	45451.9	44462.6
846.3892	920.7051	45584	44595
846.5344	922.7309	45536.1	44547.5
846.6795	924.756	45495.35	44508.4
846.8246	926.7804	45408.4	44420.7
846.9698	928.8041	44952.3	43965.7
847.1149	930.8272	45118.15	44133.9
847.2601	932.8495	45003.15	44015.55
847.4052	934.8711	44744.45	43760.15
847.5504	936.892	44488.45	43500.3
847.6955	938.9123	44440.2	43452.6
847.8407	940.9318	44228.4	43242.9
847.9858	942.9506	44111.85	43127.15
848.131	944.9688	44002.3	43016.25
848.2761	946.9862	43674.65	42690.05
848.4213	949.003	43547.25	42563.1
848.5664	951.019	43184.25	42201.2
848.7115	953.0344	43211.05	42223.95
848.8567	955.0491	43121.45	42135
849.0018	957.063	43217.7	42232.05
849.147	959.0763	43308.9	42315.35
849.2921	961.0888	43077.9	42088.2
849.4373	963.1007	43163.95	42180.35
849.5824	965.1119	43116.4	42143.8
849.7275	967.1223	42954.8	41988.05
849.8727	969.1321	43014	42048.05
850.0178	971.1412	42849.9	41873.35
850.1629	973.1495	42645.3	41663.75
850.3081	975.1572	42679.05	41656.75
850.4532	977.1641	42608.65	41622.5
850.5983	979.1704	42466.95	41479.05
850.7435	981.1759	42385.15	41396.4
850.8886	983.1808	42285	41296.45
851.0337	985.1849	42271.75	41280.6
851.1788	987.1884	42276	41288.65
851.324	989.1911	42298.35	41315.95
851.4691	991.1932	42105.5	41119.4
851.6142	993.1945	42034	41053.05
851.7593	995.1951	41881.65	40894.5
851.9045	997.1951	41751	40757.7
852.0496	999.1943	41554.55	40568.55
852.1947	1001.1928	41379.9	40393.25
852.3398	1003.1906	41367.7	40382.75
852.4849	1005.1877	41210.15	40228.7
852.63	1007.1841	41004.5	40024.6
852.7751	1009.1798	40889.55	39911.2
852.9202	1011.1748	40715.8	39732.7
853.0653	1013.1691	40443.1	39460.15
853.2104	1015.1627	40038.45	39058.9
853.3555	1017.1556	39810.85	38838.05
853.5006	1019.1477	39721	38740.2
853.6457	1021.1392	39396.3	38427.55
853.7908	1023.1299	39194.3	38227.95
853.9359	1025.12	39095.95	38134.8
854.081	1027.1093	38881	37931.5
854.2261	1029.0979	38906.55	37960.9
854.3712	1031.0859	38780.1	37825.95
854.5163	1033.0731	38600.9	37638.95
854.6613	1035.0596	38546.7	37572.7
854.8064	1037.0454	38284	37308.3
854.9515	1039.0304	38119.45	37139.4
855.0965	1041.0148	37825.4	36847
855.2416	1042.9985	37686.75	36710.2
855.3867	1044.9814	37655.25	36679.85
855.5317	1046.9636	37458.9	36478.95
855.6768	1048.9452	37300.85	36329.65
855.8219	1050.926	37274.65	36299.15
855.9669	1052.9061	37197.75	36222.5
856.112	1054.8855	37060.1	36082.3
856.257	1056.8642	37031.5	36052.45
856.4021	1058.8421	36979.15	35996.7
856.5471	1060.8194	36927.5	35951.2
856.6921	1062.7959	36791.8	35812.55
856.8372	1064.7717	36801.55	35820.4
856.9822	1066.7469	36725.7	35747.85
857.1272	1068.7213	36642.35	35662.55
857.2723	1070.695	36533.9	35554.65
857.4173	1072.6679	36384.2	35403.75
857.5623	1074.6402	36341.1	35362.7
857.7073	1076.6117	36313.15	35329
857.8523	1078.5826	36196.8	35216.25
857.9973	1080.5527	36058.55	35076.95
858.1423	1082.5221	35924.9	34947.45
858.2873	1084.4908	35926.05	34950.5
858.4323	1086.4587	35932.3	34952.65
858.5773	1088.426	35980	35001.5
858.7223	1090.3925	35816.25	34836.4
858.8673	1092.3584	35734.25	34755.65
859.0123	1094.3235	35483.7	34507.5
859.1573	1096.2879	35403.85	34426.7
859.3022	1098.2515	35365.5	34389.8
859.4472	1100.2145	35365.6	34389.4
859.5922	1102.1767	35341.35	34363.65
859.7371	1104.1382	35384.85	34409.55
859.8821	1106.099	35452.2	34474.15
860.027	1108.0591	35467.4	34489.1
860.172	1110.0185	35490.85	34512.95
860.3169	1111.9771	35528.7	34552.15
860.4619	1113.9351	35250.6	34279.8
860.6068	1115.8923	34956.9	33982.55
860.7517	1117.8488	34688.85	33714.2
860.8967	1119.8045	34341.65	33364.95
861.0416	1121.7596	34236.1	33259.6
861.1865	1123.7139	34110.85	33136.75
861.3314	1125.6675	33997	33022.6
861.4763	1127.6204	34119.65	33148.8
861.6212	1129.5726	33947.1	32969.9
861.7661	1131.524	33865	32892.65
861.911	1133.4748	33798.8	32826.05
862.0559	1135.4248	33550.85	32573
862.2008	1137.3741	33493.95	32518.2
862.3457	1139.3226	33347.75	32370.85
862.4905	1141.2705	33306.05	32332.15
862.6354	1143.2176	33048.15	32070.5
862.7803	1145.164	33038.65	32062.9
862.9251	1147.1097	32847.05	31873.6
863.07	1149.0546	32841.95	31868.6
863.2148	1150.9989	32743.2	31768.2
863.3597	1152.9424	32628.35	31654.75
863.5045	1154.8852	32446.15	31473.65
863.6493	1156.8272	32364.9	31385.8
863.7942	1158.7686	32327.7	31345.6
863.939	1160.7092	32182.15	31210.15
864.0838	1162.6491	32071.35	31092.05
864.2286	1164.5883	32128.2	31152.6
864.3734	1166.5267	32041.85	31063.75
864.5182	1168.4644	32097.25	31124.35
864.663	1170.4014	32141.75	31168.3
864.8078	1172.3377	32304.15	31335.05
864.9526	1174.2732	32403.5	31431.7
865.0974	1176.2081	32599	31625.8
865.2421	1178.1421	32705.9	31729.55
865.3869	1180.0755	32842.45	31871.55
865.5317	1182.0082	32870.2	31902.65
865.6764	1183.9401	32885.9	31916.7
865.8212	1185.8713	32704.5	31744.95
865.9659	1187.8017	32478.75	31526.5
866.1106	1189.7315	32250.3	31301.7
866.2554	1191.6605	31831.25	30886.8
866.4001	1193.5888	31593.1	30641.5
866.5448	1195.5163	31480.55	30517.5
866.6895	1197.4432	31340.85	30374.45
866.8342	1199.3693	31209.95	30242.5
866.9789	1201.2947	31060.65	30094
867.1236	1203.2193	30937.9	29971.7
867.2683	1205.1432	30937.4	29967.5
867.413	1207.0664	30787.8	29821.75
867.5576	1208.9889	30750.85	29778.45
867.7023	1210.9106	30635.85	29665.95
867.847	1212.8316	30528.35	29561.3
867.9916	1214.7519	30528.7	29550.5
868.1363	1216.6715	30427.05	29458.7
868.2809	1218.5903	30427.3	29461.05
868.4255	1220.5084	30339.6	29372.45
868.5701	1222.4257	30329.15	29362.8
868.7148	1224.3424	30165.95	29200.85
868.8594	1226.2583	30156.75	29187.2
869.004	1228.1735	30115.3	29147.6
869.1486	1230.0879	30071.2	29102.6
869.2932	1232.0016	30068.2	29100.15
869.4377	1233.9146	30066.2	29100.35
869.5823	1235.8269	29924.9	28955.2
869.7269	1237.7384	29850.2	28887.3
869.8715	1239.6492	29608.25	28639.05
870.016	1241.5592	29553.45	28589.8
870.1606	1243.4686	29400.85	28432.55
870.3051	1245.3772	29377.9	28408.75
870.4496	1247.285	29288.95	28319.4
870.5941	1249.1922	29231.7	28265.2
870.7387	1251.0986	29234.05	28268.3
870.8832	1253.0042	29107.05	28145.2
871.0277	1254.9092	29131.6	28165.6
871.1722	1256.8134	29060.45	28099.95
871.3167	1258.7169	29202.65	28239.35
871.4611	1260.6196	29188.3	28226.4
871.6056	1262.5216	29345.35	28377.8
871.7501	1264.4229	29362.05	28399.5
871.8945	1266.3234	29386.25	28421.3
872.039	1268.2232	29417.1	28454.6
872.1834	1270.1223	29387.05	28422.55
872.3278	1272.0207	29370.45	28403.2
872.4723	1273.9183	29267.7	28298.9
872.6167	1275.8151	29137.45	28175.3
872.7611	1277.7113	29039.9	28074.2
872.9055	1279.6067	28927.7	27965.3
873.0499	1281.5014	28901.5	27932.2
873.1943	1283.3953	28873.75	27907.15
873.3386	1285.2885	28951.25	27987.55
873.483	1287.181	28997.15	28031.6
873.6274	1289.0727	29198.3	28238.25
873.7717	1290.9637	29193.1	28234.2
873.9161	1292.854	29356.55	28392.5
874.0604	1294.7435	29286.1	28323.2
874.2047	1296.6323	29301.55	28339.5
874.349	1298.5204	29278.25	28312.1
874.4933	1300.4077	29289.45	28324.05
874.6376	1302.2943	29216.25	28254.9
874.7819	1304.1802	29145.85	28185.6
874.9262	1306.0653	28861.6	27899.85
875.0705	1307.9497	28637.35	27676.8
875.2147	1309.8333	28491.75	27530.6
875.359	1311.7162	28324.25	27362.45
875.5032	1313.5984	28269.3	27305.45
875.6475	1315.4798	28186.5	27214.4
875.7917	1317.3605	28162.45	27185.45
875.9359	1319.2405	28147.35	27182.8
876.0801	1321.1197	28027.9	27062.1
876.2243	1322.9982	27832.1	26865.75
876.3685	1324.876	27712.7	26747.55
876.5127	1326.753	27552.55	26586.9
876.6569	1328.6293	27521.9	26555.15
876.801	1330.5048	27460.3	26492.7
876.9452	1332.3796	27330.1	26369.45
877.0893	1334.2537	27247.35	26258.75
877.2335	1336.127	27157.3	26197.4
877.3776	1337.9996	27058.1	26099.25
877.5217	1339.8714	27030.25	26067.5
877.6658	1341.7426	27008.15	26002.55
877.8099	1343.6129	26883.5	25917
877.954	1345.4826	26875.6	25911.85
878.0981	1347.3515	26866.7	25900.65
878.2422	1349.2196	26781.75	25817.85
878.3862	1351.087	26749.45	25787.5
878.5303	1352.9537	26743.15	25777.2
878.6743	1354.8197	26778.75	25817.5
878.8184	1356.6849	26886.2	25923.7
878.9624	1358.5493	26898.4	25934.45
879.1064	1360.4131	26855.95	25895
879.2504	1362.276	26840.1	25880.85
879.3944	1364.1383	26694.75	25732.65
879.5384	1365.9998	26566.15	25599.65
879.6823	1367.8606	26279.15	25314.55
879.8263	1369.7206	25989.05	25028.8
879.9702	1371.5799	25735.8	24772.05
880.1142	1373.4384	25532.4	24569.3
880.2581	1375.2962	25396.8	24433.5
880.402	1377.1533	25103.6	24143.8
880.5459	1379.0096	24778.95	23823.55
880.6898	1380.8652	24486.75	23532.9
880.8337	1382.7201	24306.3	23351.05
880.9776	1384.5742	24029.6	23070.4
881.1215	1386.4275	23787.25	22827.55
881.2653	1388.2802	23697.25	22737.6
881.4092	1390.132	23476.5	22514.75
881.553	1391.9832	23452.15	22488.6
881.6968	1393.8336	23283.35	22324.55
881.8406	1395.6832	23159.75	22195.6
881.9844	1397.5322	23094.2	22138.5
882.1282	1399.3803	23076.1	22112.85
882.272	1401.2278	22865.7	21907.9
882.4158	1403.0745	22845.1	21889.2
882.5595	1404.9204	22755.85	21798.4
882.7033	1406.7656	22729.55	21768.1
882.847	1408.6101	22662.35	21703.5
882.9908	1410.4538	22556.8	21597
883.1345	1412.2968	22571.75	21613.7
883.2782	1414.139	22503.55	21549.9
883.4219	1415.9805	22535.2	21575.2
883.5656	1417.8213	22497.95	21520.55
883.7092	1419.6613	22505.7	21547.45
883.8529	1421.5006	22587.35	21633
883.9965	1423.3391	22683.35	21728.85
884.1402	1425.1769	22791.5	21832.85
884.2838	1427.0139	23077.55	22116.35
884.4274	1428.8502	23420.35	22461.8
884.571	1430.6858	23715.75	22760.1
884.7146	1432.5206	23907.75	22950.4
884.8582	1434.3547	24021.45	23061.6
885.0018	1436.188	24023.15	23066.35
885.1453	1438.0206	23983.4	23026.7
885.2889	1439.8524	23765.15	22808.9
885.4324	1441.6835	23703.85	22749.2
885.5759	1443.5139	23599.35	22641.6
885.7194	1445.3435	23459.9	22507.75
885.8629	1447.1724	23407.9	22452.4
886.0064	1449.0005	23317.65	22363.45
886.1499	1450.8279	23246.55	22292
886.2933	1452.6545	23213.1	22259.3
886.4368	1454.4804	23190.8	22235.9
886.5802	1456.3056	23163.75	22208.85
886.7237	1458.13	23089.4	22139.65
886.8671	1459.9536	22923.65	21969.8
887.0105	1461.7766	22676.65	21720.65
887.1539	1463.5987	22390.1	21432.35
887.2972	1465.4202	22108	21151.75
887.4406	1467.2409	21816.45	20862.9
887.584	1469.0608	21632.1	20680.05
887.7273	1470.88	21421.85	20469.6
887.8706	1472.6984	21189.65	20238.65
888.0139	1474.5161	20995.35	20041.25
888.1572	1476.3331	20867.9	19915.85
888.3005	1478.1493	20754.1	19799.05
888.4438	1479.9648	20706.85	19750.5
888.5871	1481.7795	20563.1	19610.3
888.7303	1483.5935	20484.2	19532.2
888.8736	1485.4067	20399.6	19445.05
889.0168	1487.2192	20354.9	19399.6
889.16	1489.031	20312.7	19356.75
889.3032	1490.842	20227.2	19275.5
889.4464	1492.6522	20184.3	19229.85
889.5896	1494.4618	20119.1	19167.35
889.7327	1496.2705	20050.1	19100.7
889.8759	1498.0785	19991.8	19039.5
890.019	1499.8858	19950.3	18994.9
890.1622	1501.6924	19899.45	18946.3
890.3053	1503.4981	19878.55	18923.7
890.4484	1505.3032	19794.2	18842.5
890.5914	1507.1075	19769.85	18818.95
890.7345	1508.911	19681.45	18728.4
890.8776	1510.7138	19623.75	18671.8
891.0206	1512.5159	19537	18587.9
891.1637	1514.3172	19512.4	18563.35
891.3067	1516.1178	19405.1	18455.6
891.4497	1517.9176	19378.4	18425.95
891.5927	1519.7166	19274.5	18326.55
891.7357	1521.515	19205.6	18250.15
891.8786	1523.3126	19185.3	18235.85
892.0216	1525.1094	19080.95	18131.2
892.1645	1526.9055	19027.9	18078.75
892.3074	1528.7008	18982.6	18035.35
892.4503	1530.4954	18839.05	17884.65
892.5932	1532.2893	18846.1	17902.65
892.7361	1534.0824	18736.9	17788.45
892.879	1535.8747	18726.65	17786.9
893.0218	1537.6663	18614.45	17670.5
893.1647	1539.4572	18573.2	17627.35
893.3075	1541.2473	18535.5	17595.05
893.4503	1543.0367	18486.45	17541.5
893.5931	1544.8253	18429.85	17482.75
893.7359	1546.6132	18414.6	17466.45
893.8787	1548.4003	18369.1	17415.3
894.0214	1550.1867	18337.1	17386.05
894.1642	1551.9723	18326.1	17380.05
894.3069	1553.7572	18328.9	17384.8
894.4496	1555.5414	18338.1	17396.3
894.5923	1557.3247	18314.6	17377.25
894.735	1559.1074	18315.1	17379.65
894.8777	1560.8893	18386.55	17456.1
895.0204	1562.6705	18359.4	17425.2
895.163	1564.4509	18449.3	17514.3
895.3056	1566.2305	18439.6	17509.5
895.4482	1568.0094	18462.7	17533.8
895.5908	1569.7876	18428.6	17495.2
895.7334	1571.565	18438.6	17501.95
895.876	1573.3417	18373.75	17439.15
896.0186	1575.1176	18356.85	17422.4
896.1611	1576.8928	18290.95	17362.4
896.3036	1578.6672	18229.1	17304.05
896.4461	1580.4409	18108.65	17184.3
896.5886	1582.2138	18042.65	17114.05
896.7311	1583.986	17958.5	17028.2
896.8736	1585.7575	17906.75	16976.7
897.0161	1587.5282	17846.15	16923.3
897.1585	1589.2981	17867.2	16946.95
897.3009	1591.0673	17777.4	16854.5
897.4433	1592.8358	17812.4	16888
897.5857	1594.6035	17835.9	16903.9
897.7281	1596.3704	17772.7	16840.45
897.8705	1598.1366	17753.4	16825.05
898.0128	1599.9021	17748.1	16821.8
898.1551	1601.6668	17754.05	16825.05
898.2975	1603.4308	17777.85	16846.65
898.4398	1605.194	17853.7	16920.95
898.5821	1606.9564	17876.4	16956.6
898.7243	1608.7182	17980.75	17068.35
898.8666	1610.4791	18071.05	17160.75
899.0088	1612.2394	18186.25	17277.25
899.1511	1613.9988	18265.35	17354.4
899.2933	1615.7576	18394.4	17475.35
899.4355	1617.5156	18532.75	17599.4
899.5776	1619.2728	18637.85	17707.85
899.7198	1621.0293	18611.2	17683
899.862	1622.785	18554.9	17633.05
900.0041	1624.54	18410.95	17493.05
900.1462	1626.2942	18274.55	17357.8
900.2883	1628.0477	17977.7	17056.7
900.4304	1629.8005	17796.3	16874.15
900.5725	1631.5525	17588.5	16669.3
900.7145	1633.3037	17386.3	16470.45
900.8566	1635.0542	17295.9	16380.6
900.9986	1636.804	17157.05	16239.05
901.1406	1638.553	17124.45	16153.65
901.2826	1640.3013	16987.6	16067.85
901.4245	1642.0488	16923.05	16001.25
901.5665	1643.7955	16895.7	15982.25
901.7085	1645.5416	16906	15991.85
901.8504	1647.2868	16954.5	16035.1
901.9923	1649.0313	16954.45	16032.75
902.1342	1650.7751	17061.6	16141.15
902.2761	1652.5181	17122.95	16206.3
902.4179	1654.2604	17224.2	16308.55
902.5598	1656.0019	17323.75	16408.7
902.7016	1657.7427	17493.65	16575.4
902.8434	1659.4828	17678.65	16755.95
902.9852	1661.222	17756.1	16834.85
903.127	1662.9606	17714.15	16792.9
903.2687	1664.6984	17576.9	16650.45
903.4105	1666.4354	17287.25	16363.25
903.5522	1668.1717	16901.25	15972.9
903.6939	1669.9072	16452.55	15526.55
903.8356	1671.642	16201.6	15272.55
903.9773	1673.3761	15907.25	14985.35
904.119	1675.1094	15669.15	14746.55
904.2606	1676.8419	15434.65	14515.05
904.4022	1678.5737	15252.35	14330.95
904.5439	1680.3048	15134.85	14212.2
904.6855	1682.0351	15032.25	14109.15
904.827	1683.7646	14923.5	13996.25
904.9686	1685.4934	14862.2	13942.3
905.1101	1687.2215	14735.55	13819.65
905.2517	1688.9488	14659.35	13739.7
905.3932	1690.6754	14562.65	13644.35
905.5347	1692.4012	14546.3	13625.75
905.6761	1694.1263	14522.7	13603.75
905.8176	1695.8506	14436.4	13516.9
905.9591	1697.5742	14377.4	13463.05
906.1005	1699.297	14323.15	13409.45
906.2419	1701.0191	14204.9	13295.35
906.3833	1702.7404	14162.2	13249.65
906.5246	1704.461	14085.8	13167.7
906.666	1706.1808	14014.3	13096.8
906.8073	1707.8999	13988.9	13076.85
906.9487	1709.6182	13942.75	13033.4
907.09	1711.3358	13907.1	12997.5
907.2313	1713.0527	13864.45	12957.1
907.3725	1714.7688	13766.35	12852.2
907.5138	1716.4841	13720.4	12808.8
907.655	1718.1987	13707.25	12788.55
907.7962	1719.9126	13650.05	12739.45
907.9374	1721.6257	13600.55	12693
908.0786	1723.338	13575.9	12670.8
908.2198	1725.0496	13518.3	12608.35
908.3609	1726.7605	13504.5	12590.25
908.502	1728.4706	13434.45	12523.9
908.6431	1730.18	13344.95	12434.75
908.7842	1731.8886	13355	12447.55
908.9253	1733.5964	13324.1	12394.35
909.0664	1735.3036	13301.15	12389.5
909.2074	1737.0099	13253.45	12343.65
909.3484	1738.7156	13223.15	12315.6
909.4894	1740.4204	13124	12212.25
909.6304	1742.1246	13103.7	12191.15
909.7714	1743.8279	13077.55	12166.3
909.9123	1745.5306	13048.45	12143.3
910.0532	1747.2325	12992.85	12085.9
910.1941	1748.9336	12966.45	12057.2
910.335	1750.634	12900.65	11985.9
910.4759	1752.3336	12881.95	11972.95
910.6168	1754.0325	12861.7	11959.85
910.7576	1755.7307	12836.25	11930.55
910.8984	1757.4281	12845.4	11938.15
911.0392	1759.1247	12822.4	11902.85
911.18	1760.8206	12758.05	11839.25
911.3208	1762.5158	12730.3	11812.9
911.4615	1764.2102	12691.75	11782
911.6022	1765.9039	12631.15	11723.25
911.7429	1767.5968	12623.7	11717.65
911.8836	1769.289	12581.85	11675.2
912.0243	1770.9804	12546.35	11637.45
912.1649	1772.6711	12551.25	11636.95
912.3056	1774.361	12488.1	11575.5
912.4462	1776.0502	12496.35	11582.4
912.5868	1777.7386	12458.9	11547.9
912.7274	1779.4263	12433.2	11526.4
912.8679	1781.1132	12401.05	11496.45
913.0084	1782.7994	12344.35	11439.65
913.149	1784.4849	12345.6	11444.15
913.2895	1786.1696	12286.75	11375.6
913.4299	1787.8535	12262.65	11359.75
913.5704	1789.5367	12206.05	11304.45
913.7108	1791.2192	12199.35	11297.4
913.8513	1792.9009	12178.3	11245.35
913.9917	1794.5818	12139.2	11229.05
914.132	1796.2621	12104.3	11195.45
914.2724	1797.9415	12061.8	11152.85
914.4128	1799.6202	12025.55	11117.1
914.5531	1801.2982	12009.15	11099.45
914.6934	1802.9755	12010.3	11100.8
914.8337	1804.6519	11976.05	11069.5
914.9739	1806.3277	11937.6	11031.15
915.1142	1808.0027	11885.25	10985.2
915.2544	1809.6769	11878.45	10977.15
915.3946	1811.3504	11846.15	10944.75
915.5348	1813.0231	11829.95	10927.9
915.675	1814.6951	11819.45	10916.45
915.8151	1816.3664	11832.25	10925.25
915.9553	1818.0369	11778.05	10871.95
916.0954	1819.7067	11765.3	10861.45
916.2355	1821.3757	11765.3	10856.65
916.3755	1823.044	11681.1	10771
916.5156	1824.7115	11625.95	10717.65
916.6556	1826.3783	11619.8	10712.2
916.7956	1828.0443	11597.8	10692.6
916.9356	1829.7096	11547.5	10637.55
917.0756	1831.3741	11543.75	10635.05
917.2155	1833.0379	11512.2	10608.85
917.3555	1834.701	11473.95	10572.55
917.4954	1836.3633	11474.35	10572.2
917.6353	1838.0248	11436.35	10533.2
917.7751	1839.6856	11399.8	10493.65
917.915	1841.3457	11382.95	10478.05
918.0548	1843.005	11384.8	10478.4
918.1946	1844.6636	11357.25	10452.05
918.3344	1846.3214	11322.85	10418.1
918.4742	1847.9785	11316.75	10413.15
918.6139	1849.6349	11298	10389.8
918.7537	1851.2904	11290.45	10372.2
918.8934	1852.9453	11271.35	10361.6
919.0331	1854.5994	11199.4	10285.4
919.1727	1856.2528	11212.75	10301.55
919.3124	1857.9054	11191.4	10282.7
919.452	1859.5572	11154.1	10251.25
919.5916	1861.2083	11157.05	10249.85
919.7312	1862.8587	11139.25	10232.05
919.8708	1864.5084	11107.45	10197.2
920.0103	1866.1572	11071.15	10160.35
920.1498	1867.8054	11049.8	10137.6
920.2893	1869.4528	11000.65	10090.4
920.4288	1871.0994	10988.25	10077.95
920.5683	1872.7453	10970.5	10064.15
920.7077	1874.3905	10930.85	10016.65
920.8471	1876.0349	10909.3	10001
920.9865	1877.6786	10899.25	9990.05
921.1259	1879.3215	10906	9998.9
921.2653	1880.9637	10873.15	9965.35
921.4046	1882.6051	10840.35	9936.55
921.5439	1884.2458	10811.65	9906.15
921.6832	1885.8858	10742.1	9837.55
921.8225	1887.525	10733.45	9827.5
921.9617	1889.1634	10680.55	9773.45
922.101	1890.8011	10667.75	9755.95
922.2402	1892.4381	10650.55	9742.25
922.3794	1894.0743	10642.5	9735.85
922.5185	1895.7098	10626	9723.05
922.6577	1897.3446	10593.7	9685.3
922.7968	1898.9786	10574.5	9662.15
922.9359	1900.6118	10548.8	9644.65
923.075	1902.2443	10517.4	9609.7
923.214	1903.8761	10461.1	9555.4
923.3531	1905.5071	10422.1	9513.45
923.4921	1907.1374	10406.65	9499.8
923.6311	1908.7669	10379.55	9476
923.77	1910.3957	10365.55	9464.15
923.909	1912.0237	10334.8	9429.35
924.0479	1913.651	10281.55	9375
924.1868	1915.2776	10258.2	9354.45
924.3257	1916.9034	10209.25	9306.4
924.4646	1918.5285	10154	9250.3
924.6034	1920.1528	10141.55	9236
924.7422	1921.7764	10123.1	9216.4
924.881	1923.3992	10092.65	9186
925.0198	1925.0213	10040.3	9135.8
925.1586	1926.6427	10022.75	9120.2
925.2973	1928.2633	10049.4	9076.9
925.436	1929.8832	9973.15	9068.15
925.5747	1931.5023	9924.05	9020.4
925.7134	1933.1207	9904.65	8998.75
925.852	1934.7383	9891.55	8989.65
925.9906	1936.3552	9851.2	8945.2
926.1292	1937.9714	9844.9	8941.7
926.2678	1939.5868	9788.85	8882.65
926.4064	1941.2015	9741.45	8836.2
926.5449	1942.8154	9703.3	8797.25
926.6834	1944.4286	9678.05	8770.6
926.8219	1946.041	9661.1	8733.2
926.9604	1947.6528	9604.8	8694.7
927.0988	1949.2637	9596.45	8691.95
927.2372	1950.8739	9535	8630.1
927.3756	1952.4834	9529.45	8626.3
927.514	1954.0921	9510.15	8607.65
927.6523	1955.7001	9465.35	8560.2
927.7907	1957.3074	9451.7	8553.05
927.929	1958.9139	9411.3	8512.8
928.0673	1960.5197	9402.15	8504.15
928.2055	1962.1247	9349.6	8450.6
928.3438	1963.729	9311.35	8411.55
928.482	1965.3325	9312.05	8390.15
928.6202	1966.9353	9264.75	8368.2
928.7584	1968.5374	9237.55	8337.85
928.8965	1970.1387	9197.3	8298.4
929.0346	1971.7393	9170.55	8270.15
929.1727	1973.3392	9115.2	8217.3
929.3108	1974.9383	9100.1	8205
929.4489	1976.5366	9026.9	8130.4
929.5869	1978.1342	9051.6	8155.9
929.7249	1979.7311	9020.2	8125.25
929.8629	1981.3273	9002.65	8108.35
930.0009	1982.9227	8977.4	8081.75
930.1388	1984.5173	8938.4	8046.65
930.2767	1986.1112	8925.7	8032.6
930.4146	1987.7044	8884.45	7990.3
930.5525	1989.2968	8845.2	7949.25
930.6904	1990.8885	8841.2	7943.9
930.8282	1992.4795	8833.75	7939.2
930.966	1994.0697	8788.55	7895.95
931.1038	1995.6592	8769.75	7875.7
931.2415	1997.2479	8743.65	7848.65
931.3793	1998.8359	8742.8	7851.5
931.517	2000.4232	8690.2	7802.4
931.6547	2002.0097	8657.65	7771.75
931.7923	2003.5955	8610.2	7720.8
931.93	2005.1805	8615.2	7725.1
932.0676	2006.7648	8604.4	7711.95
932.2052	2008.3484	8570.65	7680.65
932.3427	2009.9312	8587.6	7701.75
932.4803	2011.5133	8555.1	7669
932.6178	2013.0946	8528.4	7639.75
932.7553	2014.6752	8518.45	7632.1
932.8928	2016.2551	8488.85	7596.1
933.0302	2017.8342	8453.7	7563.25
933.1676	2019.4126	8414.95	7528.1
933.305	2020.9902	8352.2	7466.35
933.4424	2022.5672	8360	7473.45
933.5798	2024.1433	8336.95	7444.1
933.7171	2025.7188	8309.65	7424.8
933.8544	2027.2935	8300.65	7413.6
933.9917	2028.8674	8277.9	7393.2
934.129	2030.4406	8257.55	7372.95
934.2662	2032.0131	8234.5	7351.35
934.4034	2033.5849	8181	7292.35
934.5406	2035.1559	8182.05	7296.65
934.6778	2036.7261	8126.4	7238.7
934.8149	2038.2957	8138.45	7246.05
934.952	2039.8645	8129.75	7236
935.0891	2041.4325	8142.85	7249.15
935.2262	2042.9998	8095	7206.7
935.3632	2044.5664	8084.65	7196.55
935.5002	2046.1323	8037.4	7150.85
935.6372	2047.6974	7992.1	7107.15
935.7742	2049.2617	7992.65	7105.7
935.9111	2050.8254	7988	7077
936.048	2052.3883	7978.1	7086
936.1849	2053.9504	7942.9	7051
936.3218	2055.5118	7925.2	7032.75
936.4586	2057.0725	7908.35	7017.4
936.5955	2058.6325	7878.7	6989.95
936.7323	2060.1917	7860.55	6976.15
936.869	2061.7502	7820.05	6931.6
937.0058	2063.3079	7810.95	6927.9
937.1425	2064.8649	7801.2	6909.9
937.2792	2066.4212	7778.25	6887.6
937.4159	2067.9767	7742	6851.25
937.5525	2069.5315	7722.35	6832.5
937.6891	2071.0856	7689.55	6801.9
937.8257	2072.6389	7646.7	6758.2
937.9623	2074.1915	7642.05	6758.45
938.0989	2075.7433	7578.7	6690.75
938.2354	2077.2945	7571.8	6685
938.3719	2078.8448	7566.75	6677.1
938.5084	2080.3945	7531.95	6641.85
938.6448	2081.9434	7553.55	6661.9
938.7812	2083.4916	7540.7	6644.8
938.9176	2085.039	7510.95	6611.05
939.054	2086.5857	7506.3	6606.15
939.1903	2088.1317	7479.7	6580.9
939.3267	2089.677	7450.8	6551.65
939.463	2091.2215	7425.35	6526.3
939.5992	2092.7652	7405.75	6505.05
939.7355	2094.3083	7397.4	6500.15
939.8717	2095.8506	7371.8	6476.75
940.0079	2097.3921	7373.25	6480.75
940.1441	2098.933	7351.35	6455.2
940.2802	2100.4731	7336.4	6446.3
940.4163	2102.0124	7345.35	6444.25
940.5524	2103.5511	7309.55	6415.5
940.6885	2105.089	7303.8	6409.35
940.8245	2106.6261	7276.65	6383.15
940.9606	2108.1626	7261.05	6368.1
941.0965	2109.6983	7251.8	6331.85
941.2325	2111.2332	7220.55	6326.35
941.3684	2112.7675	7197.45	6301.1
941.5044	2114.301	7169.95	6270.2
941.6403	2115.8337	7170.45	6276.6
941.7761	2117.3657	7161.5	6269.8
941.912	2118.897	7139.9	6245.15
942.0478	2120.4276	7135.15	6233.9
942.1835	2121.9575	7080.25	6183.55
942.3193	2123.4866	7096.15	6199.65
942.455	2125.0149	7064.5	6166.8
942.5907	2126.5426	7014.55	6123.55
942.7264	2128.0695	7014.9	6123.4
942.8621	2129.5956	6985.15	6100.55
942.9977	2131.1211	6992.5	6100.5
943.1333	2132.6458	6973	6078.7
943.2689	2134.1698	6960.05	6064.7
943.4044	2135.693	6951.7	6051.6
943.54	2137.2155	6925.35	6027.15
943.6755	2138.7373	6914.75	6022.1
943.8109	2140.2584	6872.7	5983.95
943.9464	2141.7787	6861.65	5970.55
944.0818	2143.2983	6839.85	5953.9
944.2172	2144.8171	6787.95	5903.9
944.3526	2146.3353	6806.65	5917.2
944.4879	2147.8527	6775	5884.65
944.6232	2149.3693	6773.8	5881.4
944.7585	2150.8853	6754.9	5859.4
944.8938	2152.4005	6706	5812.95
945.029	2153.9149	6710.7	5815
945.1642	2155.4287	6763.05	5767
945.2994	2156.9417	6704.8	5805.8
945.4346	2158.454	6662.4	5769.8
945.5697	2159.9655	6617.8	5730.6
945.7048	2161.4764	6636.25	5746
945.8399	2162.9865	6598.6	5709.5
945.9749	2164.4958	6584.2	5691.7
946.1099	2166.0045	6556.2	5662.65
946.2449	2167.5124	6551.35	5658.9
946.3799	2169.0195	6541.95	5648.9
946.5148	2170.526	6548.25	5653.55
946.6498	2172.0317	6521.55	5626.65
946.7846	2173.5367	6504.85	5611.9
946.9195	2175.0409	6502.9	5611.7
947.0543	2176.5445	6477.6	5585.55
947.1891	2178.0473	6438.15	5543.2
947.3239	2179.5494	6441.5	5541.1
947.4587	2181.0507	6401.2	5506.55
947.5934	2182.5513	6384.8	5490.25
947.7281	2184.0512	6376.05	5481.35
947.8628	2185.5504	6359	5465.9
947.9974	2187.0488	6328.7	5438.95
948.132	2188.5465	6308.5	5418.85
948.2666	2190.0435	6299.15	5407.7
948.4012	2191.5397	6286.75	5393.6
948.5357	2193.0353	6281.05	5383.75
948.6702	2194.5301	6236.75	5339.6
948.8047	2196.0241	6229.5	5329.4
948.9392	2197.5175	6220	5320.05
949.0736	2199.0101	6204.75	5303.45
949.208	2200.502	6153.6	5259.9
949.3424	2201.9931	6134.1	5243.25
949.4767	2203.4835	6122.95	5233.6
949.611	2204.9733	6123.05	5217.75
949.7453	2206.4622	6071.25	5182
949.8796	2207.9505	6079.8	5189.1
950.0138	2209.438	6014.3	5128.4
950.148	2210.9248	6005.15	5114.45
950.2822	2212.4109	6009.25	5118.7
950.4164	2213.8962	6000.35	5101.3
950.5505	2215.3809	5985.6	5087.6
950.6846	2216.8648	5972.95	5070
950.8186	2218.3479	5948.5	5044.2
950.9527	2219.8304	5945.15	5043.8
951.0867	2221.3121	5925.25	5023.4
951.2207	2222.7931	5896.3	4999.95
951.3546	2224.2733	5869.9	4972.7
951.4886	2225.7529	5853	4957.4
951.6225	2227.2317	5831	4937.2
951.7563	2228.7098	5805.2	4916.45
951.8902	2230.1872	5799.95	4910.55
952.024	2231.6638	5804.65	4915.85
952.1578	2233.1397	5777.7	4884.65
952.2916	2234.6149	5763.8	4874.45
952.4253	2236.0894	5738.55	4848.1
952.559	2237.5632	5718.45	4824.1
952.6927	2239.0362	5701.15	4808.6
952.8263	2240.5085	5678.65	4787.2
952.9599	2241.9801	5665.95	4771.95
953.0935	2243.4509	5665.35	4770.15
953.2271	2244.921	5648.45	4747.6
953.3606	2246.3904	5633.7	4735.15
953.4941	2247.8591	5609.75	4713.4
953.6276	2249.3271	5608.9	4714.1
953.7611	2250.7943	5566.1	4670.95
953.8945	2252.2608	5553.8	4658.5
954.0279	2253.7266	5544.05	4646.95
954.1612	2255.1917	5514.75	4620.85
954.2946	2256.656	5496.4	4600.85
954.4279	2258.1197	5489.45	4599.35
954.5612	2259.5826	5484.95	4591.6
954.6944	2261.0447	5482.55	4587.1
954.8276	2262.5062	5470	4573.45
954.9608	2263.9669	5448.65	4550.6
955.094	2265.4269	5443.65	4549.65
955.2271	2266.8862	5408.95	4516.8
955.3602	2268.3448	5413.25	4523.25
955.4933	2269.8026	5408.25	4515.85
955.6264	2271.2598	5382.15	4489.85
955.7594	2272.7162	5364.45	4474.35
955.8924	2274.1719	5350.5	4454.45
956.0253	2275.6268	5348.7	4452.05
956.1583	2277.0811	5346.5	4449.5
956.2912	2278.5346	5314.75	4419.15
956.4241	2279.9874	5308.6	4417.95
956.5569	2281.4395	5305.35	4414.65
956.6897	2282.8908	5278.1	4382.75
956.8225	2284.3414	5273.25	4379.8
956.9553	2285.7914	5239.1	4346.05
957.088	2287.2406	5222.9	4324.05
957.2207	2288.689	5237.35	4337.9
957.3534	2290.1368	5210.9	4308.45
957.486	2291.5838	5202.65	4297.8
957.6186	2293.0302	5184.05	4282.9
957.7512	2294.4758	5174.1	4276.3
957.8838	2295.9206	5148.25	4249.75
958.0163	2297.3648	5137.8	4244.8
958.1488	2298.8082	5128.05	4232.2
958.2813	2300.251	5111.3	4214.65
958.4137	2301.693	5108.2	4207.95
958.5461	2303.1343	5106.2	4208.1
958.6785	2304.5748	5089.25	4194.3
958.8108	2306.0147	5061.7	4168.25
958.9432	2307.4538	5060.55	4169.05
959.0754	2308.8922	5029.85	4140.8
959.2077	2310.3299	5024.05	4133
959.3399	2311.7669	5000.8	4110.65
959.4721	2313.2031	5011.2	4116.2
959.6043	2314.6387	4973.65	4077.5
959.7365	2316.0735	4982	4086.75
959.8686	2317.5076	4943.1	4048.95
960.0006	2318.941	4955.2	4058.95
960.1327	2320.3737	4933.3	4038.7
960.2647	2321.8056	4913.45	4013.8
960.3967	2323.2369	4906.25	4009.65
960.5287	2324.6674	4890.9	3993.35
960.6606	2326.0972	4870.1	3973.6
960.7925	2327.5263	4862.3	3968.25
960.9244	2328.9547	4843.55	3946.6
961.0562	2330.3823	4834.2	3934.35
961.1881	2331.8092	4848	3943.4
961.3198	2333.2355	4808.25	3909.05
961.4516	2334.661	4812.5	3912.9
961.5833	2336.0858	4788.2	3889.7
961.715	2337.5098	4783.45	3888.9
961.8467	2338.9332	4785.9	3892.1
961.9783	2340.3558	4763.35	3865.7
962.1099	2341.7778	4755	3862.7
962.2415	2343.199	4705.6	3808.2
962.373	2344.6195	4706.45	3811.95
962.5045	2346.0393	4702.15	3807.95
962.636	2347.4583	4697.6	3801.7
962.7675	2348.8767	4696.5	3800.1
962.8989	2350.2943	4681.55	3782.85
963.0303	2351.7113	4675.05	3775.95
963.1617	2353.1275	4675.95	3774.85
963.293	2354.543	4657.35	3729.45
963.4243	2355.9578	4631	3732.05
963.5556	2357.3718	4613.05	3720.05
963.6868	2358.7852	4593.9	3699.05
963.818	2360.1978	4568.45	3675.85
963.9492	2361.6098	4576.3	3682.05
964.0803	2363.021	4570.8	3670.2
964.2114	2364.4315	4549.55	3650.95
964.3425	2365.8413	4535	3638.35
964.4736	2367.2504	4508.9	3615.9
964.6046	2368.6587	4506.8	3614.4
964.7356	2370.0664	4498.5	3605.65
964.8666	2371.4733	4480.3	3584.6
964.9975	2372.8795	4472.5	3575.4
965.1284	2374.285	4443.2	3547.15
965.2593	2375.6899	4417.65	3522.5
965.3901	2377.0939	4404.1	3509.2
965.5209	2378.4973	4404.25	3509
965.6517	2379.9	4396	3501.55
965.7825	2381.3019	4373.15	3478.9
965.9132	2382.7032	4371.85	3479.45
966.0439	2384.1037	4368.2	3479.55
966.1745	2385.5035	4343.25	3454.8
966.3051	2386.9027	4319.2	3427.7
966.4357	2388.3011	4315.2	3419.7
966.5663	2389.6987	4309.85	3417.1
966.6968	2391.0957	4288.65	3397.3
966.8273	2392.492	4274.25	3384.3
966.9578	2393.8876	4255.8	3363.35
967.0882	2395.2824	4267.55	3374.45
967.2186	2396.6765	4224.05	3330.65
967.349	2398.07	4218.2	3324.15
967.4793	2399.4627	4226.55	3328.6
967.6097	2400.8547	4206.45	3308.85
967.7399	2402.246	4206.05	3305.25
967.8702	2403.6366	4178	3282.85
968.0004	2405.0265	4164.2	3273.05
968.1306	2406.4156	4148.75	3251.95
968.2607	2407.8041	4124.55	3228.7
968.3909	2409.1918	4125.85	3225.6
968.521	2410.5789	4096.05	3199.9
968.651	2411.9652	4107	3209.25
968.781	2413.3508	4071.2	3173.45
968.911	2414.7358	4071.1	3175.2
969.041	2416.12	4064.25	3168.8
969.1709	2417.5035	4056	3162.1
969.3008	2418.8863	4037.5	3139.75
969.4307	2420.2684	4036.85	3140.45
969.5606	2421.6497	4000.05	3104.55
969.6904	2423.0304	3986.7	3095.35
969.8201	2424.4104	3971.7	3076.7
969.9499	2425.7896	3974	3079.65
970.0796	2427.1682	3955	3062.4
970.2093	2428.546	3945.5	3049.6
970.3389	2429.9232	3948.15	3052.45
970.4685	2431.2996	3947.65	3052.65
970.5981	2432.6753	3938.35	3042.95
970.7277	2434.0503	3919.6	3021.3
970.8572	2435.4246	3905.45	3010.2
970.9867	2436.7982	3892.6	2994.05
971.1161	2438.1711	3878.1	2982.4
971.2456	2439.5433	3880.2	2983.1
971.375	2440.9148	3864.85	2964.5
971.5043	2442.2856	3856.05	2961.45
971.6336	2443.6557	3853.35	2957.25
971.7629	2445.025	3840.8	2945.1
971.8922	2446.3937	3828.95	2930.95
972.0214	2447.7617	3813.65	2918.25
972.1506	2449.1289	3811.35	2916
972.2798	2450.4955	3810	2909.95
972.4089	2451.8613	3779.85	2886.5
972.538	2453.2265	3770.3	2876.6
972.6671	2454.5909	3769.9	2872.65
972.7961	2455.9546	3758.45	2864.05
972.9251	2457.3177	3759.65	2865.95
973.0541	2458.68	3731.15	2837.05
973.1831	2460.0416	3746.75	2851.15
973.312	2461.4025	3733.15	2837.15
973.4408	2462.7627	3735.45	2829.75
973.5697	2464.1222	3715.3	2822.7
973.6985	2465.4811	3700	2807.7
973.8273	2466.8392	3689.6	2797.25
973.956	2468.1966	3703.95	2808.2
974.0847	2469.5533	3680.15	2784.7
974.2134	2470.9093	3678.15	2782.8
974.3421	2472.2645	3658.35	2762.65
974.4707	2473.6191	3669.35	2774.85
974.5993	2474.973	3641.2	2748.55
974.7278	2476.3262	3630.5	2733.85
974.8563	2477.6787	3618.55	2724.75
974.9848	2479.0305	3607.7	2715.1
975.1132	2480.3816	3597.3	2700.05
975.2417	2481.7319	3595.35	2702.85
975.37	2483.0816	3587.75	2691.6
975.4984	2484.4306	3553.6	2660.45
975.6267	2485.7789	3546.8	2654.75
975.755	2487.1264	3538.45	2644.55
975.8833	2488.4733	3526	2634.75
976.0115	2489.8195	3525.7	2623.25
976.1397	2491.165	3515.5	2618.2
976.2678	2492.5097	3503.4	2606.5
976.3959	2493.8538	3492.6	2600.75
976.524	2495.1972	3476	2582.15
976.6521	2496.5398	3473	2575.3
976.7801	2497.8818	3469	2573.7
976.9081	2499.2231	3453.9	2556.5
977.036	2500.5637	3446.45	2548.8
977.164	2501.9035	3431.65	2536.05
977.2918	2503.2427	3425.5	2526.75
977.4197	2504.5812	3414.7	2519.95
977.5475	2505.919	3398.35	2502.1
977.6753	2507.256	3414.75	2521.05
977.8031	2508.5924	3388.15	2494.95
977.9308	2509.9281	3378.45	2478.1
978.0585	2511.2631	3376.2	2482.95
978.1861	2512.5974	3361.8	2468.9
978.3137	2513.9309	3356.8	2463.3
978.4413	2515.2638	3356.8	2438.6
978.5689	2516.596	3349.45	2455.5
978.6964	2517.9275	3340.6	2445.95
978.8239	2519.2583	3319.5	2425.05
978.9513	2520.5884	3315.15	2419.2
979.0788	2521.9178	3318.8	2425.65
979.2062	2523.2465	3285.85	2392.8
979.3335	2524.5745	3275.3	2382.75
979.4608	2525.9018	3272.7	2380
979.5881	2527.2284	3262.3	2367.05
979.7154	2528.5543	3257.35	2365.65
979.8426	2529.8796	3250.05	2354.4
979.9698	2531.2041	3251.95	2358.05
980.0969	2532.5279	3239.85	2345.95
980.224	2533.851	3239.8	2347.5
980.3511	2535.1735	3233.45	2339.15
980.4781	2536.4952	3222.25	2327.45
980.6052	2537.8163	3217.75	2319.9
980.7321	2539.1366	3209.25	2314.6
980.8591	2540.4562	3205	2310.75
980.986	2541.7752	3195.85	2300.3
981.1129	2543.0935	3189.55	2294.05
981.2397	2544.411	3195.45	2297.1
981.3665	2545.7279	3191.35	2294.5
981.4933	2547.0441	3173.45	2277.05
981.62	2548.3596	3176.35	2277.65
981.7467	2549.6744	3169.3	2274.85
981.8734	2550.9885	3158.15	2254.7
982.0001	2552.3019	3157.25	2264.05
982.1267	2553.6146	3148.9	2250.5
982.2532	2554.9266	3140.05	2243.2
982.3798	2556.2379	3124.35	2228.4
982.5063	2557.5485	3114.9	2221.3
982.6327	2558.8585	3124.8	2221.95
982.7592	2560.1677	3118.8	2218.4
982.8856	2561.4762	3110.7	2215.3
983.0119	2562.7841	3117.8	2219.5
983.1383	2564.0913	3097.4	2202.25
983.2646	2565.3977	3090.15	2197.55
983.3908	2566.7035	3077.4	2181.8
983.517	2568.0086	3079.2	2180.45
983.6432	2569.313	3078.05	2181.55
983.7694	2570.6167	3070.75	2170.15
983.8955	2571.9197	3060.4	2164.55
984.0216	2573.222	3069.5	2172.3
984.1476	2574.5236	3053.95	2156.35
984.2737	2575.8246	3043.7	2144.9
984.3996	2577.1248	3040.3	2141.55
984.5256	2578.4244	3024.1	2129.5
984.6515	2579.7232	3035.25	2139.05
984.7774	2581.0214	3052.55	2128.45
984.9032	2582.3189	3032.4	2138.8
985.029	2583.6157	3027.55	2126.65
985.1548	2584.9118	3009.95	2113.15
985.2806	2586.2072	3012.75	2118.1
985.4063	2587.5019	3007.6	2110.6
985.5319	2588.7959	2994.15	2098.15
985.6576	2590.0893	2990.1	2091.45
985.7832	2591.3819	2981.2	2086
985.9087	2592.6739	2982.85	2087.75
986.0343	2593.9652	2968.4	2069.3
986.1597	2595.2557	2965.6	2069.3
986.2852	2596.5456	2961.3	2063.75
986.4106	2597.8348	2948.35	2052.15
986.536	2599.1234	2940.7	2044.85
986.6614	2600.4112	2941.65	2045.6
986.7867	2601.6983	2939.05	2041
986.912	2602.9848	2914.1	2019.75
987.0372	2604.2705	2917.8	2016.4
987.1624	2605.5556	2914.05	2018.2
987.2876	2606.84	2900.65	2005.15
987.4128	2608.1237	2885.95	1988.2
987.5379	2609.4067	2886.9	1990.1
987.6629	2610.689	2874.8	1973.25
987.788	2611.9707	2870.65	1972.15
987.913	2613.2516	2858.05	1956.6
988.0379	2614.5319	2847.6	1953.4
988.1629	2615.8115	2830.55	1935.35
988.2878	2617.0903	2824.25	1929.3
988.4126	2618.3685	2817.15	1923.4
988.5375	2619.6461	2817.75	1922
988.6622	2620.9229	2809.75	1916.65
988.787	2622.199	2816	1920.65
988.9117	2623.4745	2812.7	1919.5
989.0364	2624.7493	2795.9	1902.45
989.161	2626.0234	2789.45	1897.7
989.2857	2627.2968	2786.45	1893.25
989.4102	2628.5695	2778.2	1884.55
989.5348	2629.8415	2771.95	1878.65
989.6593	2631.1128	2784.25	1888
989.7837	2632.3835	2758.1	1863
989.9082	2633.6535	2750.25	1855.95
990.0326	2634.9228	2743.85	1854.6
990.1569	2636.1914	2728.8	1836.75
990.2812	2637.4593	2717.4	1822.35
990.4055	2638.7265	2725.3	1830.75
990.5298	2639.9931	2715	1820.95
990.654	2641.259	2717	1821.4
990.7782	2642.5242	2703.25	1810.05
990.9023	2643.7887	2697.6	1803.8
991.0264	2645.0525	2695.55	1800.75
991.1505	2646.3156	2704.05	1797.25
991.2745	2647.5781	2682.4	1789.1
991.3985	2648.8398	2673.65	1781.1
991.5225	2650.1009	2678.55	1758.5
991.6464	2651.3613	2658.15	1763
991.7703	2652.6211	2659.6	1767.5
991.8942	2653.8801	2652.2	1759.65
992.018	2655.1385	2646.95	1748
992.1418	2656.3961	2643.8	1750.75
992.2655	2657.6531	2642.75	1750.5
992.3892	2658.9094	2626.4	1733.4
992.5129	2660.1651	2619.85	1729.15
992.6366	2661.42	2635.85	1742.7
992.7602	2662.6743	2627.4	1733.35
992.8837	2663.9279	2619.5	1725.6
993.0073	2665.1808	2610.6	1715.8
993.1307	2666.433	2617.5	1725.35
993.2542	2667.6846	2600.7	1709.35
993.3776	2668.9354	2598	1701.2
993.501	2670.1856	2597.2	1701.4
993.6244	2671.4351	2604.4	1712.75
993.7477	2672.6839	2590.05	1693.95
993.8709	2673.9321	2581.3	1688.75
993.9942	2675.1795	2577.45	1684.3
994.1174	2676.4263	2576.2	1684.55
994.2405	2677.6724	2570.7	1679.9
994.3637	2678.9179	2565.5	1672.2
994.4868	2680.1626	2568.25	1676.2
994.6098	2681.4067	2562.05	1669.95
994.7328	2682.6501	2555.75	1664.2
994.8558	2683.8928	2544.45	1652.15
994.9788	2685.1348	2545.9	1654.1
995.1017	2686.3761	2526.3	1634.15
995.2245	2687.6168	2525.8	1632.85
995.3474	2688.8568	2517.9	1624.15
995.4702	2690.0961	2519.1	1627.9
995.5929	2691.3348	2502.35	1609.4
995.7156	2692.5727	2510.6	1618.2
995.8383	2693.81	2502.2	1610.65
995.961	2695.0466	2493.95	1600.35
996.0836	2696.2826	2489.85	1596.3
996.2062	2697.5178	2483.5	1587.55
996.3287	2698.7524	2472.05	1579.05
996.4512	2699.9863	2484.15	1589.35
996.5737	2701.2195	2467.75	1576.35
996.6961	2702.452	2472.8	1578.05
996.8185	2703.6839	2459.75	1566.35
996.9408	2704.9151	2451.5	1560.3
997.0631	2706.1456	2454.2	1561.3
997.1854	2707.3755	2463.9	1569.7
997.3077	2708.6046	2466	1570.25
997.4299	2709.8331	2447.55	1555.85
997.552	2711.0609	2453.3	1560.35
997.6742	2712.2881	2455.65	1563.45
997.7963	2713.5145	2452.95	1558.5
997.9183	2714.7403	2459.65	1566.55
998.0403	2715.9654	2462.55	1570.7
998.1623	2717.1899	2472.4	1566.15
998.2842	2718.4136	2468.6	1576
998.4062	2719.6367	2465.25	1573
998.528	2720.8591	2470	1569.8
998.6498	2722.0809	2463.85	1571.5
998.7716	2723.3019	2475.65	1580.35
998.8934	2724.5223	2471.15	1577.4
999.0151	2725.7421	2467.25	1573.5
999.1368	2726.9611	2469.2	1572.6
999.2584	2728.1795	2467.55	1571.85
999.38	2729.3972	2455.15	1563.65
999.5016	2730.6142	2430.25	1532.3
999.6231	2731.8306	2414.05	1519.9
999.7446	2733.0462	2411.75	1518.25
999.8661	2734.2612	2408.75	1512.15
999.9875	2735.4756	2382.5	1490.55
1000.1089	2736.6892	2362.85	1469.65
1000.2302	2737.9022	2342.25	1452.2
1000.3515	2739.1145	2327.95	1436.45
1000.4728	2740.3262	2337.35	1437.05
1000.594	2741.5372	2305.85	1413.85
1000.7152	2742.7475	2304.3	1413.55
1000.8363	2743.9571	2298.35	1407.05
1000.9575	2745.1661	2292.2	1395.25
1001.0785	2746.3744	2267.4	1375.1
1001.1996	2747.582	2255.7	1365.05
1001.3206	2748.7889	2250.45	1357.55
1001.4415	2749.9952	2248.55	1359.8
1001.5625	2751.2008	2237.7	1347.95
1001.6833	2752.4057	2238.05	1344.5
1001.8042	2753.61	2219.75	1326
1001.925	2754.8136	2215.7	1323.1
1002.0458	2756.0165	2216.95	1326.65
1002.1665	2757.2188	2195.75	1304.75
1002.2872	2758.4204	2202.45	1314.05
1002.4078	2759.6213	2205.9	1313.2
1002.5285	2760.8215	2205.4	1311.6
1002.649	2762.0211	2193.7	1301.15
1002.7696	2763.22	2192	1297.1
1002.8901	2764.4182	2180.1	1286.4
1003.0106	2765.6158	2178.95	1288.75
1003.131	2766.8127	2166.55	1275.55
1003.2514	2768.009	2159.8	1271.45
1003.3717	2769.2045	2163.7	1271.9
1003.492	2770.3994	2163.15	1272.65
1003.6123	2771.5936	2145.55	1253.05
1003.7325	2772.7872	2137.6	1248.95
1003.8527	2773.9801	2139.55	1248.1
1003.9729	2775.1723	2156.25	1249.25
1004.093	2776.3639	2128.2	1239.5
1004.2131	2777.5548	2119.55	1228.75
1004.3331	2778.745	2123.25	1232.25
1004.4531	2779.9346	2121	1230.8
1004.5731	2781.1235	2117.75	1225.9
1004.693	2782.3117	2117.1	1231.2
1004.8129	2783.4992	2098.2	1211.65
1004.9328	2784.6861	2099.1	1208.05
1005.0526	2785.8723	2106.6	1214.7
1005.1723	2787.0579	2110.3	1221.8
1005.2921	2788.2428	2105.85	1214.95
1005.4118	2789.427	2104.7	1215.75
1005.5314	2790.6106	2110.9	1221.9
1005.651	2791.7935	2105.3	1214.55
1005.7706	2792.9757	2112.8	1221.9
1005.8902	2794.1573	2117.75	1224.9
1006.0097	2795.3382	2117.6	1230.25
1006.1291	2796.5184	2109.1	1219.65
1006.2485	2797.698	2130.05	1239.05
1006.3679	2798.8769	2131.05	1241.7
1006.4873	2800.0551	2139.15	1249.3
1006.6066	2801.2327	2146.2	1254.45
1006.7258	2802.4096	2149.4	1260.75
1006.8451	2803.5859	2156.45	1266.1
1006.9642	2804.7615	2157.15	1266.75
1007.0834	2805.9364	2180.15	1293.65
1007.2025	2807.1106	2197	1311.65
1007.3216	2808.2842	2210.65	1321.6
1007.4406	2809.4572	2211.55	1322.6
1007.5596	2810.6294	2245.2	1355.7
1007.6785	2811.801	2257.6	1367.15
1007.7975	2812.972	2294.95	1407.8
1007.9163	2814.1423	2318.35	1430.2
1008.0352	2815.3119	2331.8	1442.8
1008.154	2816.4808	2362.8	1476.1
1008.2727	2817.6491	2406.5	1516.2
1008.3914	2818.8167	2428.3	1540.7
1008.5101	2819.9837	2465	1570.55
1008.6288	2821.15	2480.9	1592.7
1008.7474	2822.3157	2518.5	1631.6
1008.8659	2823.4807	2556.45	1668.1
1008.9844	2824.645	2588.35	1698.95
1009.1029	2825.8086	2614.9	1726.6
1009.2214	2826.9716	2644	1758.45
1009.3398	2828.134	2680.55	1793.85
1009.4581	2829.2957	2693.65	1804.75
1009.5764	2830.4567	2716.5	1830.65
1009.6947	2831.617	2736.9	1847.8
1009.813	2832.7767	2738.9	1850.85
1009.9312	2833.9358	2746.75	1857.7
1010.0493	2835.0941	2736.95	1847.1
1010.1675	2836.2519	2723.35	1838.15
1010.2855	2837.4089	2705.6	1817
1010.4036	2838.5653	2707.05	1818.15
1010.5216	2839.7211	2686.75	1798.35
1010.6396	2840.8761	2681.65	1790.15
1010.7575	2842.0306	2686.05	1800.2
1010.8754	2843.1843	2715	1826.4
1010.9932	2844.3374	2739.6	1851.95
1011.111	2845.4899	2780.35	1893.2
1011.2288	2846.6417	2809.45	1921.4
1011.3465	2847.7928	2847.8	1961.9
1011.4642	2848.9433	2897.8	2010.5
1011.5818	2850.0931	2941.95	2054.05
1011.6995	2851.2422	2989.55	2100.85
1011.817	2852.3907	3027.1	2136.8
1011.9345	2853.5385	3057.7	2168.75
1012.052	2854.6857	3098.85	2201.85
1012.1695	2855.8323	3127.9	2241.3
1012.2869	2856.9781	3150.2	2264.65
1012.4042	2858.1233	3187.75	2300.6
1012.5216	2859.2679	3215.9	2328.15
1012.6389	2860.4118	3240.3	2353.55
1012.7561	2861.555	3271.1	2376.65
1012.8733	2862.6976	3302.15	2411.9
1012.9905	2863.8395	3315.35	2428.7
1013.1076	2864.9808	3331.05	2444.15
1013.2247	2866.1214	3344.45	2458
1013.3417	2867.2614	3353.75	2465.25
1013.4587	2868.4007	3373.2	2483.75
1013.5757	2869.5393	3360.4	2472.6
1013.6926	2870.6773	3383.95	2493.8
1013.8095	2871.8146	3370.9	2479.45
1013.9263	2872.9513	3376.1	2486.4
1014.0431	2874.0874	3353.05	2465.55
1014.1599	2875.2227	3349.6	2461.45
1014.2766	2876.3574	3337.85	2451.6
1014.3933	2877.4915	3318.2	2432.85
1014.51	2878.6249	3295.2	2408.9
1014.6266	2879.7577	3291.75	2403.5
1014.7431	2880.8898	3274.95	2377.15
1014.8596	2882.0212	3266.8	2378.6
1014.9761	2883.152	3243.3	2357.9
1015.0925	2884.2821	3237.6	2349.05
1015.2089	2885.4116	3203.95	2318.65
1015.3253	2886.5405	3207.6	2321.15
1015.4416	2887.6686	3221.8	2331.25
1015.5579	2888.7962	3225.55	2341.35
1015.6741	2889.923	3219.9	2334.7
1015.7903	2891.0493	3227.85	2342.65
1015.9065	2892.1748	3238.85	2353.55
1016.0226	2893.2997	3245.3	2357.5
1016.1387	2894.424	3248.4	2364.15
1016.2547	2895.5476	3249.95	2366.35
1016.3707	2896.6706	3269.65	2384.7
1016.4866	2897.7929	3285.3	2398.45
1016.6025	2898.9145	3302.95	2415.8
1016.7184	2900.0355	3317.9	2431.35
1016.8342	2901.1559	3317.4	2429.7
1016.95	2902.2756	3337.45	2451.1
1017.0658	2903.3946	3353.85	2467.9
1017.1815	2904.513	3376.25	2485.65
1017.2971	2905.6308	3391.85	2504.45
1017.4127	2906.7479	3409.15	2523.55
1017.5283	2907.8643	3413.5	2524.2
1017.6439	2908.9801	3431.2	2545.9
1017.7594	2910.0953	3415.8	2530.6
1017.8748	2911.2098	3420.15	2528.5
1017.9902	2912.3236	3429.6	2537.7
1018.1056	2913.4368	3405.45	2516.2
1018.2209	2914.5494	3379.9	2493.75
1018.3362	2915.6613	3357.9	2464.9
1018.4515	2916.7725	3345.85	2454.4
1018.5667	2917.8831	3331.7	2444.9
1018.6819	2918.9931	3308.7	2419.65
1018.797	2920.1024	3278.75	2392.5
1018.9121	2921.211	3260.55	2375.3
1019.0271	2922.319	3256.25	2369.8
1019.1421	2923.4264	3242.35	2357.4
1019.2571	2924.5331	3224.3	2340.1
1019.372	2925.6391	3208.85	2324.45
1019.4869	2926.7445	3216.05	2330.35
1019.6017	2927.8493	3200.2	2315.4
1019.7165	2928.9534	3203.1	2317.4
1019.8313	2930.0569	3199.3	2309.65
1019.946	2931.1597	3205.75	2317
1020.0606	2932.2619	3201.1	2318.7
1020.1753	2933.3634	3191.1	2304.1
1020.2899	2934.4643	3201.7	2310.65
1020.4044	2935.5645	3204.95	2311.6
1020.5189	2936.6641	3162.7	2272.6
1020.6334	2937.763	3135.4	2251.75
1020.7478	2938.8613	3114.05	2226.7
1020.8622	2939.959	3090.2	2199.6
1020.9765	2941.056	3034.2	2148.9
1021.0908	2942.1523	2961.45	2075.8
1021.2051	2943.248	2922.15	2036.45
1021.3193	2944.3431	2847.85	1961.95
1021.4334	2945.4375	2774.45	1886.55
1021.5476	2946.5313	2718.1	1832.55
1021.6617	2947.6244	2649.65	1764.05
1021.7757	2948.7169	2586.9	1703
1021.8897	2949.8087	2512.95	1626.05
1022.0037	2950.8999	2449.9	1564.2
1022.1176	2951.9904	2391.35	1508.4
1022.2315	2953.0803	2353.3	1466.55
1022.3453	2954.1696	2300.35	1414.55
1022.4591	2955.2582	2274.25	1389.85
1022.5728	2956.3462	2228.65	1342.6
1022.6865	2957.4335	2190.75	1305.8
1022.8002	2958.5202	2176.15	1286.9
1022.9138	2959.6062	2143.85	1258.65
1023.0274	2960.6916	2137.25	1252.85
1023.141	2961.7764	2115.5	1229.75
1023.2545	2962.8605	2103.65	1218.65
1023.3679	2963.9439	2092.3	1206.6
1023.4813	2965.0267	2076.4	1191.3
1023.5947	2966.1089	2106.9	1198.6
1023.708	2967.1905	2067.6	1180.75
1023.8213	2968.2714	2062.6	1179.6
1023.9346	2969.3516	2076.15	1189.85
1024.0478	2970.4312	2062.6	1169.2
1024.1609	2971.5102	2059.8	1177.2
1024.274	2972.5885	2057	1174.5
1024.3871	2973.6662	2064.15	1174.1
1024.5002	2974.7432	2057.6	1173.1
1024.6132	2975.8196	2053.15	1167.35
1024.7261	2976.8954	2035.65	1151.2
1024.839	2977.9705	2031.8	1147.7
1024.9519	2979.045	2020.7	1136.75
1025.0647	2980.1188	2010.15	1125.75
1025.1775	2981.192	1993.55	1109.45
1025.2902	2982.2645	1988.95	1104.05
1025.4029	2983.3364	1971.45	1086.65
1025.5156	2984.4077	1938.75	1056.95
1025.6282	2985.4783	1929.75	1036.5
1025.7407	2986.5483	1906.85	1024.8
1025.8532	2987.6177	1881.85	999.4
1025.9657	2988.6864	1859.8	974.35
1026.0782	2989.7545	1836	950.3
1026.1906	2990.8219	1810.1	926.55
1026.3029	2991.8887	1786.5	899.85
1026.4152	2992.9548	1767.3	882.4
1026.5275	2994.0204	1738.15	854.85
1026.6397	2995.0852	1716.85	832.1
1026.7519	2996.1495	1703.45	816.95
1026.864	2997.2131	1682.95	798.65
1026.9761	2998.276	1667.95	784.65
1027.0882	2999.3383	1648.75	763.95
1027.2002	3000.4	1632.4	747.75
1027.3122	3001.4611	1622.2	738.25
1027.4241	3002.5215	1603.3	720.2
1027.536	3003.5812	1588.75	703.7
1027.6478	3004.6404	1584.8	700.95
1027.7596	3005.6989	1586.45	699.3
1027.8714	3006.7567	1571.35	689.15
1027.9831	3007.8139	1574.9	673.95
1028.0947	3008.8705	1549.7	666.95
1028.2064	3009.9264	1559.55	661.7
1028.3179	3010.9818	1541.7	658.85
1028.4295	3012.0364	1537.65	652.3
1028.541	3013.0905	1541.8	657.4
1028.6524	3014.1439	1527.15	642.9
1028.7638	3015.1966	1520.35	636.1
1028.8752	3016.2487	1517.6	632.4
1028.9865	3017.3002	1518.85	630.6
1029.0978	3018.3511	1516.35	634.8
1029.209	3019.4013	1513.7	630.3
1029.3202	3020.4509	1509.15	626.35
1029.4314	3021.4998	1507.75	625.05
1029.5425	3022.5481	1501.85	618.65
1029.6535	3023.5958	1502.75	618.35
1029.7645	3024.6428	1506.1	620.75
1029.8755	3025.6892	1501.55	618.6
1029.9864	3026.735	1498.55	613.7
1030.0973	3027.7802	1507.95	622.15
1030.2082	3028.8247	1490.25	606.25
1030.319	3029.8685	1498.05	613.75
1030.4297	3030.9118	1497.45	612.65
1030.5404	3031.9544	1489.8	606.45
1030.6511	3032.9963	1497.55	613.5
1030.7617	3034.0376	1503	621.1
1030.8723	3035.0783	1505.65	618
1030.9829	3036.1184	1505.75	622.2
1031.0934	3037.1578	1502.2	620.4
1031.2038	3038.1966	1512.75	629.05
1031.3142	3039.2348	1503.05	623.15
1031.4246	3040.2723	1510.8	619
1031.5349	3041.3092	1503.65	621
1031.6452	3042.3455	1499.2	616.65
1031.7554	3043.3811	1492.55	609.5
1031.8656	3044.4161	1496	609.7
1031.9758	3045.4505	1479.2	596.4
1032.0859	3046.4842	1489.7	605.5
1032.1959	3047.5173	1472.1	590.1
1032.3059	3048.5498	1478.8	594.65
1032.4159	3049.5816	1469.1	587
1032.5258	3050.6128	1468.4	583.75
1032.6357	3051.6434	1463.35	578.7
1032.7455	3052.6734	1460.45	574.1
1032.8553	3053.7027	1450.9	566.1
1032.9651	3054.7314	1444.8	563.3
1033.0748	3055.7594	1449.1	566.1
1033.1845	3056.7868	1445.45	561
1033.2941	3057.8136	1432.4	550.6
1033.4037	3058.8398	1433.1	550.6
1033.5132	3059.8653	1425.3	542.25
1033.6227	3060.8902	1420.15	538.15
1033.7321	3061.9145	1425	542.8
1033.8415	3062.9381	1415.3	532.2
1033.9509	3063.9612	1429.05	531
1034.0602	3064.9835	1415.45	532.2
1034.1694	3066.0053	1404.65	518.3
1034.2787	3067.0264	1398.05	516.85
1034.3878	3068.0469	1401.35	517.85
1034.497	3069.0668	1391.5	505.4
1034.6061	3070.086	1384.4	503.7
1034.7151	3071.1046	1383.1	499.6
1034.8241	3072.1226	1378.25	495.6
1034.9331	3073.1399	1370.55	488.75
1035.042	3074.1567	1365	480.45
1035.1508	3075.1727	1361.7	479.55
1035.2597	3076.1882	1349.6	466.25
1035.3684	3077.203	1348.55	466.35
1035.4772	3078.2173	1343.55	458.3
1035.5859	3079.2308	1334.15	446.35
1035.6945	3080.2438	1322.4	435.65
1035.8031	3081.2561	1310.9	429.15
1035.9117	3082.2678	1316.9	434.85
1036.0202	3083.2789	1308.45	427
1036.1286	3084.2893	1304.1	422.45
1036.2371	3085.2991	1294.6	411.35
1036.3454	3086.3083	1295.6	409.55
1036.4538	3087.3169	1290.5	404.45
1036.562	3088.3248	1292.35	406.65
1036.6703	3089.3321	1286.9	401
1036.7785	3090.3388	1276.3	395.05
1036.8866	3091.3449	1277.65	394.35
1036.9948	3092.3503	1268.7	384.65
1037.1028	3093.3551	1262.4	381.1
1037.2108	3094.3593	1258.4	378.55
1037.3188	3095.3629	1261	378.45
1037.4267	3096.3658	1264.35	380.7
1037.5346	3097.3681	1247.6	364.25
1037.6425	3098.3698	1250	367
1037.7503	3099.3708	1253.05	362.55
1037.858	3100.3713	1240.9	358.7
1037.9657	3101.3711	1240.9	358.45
1038.0734	3102.3702	1370.9	345.8
1038.181	3103.3688	1241.9	356.7
1038.2886	3104.3667	1233.75	352.65
1038.3961	3105.364	1228.85	346.75
1038.5036	3106.3607	1225.2	343.25
1038.611	3107.3568	1224.8	343.7
1038.7184	3108.3522	1216	334.8
1038.8257	3109.347	1220.45	337.4
1038.933	3110.3412	1231.1	346.25
1039.0403	3111.3348	1217.55	336.45
1039.1475	3112.3277	1215.3	332.9
1039.2547	3113.32	1206.35	324.85
1039.3618	3114.3117	1208.4	326.75
1039.4689	3115.3028	1205.5	323.8
1039.5759	3116.2932	1207.45	324.75
1039.6829	3117.2831	1211.7	321.25
1039.7898	3118.2723	1204.8	323
1039.8967	3119.2608	1198.4	316.5
1040.0035	3120.2488	1199	317.55
1040.1103	3121.2361	1194.05	312.1
1040.2171	3122.2229	1189.3	308.2
1040.3238	3123.209	1193.4	311.05
1040.4305	3124.1944	1187.95	306.7
1040.5371	3125.1793	1189.5	306.05
1040.6437	3126.1635	1183.1	300.7
1040.7502	3127.1471	1182.05	301.6
1040.8567	3128.1301	1176.15	295.3
1040.9631	3129.1125	1175.45	295.2
1041.0695	3130.0942	1177	293.75
1041.1759	3131.0753	1184.35	294.1
1041.2822	3132.0558	1172.4	287.2
1041.3884	3133.0357	1176.75	295.7
1041.4946	3134.015	1166.85	283.85
1041.6008	3134.9936	1167.9	285.3
1041.7069	3135.9716	1191.2	288.6
1041.813	3136.949	1165.4	283.95
1041.919	3137.9258	1186.95	286.35
1042.025	3138.902	1168.55	283.05
1042.1309	3139.8775	1163.2	280.85
1042.2368	3140.8524	1158.05	276.8
1042.3427	3141.8267	1162.5	276.95
1042.4485	3142.8004	1155.95	275.15
1042.5542	3143.7735	1164.25	274.9
1042.6599	3144.7459	1154.45	271.3
1042.7656	3145.7178	1156.5	274.9
1042.8712	3146.689	1152.65	272.6
1042.9768	3147.6596	1149.25	265.35
1043.0823	3148.6295	1143.6	262.95
1043.1878	3149.5989	1144.75	262.95
1043.2932	3150.5676	1147.7	266.7
1043.3986	3151.5357	1139.95	260.05
1043.5039	3152.5032	1144.1	262.8
1043.6092	3153.4701	1141.4	259.65
1043.7145	3154.4364	1138.75	256.05
1043.8197	3155.402	1135.35	254.35
1043.9248	3156.367	1132.9	248.85
1044.03	3157.3315	1171.5	254.25
1044.135	3158.2952	1132.45	250.05
1044.24	3159.2584	1126.5	245.4
1044.345	3160.221	1128.35	246.35
1044.4499	3161.1829	1128.7	247.9
1044.5548	3162.1442	1125	243.45
1044.6596	3163.105	1126.75	245.55
1044.7644	3164.065	1118.65	237.7
1044.8692	3165.0245	1127	242.3
1044.9739	3165.9834	1116.9	236.4
1045.0785	3166.9416	1114.65	233.45
1045.1831	3167.8993	1116.3	233.7
1045.2877	3168.8563	1115.3	233.6
1045.3922	3169.8127	1117.65	236.8
1045.4966	3170.7684	1115.3	233.95
1045.6011	3171.7236	1115.85	233.45
1045.7054	3172.6782	1106.95	223
1045.8098	3173.6321	1108.2	228.25
1045.914	3174.5854	1114.95	228.65
1046.0183	3175.5381	1108.05	227.45
1046.1224	3176.4902	1104.55	222.35
1046.2266	3177.4417	1102.55	221.55
1046.3307	3178.3926	1104.45	223.45
1046.4347	3179.3428	1104.7	221.7
1046.5387	3180.2924	1096.5	215.7
1046.6427	3181.2415	1098.1	215.75
1046.7466	3182.1899	1099.2	216.3
1046.8504	3183.1377	1096.15	215.65
1046.9542	3184.0848	1101.05	218.25
1047.058	3185.0314	1097.05	216.45
1047.1617	3185.9773	1094.05	211.65
1047.2654	3186.9227	1090.35	207.3
1047.369	3187.8674	1091.5	208.4
1047.4726	3188.8115	1088.75	204.1
1047.5761	3189.755	1089.2	208.25
1047.6796	3190.6979	1086.4	204.25
1047.783	3191.6402	1086.75	206.8
1047.8864	3192.5818	1082.45	200.95
1047.9898	3193.5229	1089.75	201.75
1048.0931	3194.4633	1083	199.35
1048.1963	3195.4031	1084.55	202.95
1048.2995	3196.3423	1078.35	197.25
1048.4027	3197.2809	1081.35	201.25
1048.5058	3198.2189	1079	196.65
1048.6089	3199.1563	1083.9	196.75
1048.7119	3200.0931	1074.4	193.85
1048.8148	3201.0292	1073	195.05
1048.9178	3201.9648	1070.5	188.85
1049.0206	3202.8997	1074.55	192.35
1049.1235	3203.834	1075.75	193.8
1049.2262	3204.7677	1071.3	192.55
1049.329	3205.7008	1070.55	187.25
1049.4317	3206.6333	1071	192.3
1049.5343	3207.5652	1071.65	190.65
1049.6369	3208.4964	1065.45	183.75
1049.7394	3209.4271	1067.35	185.5
1049.8419	3210.3571	1067.3	186.7
1049.9444	3211.2865	1067.1	185.95
1050.0468	3212.2154	1058.05	177.55
1050.1491	3213.1436	1065.95	181.65
1050.2514	3214.0712	1065.85	180.3
1050.3537	3214.9982	1059.3	177.25
1050.4559	3215.9246	1062.4	180.45
1050.5581	3216.8503	1053.95	174.9
1050.6602	3217.7755	1060.4	180.95
1050.7623	3218.7001	1056.25	175.55
1050.8643	3219.624	1056.9	176.45
1050.9663	3220.5473	1057.5	177.3
1051.0682	3221.4701	1056.95	175.25
1051.1701	3222.3922	1058.6	175.15
1051.2719	3223.3137	1050.3	169.95
1051.3737	3224.2346	1053.35	171.9
1051.4754	3225.1549	1054.45	174.9
1051.5771	3226.0746	1053	173.5
1051.6788	3226.9937	1047.7	166.15
1051.7804	3227.9121	1045.95	165.8
1051.8819	3228.83	1046.1	166.2
1051.9834	3229.7473	1044	161.7
1052.0849	3230.6639	1045.8	166.7
1052.1863	3231.5799	1045.3	164.3
1052.2876	3232.4954	1045.7	163.85
1052.3889	3233.4102	1043.65	163.65
1052.4902	3234.3244	1039.65	157.05
1052.5914	3235.238	1036.4	156.45
1052.6926	3236.151	1067.4	162.95
1052.7937	3237.0634	1033.8	154.55
1052.8948	3237.9752	1038.15	155.6
1052.9958	3238.8864	1036.35	156.5
1053.0968	3239.797	1038.2	158.75
1053.1977	3240.7069	1037.25	157.65
1053.2986	3241.6163	1038.35	158.45
1053.3994	3242.5251	1030.1	148.65
1053.5002	3243.4332	1028.8	149.75
1053.6009	3244.3408	1034.8	151.45
1053.7016	3245.2477	1026.35	147.65
1053.8022	3246.154	1027.05	144.6
1053.9028	3247.0598	1031.35	151.15
1054.0034	3247.9649	1025.7	144.95
1054.1039	3248.8694	1028.7	147.6
1054.2043	3249.7733	1024.4	145.75
1054.3047	3250.6766	1023.55	140.95
1054.4051	3251.5793	1024.05	141.85
1054.5054	3252.4814	1021.6	141.85
1054.6056	3253.3829	1021.1	140.55
1054.7058	3254.2838	1020.1	139.6
1054.806	3255.1841	1022.35	142.3
1054.9061	3256.0838	1018	137.25
1055.0061	3256.9829	1014.8	135.9
1055.1062	3257.8814	1015.65	133
1055.2061	3258.7792	1017.75	134.3
1055.306	3259.6765	1013.35	131.3
1055.4059	3260.5731	1006.15	126.05
1055.5057	3261.4692	1012.25	130.85
1055.6055	3262.3647	1007.8	125.9
1055.7052	3263.2595	1007.9	128.05
1055.8049	3264.1538	1003.55	124.85
1055.9045	3265.0474	1006.6	125.55
1056.0041	3265.9404	998.05	118.1
1056.1036	3266.8329	999.05	120.9
1056.2031	3267.7247	1009.6	119.9
1056.3025	3268.616	993.55	114.05
1056.4019	3269.5066	990.45	108.95
1056.5013	3270.3966	988	106.25
1056.6005	3271.286	987.9	108.75
