Software Version:	3.9.2.0
Unit SN:	10000200
Spectrometer SN:	6960
Date:	3/26/2024 2:09:40 PM
Data Line Index:	25
Spectral Points:	2048
Integration time (ms):	125
Averages:	20
Delay (ms):	30000
Sequence Number:	1
Processing:	dark subtract
Laser Power (mW):	305
Laser Current (mA):	820
Laser Diode Temp (C):	25
Laser Case Temp (C):	27.5
System Temp (C):	27.5
Spectrometer Temp (C):	25.4
CCD Temp (C):	0.007
Secondary Temp (C):	20.004
Heatsink Temp (C):	23.048
CCDPCB Temp (C):	37.018
SecondaryPCB Temp (C):	34.584

Wavelength	RamanShift	Raw Counts	Dark Subtracted
787.061	30.1047	684.75	274.55
787.2016	32.3739	693.25	283.8
787.3422	34.6426	711.7	302.6
787.4828	36.9109	735.75	324.85
787.6235	39.1787	752.55	335.45
787.7642	41.4461	783.1	361.1
787.9049	43.7131	810.55	385.3
788.0456	45.9796	835.65	407
788.1863	48.2456	863.5	434.25
788.3271	50.5112	894.2	457.5
788.4679	52.7764	928.15	489.15
788.6087	55.0411	963.15	520.9
788.7496	57.3054	994.45	548.9
788.8904	59.5692	1039.4	590.45
789.0313	61.8326	1070.75	618.05
789.1722	64.0955	1112.85	656.25
789.3132	66.3579	1177.8	715.4
789.4541	68.6199	1237.15	771.75
789.5951	70.8815	1349.15	881.45
789.7361	73.1426	1567.3	1094.25
789.8771	75.4032	2140.6	1661.8
790.0181	77.6634	3580.6	3097.8
790.1592	79.9231	7152.45	6659.55
790.3003	82.1824	15391.6	14878.05
790.4414	84.4412	37207.3	36656.6
790.5825	86.6995	63724.7	63124.7
790.7237	88.9574	65535	64890.3
790.8648	91.2148	65535	64854.65
791.006	93.4717	65535	64829.9
791.1472	95.7282	65535	64819.15
791.2885	97.9842	65535	64815.85
791.4297	100.2398	65535	64813.3
791.571	102.4949	65535	64807.95
791.7123	104.7495	65535	64810.65
791.8536	107.0036	65535	64808.6
791.9949	109.2573	65535	64809.15
792.1363	111.5105	65535	64801.2
792.2777	113.7632	65535	64806.05
792.4191	116.0154	65535	64788.4
792.5605	118.2672	65535	64791.05
792.7019	120.5185	65535	64797.7
792.8434	122.7693	65535	64794.65
792.9849	125.0197	65535	64789.3
793.1264	127.2696	65535	64786.8
793.2679	129.519	65535	64783.65
793.4094	131.7679	65535	64782.4
793.551	134.0163	65535	64776.8
793.6926	136.2642	65535	64769.7
793.8342	138.5117	65535	64770.55
793.9758	140.7587	65535	64766.9
794.1175	143.0052	65535	64767.95
794.2591	145.2512	65535	64771.95
794.4008	147.4967	65535	64770.4
794.5425	149.7417	65535	64766.8
794.6842	151.9863	65535	64760.7
794.826	154.2304	65535	64759.7
794.9677	156.4739	65535	64753.55
795.1095	158.717	65535	64751.45
795.2513	160.9596	65535	64750.5
795.3931	163.2017	65535	64753.1
795.535	165.4433	65535	64740.6
795.6768	167.6844	65535	64742.5
795.8187	169.925	65535	64740.05
795.9606	172.1651	65535	64741.35
796.1025	174.4047	65535	64740.4
796.2445	176.6439	65535	64735.6
796.3864	178.8825	65535	64734.95
796.5284	181.1206	65535	64728.65
796.6704	183.3582	65535	64718.5
796.8124	185.5954	65535	64725.2
796.9544	187.832	65535	64719.8
797.0965	190.0681	65535	64717.8
797.2386	192.3037	65535	64708.55
797.3806	194.5388	65535	64709.9
797.5228	196.7734	65535	64703.2
797.6649	199.0075	65535	64699.85
797.807	201.2411	65535	64699.9
797.9492	203.4742	65535	64700.15
798.0914	205.7068	65535	64695.55
798.2336	207.9389	65535	64699.45
798.3758	210.1704	65535	64692.3
798.518	212.4015	65535	64694.65
798.6603	214.632	65535	64688.8
798.8025	216.862	65535	64702
798.9448	219.0915	65535	64707.35
799.0871	221.3205	65535	64708.85
799.2294	223.549	65535	64715.8
799.3718	225.777	65535	64714.5
799.5141	228.0044	65535	64710.7
799.6565	230.2314	65535	64717.15
799.7989	232.4578	65535	64717.15
799.9413	234.6837	65535	64706.05
800.0837	236.909	65535	64702.75
800.2262	239.1339	65535	64683.15
800.3687	241.3582	65535	64692.05
800.5111	243.582	65535	64661.85
800.6536	245.8053	65535	64676.75
800.7961	248.0281	65535	64683.05
800.9387	250.2503	65535	64678.05
801.0812	252.472	65535	64674.6
801.2238	254.6932	65535	64668.8
801.3664	256.9139	65535	64666.95
801.509	259.134	65535	64662.2
801.6516	261.3536	65535	64663.75
801.7942	263.5727	65535	64661.35
801.9369	265.7912	65535	64666.05
802.0795	268.0092	65535	64667.95
802.2222	270.2267	65535	64665.15
802.3649	272.4436	65535	64664.1
802.5076	274.6601	65535	64660.45
802.6504	276.8759	65535	64657.2
802.7931	279.0913	65535	64660.3
802.9359	281.3061	65535	64658.65
803.0787	283.5204	65535	64649.6
803.2215	285.7341	65535	64652.25
803.3643	287.9473	65535	64637.25
803.5071	290.16	65535	64646
803.6499	292.3721	65535	64651.1
803.7928	294.5837	65535	64651.05
803.9357	296.7947	65535	64649.95
804.0786	299.0052	65535	64647.15
804.2215	301.2152	65535	64649.6
804.3644	303.4246	65535	64657.5
804.5074	305.6334	65535	64652.7
804.6503	307.8418	65535	64653
804.7933	310.0495	65535	64648.1
804.9363	312.2568	65535	64646.25
805.0793	314.4635	65535	64643.9
805.2223	316.6696	65535	64641.95
805.3653	318.8752	65535	64634.75
805.5084	321.0802	65535	64640.25
805.6514	323.2847	65535	64637.25
805.7945	325.4887	65535	64640.6
805.9376	327.692	65535	64638.7
806.0807	329.8949	65535	64638.65
806.2238	332.0972	65535	64635.45
806.367	334.2989	65535	64631
806.5101	336.5001	65535	64636.1
806.6533	338.7007	65535	64627.45
806.7965	340.9008	65535	64629.25
806.9397	343.1003	65535	64627.35
807.0829	345.2992	65535	64631
807.2261	347.4976	65535	64627.45
807.3693	349.6955	65535	64623.35
807.5126	351.8927	65535	64625.75
807.6559	354.0895	65535	64616.2
807.7991	356.2856	65535	64623.4
807.9424	358.4812	65535	64623.95
808.0857	360.6763	65535	64623
808.2291	362.8707	65535	64619.6
808.3724	365.0646	65535	64622.75
808.5158	367.258	65535	64620.75
808.6591	369.4508	65535	64611.35
808.8025	371.643	65535	64614.85
808.9459	373.8346	65535	64613.1
809.0893	376.0257	65535	64613.25
809.2327	378.2162	65535	64610.35
809.3762	380.4062	65535	64609.2
809.5196	382.5956	65535	64609.7
809.6631	384.7844	65535	64608.5
809.8066	386.9726	65535	64610.85
809.9501	389.1603	65535	64613.35
810.0936	391.3474	65535	64587.7
810.2371	393.5339	65535	64608.5
810.3806	395.7199	65535	64613.75
810.5241	397.9052	65535	64616.55
810.6677	400.09	65535	64616.2
810.8113	402.2743	65535	64617.9
810.9548	404.4579	65535	64619.95
811.0984	406.641	65535	64620.2
811.2421	408.8235	65535	64619.35
811.3857	411.0054	65535	64618.3
811.5293	413.1868	65535	64615.45
811.673	415.3675	65535	64613.15
811.8166	417.5477	65535	64613.95
811.9603	419.7273	65535	64609.9
812.104	421.9064	65535	64605.9
812.2477	424.0848	65535	64609.45
812.3914	426.2627	65535	64613.05
812.5351	428.4399	65535	64609.6
812.6788	430.6166	65535	64602.95
812.8226	432.7928	65535	64599
812.9663	434.9683	65535	64602.95
813.1101	437.1432	65535	64603.05
813.2539	439.3176	65535	64608.75
813.3977	441.4914	65535	64610.8
813.5415	443.6645	65535	64609.25
813.6853	445.8371	65535	64602.45
813.8291	448.0091	65535	64607.15
813.973	450.1806	65535	64608.35
814.1168	452.3514	65535	64611.45
814.2607	454.5216	65535	64600.4
814.4046	456.6913	65535	64604.85
814.5485	458.8603	65535	64606.45
814.6924	461.0288	65535	64612.2
814.8363	463.1967	65535	64618.6
814.9802	465.3639	65535	64603.65
815.1241	467.5306	65535	64606.3
815.2681	469.6967	65535	64612.25
815.412	471.8622	65535	64610.05
815.556	474.0271	65535	64606.6
815.7	476.1914	65535	64602.55
815.844	478.3551	65535	64604.25
815.988	480.5182	65535	64613.15
816.132	482.6807	65535	64618.45
816.276	484.8426	65535	64627.25
816.4201	487.0039	65535	64616.5
816.5641	489.1647	65535	64608.95
816.7082	491.3248	65535	64604.6
816.8522	493.4843	65535	64611.25
816.9963	495.6432	65535	64612.65
817.1404	497.8015	65535	64596.1
817.2845	499.9592	65535	64596.55
817.4286	502.1163	65535	64596.95
817.5727	504.2728	65535	64603.15
817.7168	506.4287	65535	64616.3
817.861	508.5839	65535	64617.9
818.0051	510.7386	65535	64608.05
818.1493	512.8927	65535	64593
818.2935	515.0461	65535	64601
818.4377	517.199	65535	64601.5
818.5818	519.3512	65535	64600.15
818.726	521.5029	65535	64591.95
818.8703	523.6539	65535	64600.2
819.0145	525.8043	65535	64598.5
819.1587	527.9541	65535	64594.4
819.303	530.1033	65535	64597.85
819.4472	532.2519	65535	64601.3
819.5915	534.3999	65535	64597.7
819.7357	536.5472	65535	64603.25
819.88	538.694	65535	64603.6
820.0243	540.8401	65535	64594.4
820.1686	542.9856	65535	64582.8
820.3129	545.1305	65535	64579.6
820.4572	547.2748	65535	64573.25
820.6016	549.4185	65535	64579.35
820.7459	551.5615	65535	64578.95
820.8902	553.704	65535	64580.9
821.0346	555.8458	65535	64588.15
821.1789	557.987	65535	64586.1
821.3233	560.1276	65535	64587.6
821.4677	562.2675	65535	64581.75
821.6121	564.4069	65535	64582.3
821.7565	566.5456	65535	64584.35
821.9009	568.6837	65535	64586.25
822.0453	570.8212	65535	64593.25
822.1897	572.958	65535	64585.55
822.3342	575.0942	65535	64591.9
822.4786	577.2299	65535	64598.75
822.6231	579.3648	65535	64611.1
822.7675	581.4992	65535	64621
822.912	583.6329	65535	64620.65
823.0565	585.766	65535	64615.85
823.201	587.8985	65535	64610.5
823.3454	590.0304	65535	64591.1
823.4899	592.1616	65535	64589.5
823.6345	594.2922	65535	64585.6
823.779	596.4222	65535	64583.25
823.9235	598.5515	65535	64582.25
824.068	600.6802	65535	64584.95
824.2126	602.8083	65535	64586.95
824.3571	604.9358	65535	64581.7
824.5017	607.0626	65535	64581.3
824.6462	609.1888	65535	64574.6
824.7908	611.3144	65535	64575.85
824.9354	613.4393	65535	64574.05
825.08	615.5636	65535	64580.85
825.2246	617.6873	65535	64575.75
825.3692	619.8103	65535	64579.75
825.5138	621.9327	65535	64586
825.6584	624.0544	65535	64582.3
825.803	626.1756	65535	64584.65
825.9477	628.2961	65535	64580.9
826.0923	630.4159	65535	64582.8
826.237	632.5351	65535	64581
826.3816	634.6537	65535	64576.85
826.5263	636.7716	65535	64576.05
826.6709	638.8889	65535	64569.75
826.8156	641.0056	65535	64569.75
826.9603	643.1216	65535	64571.35
827.105	645.237	65535	64577
827.2497	647.3518	65535	64581.45
827.3944	649.4659	65535	64590.45
827.5391	651.5793	65535	64587.65
827.6838	653.6922	65535	64586.25
827.8285	655.8043	65535	64582.8
827.9733	657.9159	65535	64581.8
828.118	660.0268	65535	64581.6
828.2627	662.137	65535	64576.2
828.4075	664.2466	65535	64574.2
828.5522	666.3556	65535	64573.85
828.697	668.4639	65535	64580.15
828.8418	670.5716	65535	64585.4
828.9865	672.6786	65535	64583.4
829.1313	674.785	65535	64573.35
829.2761	676.8907	65535	64578
829.4209	678.9958	65535	64585.35
829.5657	681.1002	65535	64575.65
829.7105	683.204	65535	64567.85
829.8553	685.3072	65535	64570.05
830.0001	687.4097	65535	64574.15
830.1449	689.5115	65535	64571.3
830.2898	691.6127	65535	64574.25
830.4346	693.7132	65535	64578.15
830.5794	695.8131	65535	64555.55
830.7243	697.9123	65535	64569.35
830.8691	700.0109	65535	64565.35
831.014	702.1089	65535	64571.7
831.1588	704.2061	65535	64571.9
831.3037	706.3028	65535	64570.5
831.4486	708.3987	65535	64571.1
831.5935	710.4941	65535	64578.2
831.7383	712.5887	65535	64573.4
831.8832	714.6827	65535	64573
832.0281	716.7761	65535	64579.5
832.173	718.8688	65535	64572.2
832.3179	720.9608	65535	64565.8
832.4628	723.0522	65535	64559.45
832.6077	725.1429	65535	64570.35
832.7527	727.233	65535	64571.4
832.8976	729.3224	65535	64569.8
833.0425	731.4112	65535	64569
833.1874	733.4993	65535	64568.2
833.3324	735.5867	65535	64572.55
833.4773	737.6735	65535	64567.55
833.6222	739.7596	65535	64569.35
833.7672	741.845	65535	64569.8
833.9122	743.9298	65535	64568
834.0571	746.014	65535	64570.45
834.2021	748.0974	65535	64564.55
834.347	750.1802	65535	64559.05
834.492	752.2624	65535	64566.4
834.637	754.3439	65535	64562.15
834.782	756.4247	65535	64553
834.9269	758.5048	65535	64563.95
835.0719	760.5843	65535	64562.6
835.2169	762.6631	65535	64562.45
835.3619	764.7413	65535	64566.6
835.5069	766.8188	65535	64563.5
835.6519	768.8956	65535	64565.95
835.7969	770.9718	65535	64565
835.9419	773.0473	65535	64563
836.0869	775.1221	65535	64567.7
836.232	777.1962	65535	64565.45
836.377	779.2697	65535	64562.65
836.522	781.3426	65535	64543.5
836.667	783.4147	65535	64566.05
836.8121	785.4862	65535	64570.3
836.9571	787.557	65535	64562.25
837.1021	789.6271	65535	64559.6
837.2472	791.6966	65535	64559.6
837.3922	793.7654	65535	64562.5
837.5373	795.8335	65535	64561.8
837.6823	797.901	65535	64565.45
837.8274	799.9678	65535	64560.6
837.9724	802.0339	65535	64558
838.1175	804.0993	65535	64549.9
838.2626	806.1641	65535	64565.1
838.4076	808.2282	65534.75	64564.05
838.5527	810.2916	65531.25	64558.8
838.6978	812.3544	65535	64569.6
838.8428	814.4164	65530.6	64561.3
838.9879	816.4778	65528.55	64554.35
839.133	818.5385	65528.15	64551.55
839.2781	820.5986	65527.45	64555.85
839.4232	822.658	65531.4	64557.75
839.5682	824.7166	65532.55	64558.7
839.7133	826.7747	65518.95	64542.6
839.8584	828.832	65520.3	64544.75
840.0035	830.8886	65529.25	64554.15
840.1486	832.9446	65532.7	64555.15
840.2937	834.9999	65490.1	64516
840.4388	837.0545	65517.15	64538.5
840.5839	839.1085	65527.95	64555.5
840.729	841.1618	65522.35	64547.5
840.8741	843.2143	65490	64514.4
841.0192	845.2662	65498.35	64529.2
841.1643	847.3175	65518.35	64543.65
841.3095	849.368	65443.9	64470.05
841.4546	851.4179	65502.3	64528.2
841.5997	853.467	65452.15	64474.2
841.7448	855.5155	65479.9	64505.2
841.8899	857.5633	65435.3	64461.9
842.0351	859.6105	65429	64453.85
842.1802	861.6569	65454.85	64478.2
842.3253	863.7027	65388.2	64409.05
842.4704	865.7478	65418.6	64438.6
842.6156	867.7922	65403.85	64432.65
842.7607	869.8359	65424.35	64449.5
842.9058	871.8789	65362.95	64386.45
843.0509	873.9212	65411.4	64403.35
843.1961	875.9629	65424.45	64449.15
843.3412	878.0039	65420.15	64441.75
843.4863	880.0441	65399.9	64426
843.6315	882.0837	65399.8	64426.3
843.7766	884.1226	65389.8	64412.1
843.9218	886.1609	65371.8	64396.75
844.0669	888.1984	65343.8	64367.4
844.212	890.2352	65391.55	64415.85
844.3572	892.2714	65325.15	64343.6
844.5023	894.3069	65366.75	64390.65
844.6475	896.3416	65304.5	64325.7
844.7926	898.3757	65297.7	64319.2
844.9377	900.4091	65182.85	64203.15
845.0829	902.4418	65341.7	64358.55
845.228	904.4739	65251.65	64267.45
845.3732	906.5052	65267.9	64288.4
845.5183	908.5358	65219.1	64241.65
845.6635	910.5658	65184.5	64204.25
845.8086	912.595	65175.35	64196.95
845.9538	914.6236	65071	64093.7
846.0989	916.6515	65231.75	64254.95
846.2441	918.6786	65070.4	64092.75
846.3892	920.7051	65111.7	64132.25
846.5344	922.7309	65085.45	64108.75
846.6795	924.756	65107.35	64130.5
846.8246	926.7804	65065.6	64088.6
846.9698	928.8041	64969.25	63992.05
847.1149	930.8272	65052.8	64074.95
847.2601	932.8495	65050.2	64068.9
847.4052	934.8711	64963.35	63980.7
847.5504	936.892	64919.35	63942.45
847.6955	938.9123	64942.8	63962.35
847.8407	940.9318	64903.2	63927.4
847.9858	942.9506	64899.9	63923.35
848.131	944.9688	64908.45	63933.35
848.2761	946.9862	64779.55	63800.4
848.4213	949.003	64833.35	63854.75
848.5664	951.019	64717.4	63742.3
848.7115	953.0344	64746.05	63766.15
848.8567	955.0491	64717.8	63739.85
849.0018	957.063	64763.2	63788.95
849.147	959.0763	64767.75	63785.25
849.2921	961.0888	64676.3	63696.9
849.4373	963.1007	64747.2	63772.05
849.5824	965.1119	64741.45	63777.8
849.7275	967.1223	64669.8	63711.7
849.8727	969.1321	64757.25	63801.25
850.0178	971.1412	64656.25	63688.2
850.1629	973.1495	64577.55	63605.6
850.3081	975.1572	64661.1	63631.4
850.4532	977.1641	64576.15	63598.7
850.5983	979.1704	64576.6	63598.85
850.7435	981.1759	64582.3	63600.7
850.8886	983.1808	64491.7	63514.9
851.0337	985.1849	64515.1	63527.35
851.1788	987.1884	64542.9	63563.5
851.324	989.1911	64621.5	63647.9
851.4691	991.1932	64324.2	63355.45
851.6142	993.1945	64423.55	63450
851.7593	995.1951	64490.9	63515.35
851.9045	997.1951	64311.85	63329.05
852.0496	999.1943	64260.95	63287.9
852.1947	1001.1928	64157.85	63181.35
852.3398	1003.1906	64232.55	63259.05
852.4849	1005.1877	63833.6	62861.15
852.63	1007.1841	63740.1	62766.3
852.7751	1009.1798	63747.3	62775.25
852.9202	1011.1748	63713.75	62738.1
853.0653	1013.1691	63610.8	62632.7
853.2104	1015.1627	62485.9	61511.5
853.3555	1017.1556	63107.5	62134.45
853.5006	1019.1477	63223.3	62253.9
853.6457	1021.1392	62741.55	61780.25
853.7908	1023.1299	61951.25	60989.25
853.9359	1025.12	62479.25	61526.1
854.081	1027.1093	62112.15	61168.95
854.2261	1029.0979	62082.55	61146.35
854.3712	1031.0859	61984.05	61035.9
854.5163	1033.0731	61310.85	60351.8
854.6613	1035.0596	61703.9	60739.65
854.8064	1037.0454	61417	60448
854.9515	1039.0304	61068.65	60095.35
855.0965	1041.0148	60051.75	59084
855.2416	1042.9985	60200.25	59229.7
855.3867	1044.9814	60827.95	59858.7
855.5317	1046.9636	59807.55	58838.4
855.6768	1048.9452	60033.4	59069.95
855.8219	1050.926	59786	58817
855.9669	1052.9061	59735.7	58763.1
856.112	1054.8855	59774.15	58804.4
856.257	1056.8642	59384.15	58409.75
856.4021	1058.8421	58908	57927.25
856.5471	1060.8194	59002.75	58033.75
856.6921	1062.7959	58494.5	57521.1
856.8372	1064.7717	59125.65	58153.1
856.9822	1066.7469	58697.05	57723.7
857.1272	1068.7213	58700.95	57729.3
857.2723	1070.695	58238.7	57266.7
857.4173	1072.6679	57662.8	56690.85
857.5623	1074.6402	58057.7	57087
857.7073	1076.6117	57560.6	56584.6
857.8523	1078.5826	57579.45	56607
857.9973	1080.5527	57625.8	56651
858.1423	1082.5221	57280.25	56305.95
858.2873	1084.4908	57538.9	56569.5
858.4323	1086.4587	57400	56427.5
858.5773	1088.426	57457.9	56484.5
858.7223	1090.3925	57364.95	56390.1
858.8673	1092.3584	57125.5	56159.9
859.0123	1094.3235	56488.55	55518.35
859.1573	1096.2879	56370.15	55399.15
859.3022	1098.2515	56435.1	55466.5
859.4472	1100.2145	56163.35	55194.85
859.5922	1102.1767	56007.65	55037.85
859.7371	1104.1382	56257.85	55289.35
859.8821	1106.099	56142.7	55172.6
860.027	1108.0591	56080.1	55114.5
860.172	1110.0185	55507.35	54538.05
860.3169	1111.9771	56063.1	55091.75
860.4619	1113.9351	55537.15	54568.1
860.6068	1115.8923	54967.55	53998.5
860.7517	1117.8488	54443.9	53474.9
860.8967	1119.8045	53802.25	52835.65
861.0416	1121.7596	53893.65	52924.35
861.1865	1123.7139	53554.85	52591.5
861.3314	1125.6675	53486.15	52517.15
861.4763	1127.6204	53343.75	52377.15
861.6212	1129.5726	52991.5	52020.55
861.7661	1131.524	53193.55	52226.15
861.911	1133.4748	53176.65	52207.85
862.0559	1135.4248	52862.5	51891.15
862.2008	1137.3741	52769.95	51799.55
862.3457	1139.3226	52654.65	51686.65
862.4905	1141.2705	52603.45	51637.8
862.6354	1143.2176	52301.2	51329.85
862.7803	1145.164	52041.35	51075.15
862.9251	1147.1097	52043.05	51073.1
863.07	1149.0546	51929.45	50958.15
863.2148	1150.9989	51888.15	50922.8
863.3597	1152.9424	51501.9	50534.15
863.5045	1154.8852	51333.3	50369.35
863.6493	1156.8272	50997.15	50030
863.7942	1158.7686	51089.25	50114.35
863.939	1160.7092	50581.1	49611.75
864.0838	1162.6491	50396.2	49424.05
864.2286	1164.5883	50511.6	49544
864.3734	1166.5267	50235.9	49267.45
864.5182	1168.4644	50408.85	49442.65
864.663	1170.4014	50377	49405.9
864.8078	1172.3377	50638.9	49677.4
864.9526	1174.2732	50781.4	49818.6
865.0974	1176.2081	50695.3	49729.4
865.2421	1178.1421	50675.05	49708.8
865.3869	1180.0755	50915.1	49954.45
865.5317	1182.0082	50674.15	49708.85
865.6764	1183.9401	50577.8	49611.4
865.8212	1185.8713	50072.5	49114.05
865.9659	1187.8017	49893.65	48945.45
866.1106	1189.7315	49597.55	48655.2
866.2554	1191.6605	49080.65	48138.55
866.4001	1193.5888	48721.85	47774.45
866.5448	1195.5163	48460.4	47506.05
866.6895	1197.4432	48265.2	47305.4
866.8342	1199.3693	48082.3	47123.2
866.9789	1201.2947	47848.65	46876.2
867.1236	1203.2193	47720.4	46759
867.2683	1205.1432	47541.85	46579.1
867.413	1207.0664	47371.3	46409.05
867.5576	1208.9889	47264.1	46300.05
867.7023	1210.9106	47240	46278.85
867.847	1212.8316	47022.4	46060.15
867.9916	1214.7519	47026.45	46056.45
868.1363	1216.6715	46923.8	45961.6
868.2809	1218.5903	46751.75	45788.5
868.4255	1220.5084	46601.25	45641.25
868.5701	1222.4257	46514.6	45555.65
868.7148	1224.3424	46193.9	45234.35
868.8594	1226.2583	46150.15	45185.6
869.004	1228.1735	46118	45160.15
869.1486	1230.0879	45922.35	44959.95
869.2932	1232.0016	45968.8	45007.9
869.4377	1233.9146	45866.75	44904.95
869.5823	1235.8269	45660.9	44703.05
869.7269	1237.7384	45463.1	44499.05
869.8715	1239.6492	45073.1	44113.05
870.016	1241.5592	44943	43984.45
870.1606	1243.4686	44652.5	43690.35
870.3051	1245.3772	44514.55	43553.4
870.4496	1247.285	44283.05	43327.35
870.5941	1249.1922	44092.1	43132.5
870.7387	1251.0986	44007.05	43048.8
870.8832	1253.0042	43770.15	42809.55
871.0277	1254.9092	43797.65	42834.95
871.1722	1256.8134	43686.35	42733.45
871.3167	1258.7169	43776.75	42818.25
871.4611	1260.6196	43766.5	42811.65
871.6056	1262.5216	43912.45	42953.2
871.7501	1264.4229	43928.65	42971.4
871.8945	1266.3234	44002.75	43041.85
872.039	1268.2232	43950.9	42990.2
872.1834	1270.1223	43786.35	42825.45
872.3278	1272.0207	43655.75	42694.7
872.4723	1273.9183	43502.15	42538.5
872.6167	1275.8151	43346.9	42393
872.7611	1277.7113	43215.1	42259.05
872.9055	1279.6067	42871.2	41911.6
873.0499	1281.5014	42650.05	41689.35
873.1943	1283.3953	42460.95	41502.85
873.3386	1285.2885	42288.45	41334
873.483	1287.181	42121.1	41164.3
873.6274	1289.0727	42127.5	41172.55
873.7717	1290.9637	41996.25	41043.6
873.9161	1292.854	42091.4	41135
874.0604	1294.7435	42093.6	41134.95
874.2047	1296.6323	42173	41215.85
874.349	1298.5204	42293.4	41336.85
874.4933	1300.4077	42436.3	41477.7
874.6376	1302.2943	42522.05	41567.65
874.7819	1304.1802	42591.3	41636.9
874.9262	1306.0653	42439.05	41480.8
875.0705	1307.9497	42158.2	41204.2
875.2147	1309.8333	42018.7	41064.45
875.359	1311.7162	41908.05	40950.25
875.5032	1313.5984	41935.85	40978.45
875.6475	1315.4798	41895.5	40926.55
875.7917	1317.3605	41959.15	40999.75
875.9359	1319.2405	42031.35	41076.1
876.0801	1321.1197	41978.15	41021.5
876.2243	1322.9982	41797.95	40836.65
876.3685	1324.876	41810	40852.7
876.5127	1326.753	41626.4	40669.3
876.6569	1328.6293	41606.35	40646.85
876.801	1330.5048	41603.35	40644.35
876.9452	1332.3796	41431.9	40473.55
877.0893	1334.2537	41358.4	40379.05
877.2335	1336.127	41162.35	40209.5
877.3776	1337.9996	41054.75	40100
877.5217	1339.8714	40901.15	39943.55
877.6658	1341.7426	40854.55	39852.6
877.8099	1343.6129	40677.25	39718.45
877.954	1345.4826	40508.95	39550.85
878.0981	1347.3515	40478.55	39523.4
878.2422	1349.2196	40330.65	39374.05
878.3862	1351.087	40343.95	39387.5
878.5303	1352.9537	40222.85	39263.9
878.6743	1354.8197	40354.95	39397.85
878.8184	1356.6849	40400.15	39445.15
878.9624	1358.5493	40367.2	39411.8
879.1064	1360.4131	40318.65	39364.4
879.2504	1362.276	40139.9	39185.05
879.3944	1364.1383	39894.05	38940.5
879.5384	1365.9998	39582.4	38622.25
879.6823	1367.8606	39226.35	38270.15
879.8263	1369.7206	38836.6	37879.9
879.9702	1371.5799	38579.35	37620.85
880.1142	1373.4384	38348.65	37394.9
880.2581	1375.2962	38186.1	37231.65
880.402	1377.1533	37749.45	36797.3
880.5459	1379.0096	37303.3	36354.6
880.6898	1380.8652	37004.65	36055.2
880.8337	1382.7201	36725.1	35775.4
880.9776	1384.5742	36335.55	35381.9
881.1215	1386.4275	36066.35	35113.65
881.2653	1388.2802	35867.25	34915.15
881.4092	1390.132	35665.8	34713.8
881.553	1391.9832	35586.3	34634.45
881.6968	1393.8336	35273.1	34317.2
881.8406	1395.6832	35195.45	34239.3
881.9844	1397.5322	35006.3	34052.1
882.1282	1399.3803	34890.05	33931.85
882.272	1401.2278	34709.75	33759.15
882.4158	1403.0745	34607.3	33657.1
882.5595	1404.9204	34447.1	33497.1
882.7033	1406.7656	34414.1	33460.55
882.847	1408.6101	34273.3	33318.65
882.9908	1410.4538	34159.4	33204.5
883.1345	1412.2968	34060.35	33108.45
883.2782	1414.139	33932	32980.55
883.4219	1415.9805	34007.1	33054.5
883.5656	1417.8213	33910.1	32940.45
883.7092	1419.6613	33932.85	32981.05
883.8529	1421.5006	34006.6	33057.15
883.9965	1423.3391	34196.3	33245.8
884.1402	1425.1769	34342.7	33390.9
884.2838	1427.0139	34843.1	33892.65
884.4274	1428.8502	35287.4	34333.8
884.571	1430.6858	35741.55	34792.75
884.7146	1432.5206	36007.2	35056.6
884.8582	1434.3547	36198	35249
885.0018	1436.188	36207.75	35255.35
885.1453	1438.0206	36068.8	35117.9
885.2889	1439.8524	35794.1	34843
885.4324	1441.6835	35634.5	34684.85
885.5759	1443.5139	35528.25	34575.1
885.7194	1445.3435	35306.75	34357.05
885.8629	1447.1724	35252.95	34304.55
886.0064	1449.0005	35086.55	34138.2
886.1499	1450.8279	34976.95	34029.4
886.2933	1452.6545	34847.3	33899.05
886.4368	1454.4804	34841.65	33891.6
886.5802	1456.3056	34758	33805.55
886.7237	1458.13	34627.45	33683.5
886.8671	1459.9536	34386.5	33439.35
887.0105	1461.7766	34020.35	33069.2
887.1539	1463.5987	33516.05	32565.85
887.2972	1465.4202	33040.6	32090.35
887.4406	1467.2409	32638.95	31692
887.584	1469.0608	32400.85	31453.8
887.7273	1470.88	32093.35	31146.3
887.8706	1472.6984	31823.85	30876.45
888.0139	1474.5161	31495.2	30545.45
888.1572	1476.3331	31256.5	30310.25
888.3005	1478.1493	31124.75	30177.55
888.4438	1479.9648	31012.65	30061.45
888.5871	1481.7795	30846.55	29896.45
888.7303	1483.5935	30760.3	29812.15
888.8736	1485.4067	30583.9	29634.75
889.0168	1487.2192	30565.85	29617.4
889.16	1489.031	30435.6	29487.45
889.3032	1490.842	30315.9	29369.5
889.4464	1492.6522	30276.6	29327.35
889.5896	1494.4618	30209.15	29261.25
889.7327	1496.2705	30113.75	29168.6
889.8759	1498.0785	30006.5	29060.2
890.019	1499.8858	29941.75	28994.3
890.1622	1501.6924	29826.5	28880
890.3053	1503.4981	29801.5	28854
890.4484	1505.3032	29683.3	28734.7
890.5914	1507.1075	29613.95	28662.9
890.7345	1508.911	29533	28587.95
890.8776	1510.7138	29420.45	28472.55
891.0206	1512.5159	29321.85	28376.9
891.1637	1514.3172	29205.6	28261.6
891.3067	1516.1178	29078.9	28137.35
891.4497	1517.9176	29059.1	28111.7
891.5927	1519.7166	28895.75	27952.75
891.7357	1521.515	28796.25	27850.05
891.8786	1523.3126	28744.15	27801.3
892.0216	1525.1094	28609	27661.55
892.1645	1526.9055	28524.35	27582.15
892.3074	1528.7008	28396.55	27453.75
892.4503	1530.4954	28239.15	27291.3
892.5932	1532.2893	28195.15	27256.65
892.7361	1534.0824	28040.3	27098.35
892.879	1535.8747	28041.2	27106.05
893.0218	1537.6663	27871	26934.75
893.1647	1539.4572	27787.75	26848.1
893.3075	1541.2473	27756.35	26816.9
893.4503	1543.0367	27687.2	26750.65
893.5931	1544.8253	27521.6	26578.95
893.7359	1546.6132	27503.1	26563.3
893.8787	1548.4003	27347.6	26398.8
894.0214	1550.1867	27336.75	26391.6
894.1642	1551.9723	27271.25	26330.55
894.3069	1553.7572	27247.9	26312.05
894.4496	1555.5414	27173.7	26238.65
894.5923	1557.3247	27156.9	26223.3
894.735	1559.1074	27125.8	26198.15
894.8777	1560.8893	27071.55	26144.75
895.0204	1562.6705	27042.2	26111.45
895.163	1564.4509	27058.7	26129.1
895.3056	1566.2305	27031.65	26103.7
895.4482	1568.0094	27120.25	26193.4
895.5908	1569.7876	27140.45	26215.1
895.7334	1571.565	27076.45	26144.55
895.876	1573.3417	27154.85	26225.25
896.0186	1575.1176	27052.85	26122.65
896.1611	1576.8928	26965.05	26038.85
896.3036	1578.6672	26821.9	25900.3
896.4461	1580.4409	26648	25730.4
896.5886	1582.2138	26434.45	25508.85
896.7311	1583.986	26251.3	25327.2
896.8736	1585.7575	26131.85	25204.35
897.0161	1587.5282	25982.05	25060.3
897.1585	1589.2981	25905.2	24984.35
897.3009	1591.0673	25720.15	24800.85
897.4433	1592.8358	25683.15	24762.25
897.5857	1594.6035	25643.35	24714.7
897.7281	1596.3704	25563.2	24635.35
897.8705	1598.1366	25463.6	24539.4
898.0128	1599.9021	25436.75	24515.65
898.1551	1601.6668	25326.05	24401.25
898.2975	1603.4308	25330.95	24404.9
898.4398	1605.194	25346.4	24417.15
898.5821	1606.9564	25380.6	24464.9
898.7243	1608.7182	25450.7	24536.8
898.8666	1610.4791	25488.45	24581.05
899.0088	1612.2394	25543.65	24638.3
899.1511	1613.9988	25640.35	24731.35
899.2933	1615.7576	25776.5	24861.1
899.4355	1617.5156	25993.2	25066
899.5776	1619.2728	26185.75	25258.45
899.7198	1621.0293	26242.85	25318.2
899.862	1622.785	26259.65	25339.7
900.0041	1624.54	26118.45	25201.7
900.1462	1626.2942	25936.1	25020.75
900.2883	1628.0477	25609.7	24692.55
900.4304	1629.8005	25353.95	24437.1
900.5725	1631.5525	25112.05	24198.2
900.7145	1633.3037	24855.4	23940.05
900.8566	1635.0542	24655.4	23741.05
900.9986	1636.804	24458.6	23541.35
901.1406	1638.553	24347.85	23384.35
901.2826	1640.3013	24183.7	23268.85
901.4245	1642.0488	24106.75	23188.8
901.5665	1643.7955	24072.8	23158
901.7085	1645.5416	24027.7	23114.7
901.8504	1647.2868	24063.7	23146.35
901.9923	1649.0313	24033.95	23118.4
902.1342	1650.7751	24155.55	23234.9
902.2761	1652.5181	24264.2	23348.55
902.4179	1654.2604	24362.25	23450.8
902.5598	1656.0019	24631.8	23717.6
902.7016	1657.7427	24894.3	23981.3
902.8434	1659.4828	25159.35	24242
902.9852	1661.222	25307.15	24387.85
903.127	1662.9606	25295.65	24379.1
903.2687	1664.6984	25101.95	24184.15
903.4105	1666.4354	24813.5	23892.15
903.5522	1668.1717	24307.8	23385.7
903.6939	1669.9072	23711.85	22789.5
903.8356	1671.642	23375.35	22451.95
903.9773	1673.3761	23041.35	22120.85
904.119	1675.1094	22741.15	21826.05
904.2606	1676.8419	22513.9	21598.4
904.4022	1678.5737	22293.75	21374.85
904.5439	1680.3048	22135.95	21214.65
904.6855	1682.0351	21961.45	21040.95
904.827	1683.7646	21815.1	20894.7
904.9686	1685.4934	21701.05	20783.85
905.1101	1687.2215	21602.25	20684.8
905.2517	1688.9488	21450.75	20534.85
905.3932	1690.6754	21389.65	20474.75
905.5347	1692.4012	21329.7	20413.4
905.6761	1694.1263	21254.9	20337
905.8176	1695.8506	21152.3	20234
905.9591	1697.5742	21096.5	20182.75
906.1005	1699.297	20994.75	20084.9
906.2419	1701.0191	20859.35	19949.2
906.3833	1702.7404	20788.35	19879.05
906.5246	1704.461	20673.8	19760.7
906.666	1706.1808	20595.8	19682.7
906.8073	1707.8999	20554.6	19642.6
906.9487	1709.6182	20492.15	19584.4
907.09	1711.3358	20385.55	19480.7
907.2313	1713.0527	20352.2	19450.1
907.3725	1714.7688	20245.55	19334.75
907.5138	1716.4841	20150.2	19238.75
907.655	1718.1987	20091.05	19176.5
907.7962	1719.9126	20074.7	19168.9
907.9374	1721.6257	19982.95	19075.1
908.0786	1723.338	19943.1	19036.55
908.2198	1725.0496	19802.95	18895.3
908.3609	1726.7605	19770.55	18862.6
908.502	1728.4706	19736.8	18826.95
908.6431	1730.18	19608.55	18700.4
908.7842	1731.8886	19549.15	18646.7
908.9253	1733.5964	19530.1	18605
909.0664	1735.3036	19475.9	18565.25
909.2074	1737.0099	19406.3	18502.3
909.3484	1738.7156	19353.55	18450
909.4894	1740.4204	19273.35	18364.6
909.6304	1742.1246	19207.55	18300.55
909.7714	1743.8279	19159.7	18253.6
909.9123	1745.5306	19110.7	18205.65
910.0532	1747.2325	19076.75	18171.05
910.1941	1748.9336	18981.95	18076.1
910.335	1750.634	18905.7	17997.6
910.4759	1752.3336	18897.15	17992.55
910.6168	1754.0325	18850.65	17948.45
910.7576	1755.7307	18796.4	17894
910.8984	1757.4281	18810.4	17906.65
911.0392	1759.1247	18753.95	17835.25
911.18	1760.8206	18706.75	17791.1
911.3208	1762.5158	18661	17748.45
911.4615	1764.2102	18564.3	17654.55
911.6022	1765.9039	18508.4	17602.4
911.7429	1767.5968	18459.1	17556.7
911.8836	1769.289	18407.45	17503.9
912.0243	1770.9804	18381.2	17473.45
912.1649	1772.6711	18342.75	17433.75
912.3056	1774.361	18286.55	17377.3
912.4462	1776.0502	18281.8	17373.3
912.5868	1777.7386	18235.2	17325.95
912.7274	1779.4263	18162.7	17257.45
912.8679	1781.1132	18128.65	17227.25
913.0084	1782.7994	18078.65	17178.6
913.149	1784.4849	18034.25	17134.7
913.2895	1786.1696	17971.65	17063.5
913.4299	1787.8535	17931.4	17030.8
913.5704	1789.5367	17843.95	16946.55
913.7108	1791.2192	17848.3	16947.85
913.8513	1792.9009	17789.65	16859.2
913.9917	1794.5818	17735.15	16827.35
914.132	1796.2621	17651.4	16746.35
914.2724	1797.9415	17626.9	16720.8
914.4128	1799.6202	17562.75	16658.55
914.5531	1801.2982	17565.9	16660.3
914.6934	1802.9755	17538.7	16629.1
914.8337	1804.6519	17484.4	16578.05
914.9739	1806.3277	17407.65	16506.6
915.1142	1808.0027	17367.15	16467.65
915.2544	1809.6769	17320.05	16421.85
915.3946	1811.3504	17264.45	16367.75
915.5348	1813.0231	17215.55	16314.7
915.675	1814.6951	17230.75	16331.55
915.8151	1816.3664	17200.1	16293.8
915.9553	1818.0369	17163.35	16260.05
916.0954	1819.7067	17063.25	16156.05
916.2355	1821.3757	17031.4	16125.75
916.3755	1823.044	17004.55	16099.65
916.5156	1824.7115	16968.1	16061.8
916.6556	1826.3783	16878.3	15973.8
916.7956	1828.0443	16837.4	15936.25
916.9356	1829.7096	16839.1	15935.35
917.0756	1831.3741	16772.4	15867.4
917.2155	1833.0379	16765.25	15863.15
917.3555	1834.701	16684.95	15785.4
917.4954	1836.3633	16640.3	15738.8
917.6353	1838.0248	16627.45	15727.05
917.7751	1839.6856	16553	15651.55
917.915	1841.3457	16551.2	15648.7
918.0548	1843.005	16512.5	15610.35
918.1946	1844.6636	16491.4	15586.3
918.3344	1846.3214	16430.9	15526.75
918.4742	1847.9785	16437.85	15538.25
918.6139	1849.6349	16405.1	15499.55
918.7537	1851.2904	16377.35	15459.6
918.8934	1852.9453	16339.65	15434.05
919.0331	1854.5994	16254.95	15346.85
919.1727	1856.2528	16285.5	15376.3
919.3124	1857.9054	16211.35	15308.2
919.452	1859.5572	16173.15	15272.75
919.5916	1861.2083	16155.15	15250.85
919.7312	1862.8587	16141.4	15236.4
919.8708	1864.5084	16117	15209.8
920.0103	1866.1572	16045.6	15138.7
920.1498	1867.8054	15969.1	15062.35
920.2893	1869.4528	15961.5	15053.5
920.4288	1871.0994	15890.45	14983.05
920.5683	1872.7453	15840.5	14935.1
920.7077	1874.3905	15832	14922.75
920.8471	1876.0349	15757.55	14852.1
920.9865	1877.6786	15757.25	14850.25
921.1259	1879.3215	15757.7	14852.7
921.2653	1880.9637	15691.8	14787.35
921.4046	1882.6051	15673.65	14770
921.5439	1884.2458	15640.85	14736.5
921.6832	1885.8858	15569.3	14669.15
921.8225	1887.525	15526.05	14622.25
921.9617	1889.1634	15504.65	14599.8
922.101	1890.8011	15413.85	14509
922.2402	1892.4381	15399.75	14495.45
922.3794	1894.0743	15384.9	14480.5
922.5185	1895.7098	15294.05	14389.75
922.6577	1897.3446	15304.95	14402.7
922.7968	1898.9786	15275.35	14368.1
922.9359	1900.6118	15247.1	14346.05
923.075	1902.2443	15156.25	14252.55
923.214	1903.8761	15132.05	14228.15
923.3531	1905.5071	15060.2	14156.35
923.4921	1907.1374	14994.25	14091.4
923.6311	1908.7669	14948.15	14045.9
923.77	1910.3957	14911.15	14012.75
923.909	1912.0237	14848.4	13946.25
924.0479	1913.651	14814.65	13911.5
924.1868	1915.2776	14782.4	13882
924.3257	1916.9034	14707.1	13806.95
924.4646	1918.5285	14658.35	13761.05
924.6034	1920.1528	14606.95	13704.35
924.7422	1921.7764	14578.25	13676.3
924.881	1923.3992	14511.05	13609.55
925.0198	1925.0213	14435.75	13533.4
925.1586	1926.6427	14373.15	13475.5
925.2973	1928.2633	14411.8	13441.95
925.436	1929.8832	14323.7	13419.7
925.5747	1931.5023	14259.2	13356.6
925.7134	1933.1207	14203.95	13300.45
925.852	1934.7383	14203.3	13302.05
925.9906	1936.3552	14143.65	13244.55
926.1292	1937.9714	14105.45	13206.15
926.2678	1939.5868	14054.5	13150.3
926.4064	1941.2015	14003.2	13099.9
926.5449	1942.8154	13944.35	13041.25
926.6834	1944.4286	13886.2	12981.75
926.8219	1946.041	13828.6	12907.25
926.9604	1947.6528	13771.45	12863.2
927.0988	1949.2637	13749.6	12847.2
927.2372	1950.8739	13709.75	12808.2
927.3756	1952.4834	13653.75	12754.3
927.514	1954.0921	13610.3	12708.35
927.6523	1955.7001	13586.5	12683
927.7907	1957.3074	13533.55	12638.1
927.929	1958.9139	13470.35	12577.2
928.0673	1960.5197	13460.85	12562.5
928.2055	1962.1247	13351.8	12451
928.3438	1963.729	13306.95	12409.7
928.482	1965.3325	13275.7	12355.5
928.6202	1966.9353	13246.15	12352.2
928.7584	1968.5374	13214.7	12317.75
928.8965	1970.1387	13161.35	12262.9
929.0346	1971.7393	13089.3	12192.45
929.1727	1973.3392	13054.5	12157.15
929.3108	1974.9383	12996.75	12101.05
929.4489	1976.5366	12975.75	12082.4
929.5869	1978.1342	12938.2	12044.05
929.7249	1979.7311	12915.35	12021.55
929.8629	1981.3273	12831.85	11937.8
930.0009	1982.9227	12823.4	11929.8
930.1388	1984.5173	12801.4	11909.9
930.2767	1986.1112	12756.6	11862.65
930.4146	1987.7044	12700.85	11807.6
930.5525	1989.2968	12642.25	11746.5
930.6904	1990.8885	12616.95	11720.4
930.8282	1992.4795	12616	11723.45
930.966	1994.0697	12540.05	11648.85
931.1038	1995.6592	12519.75	11628.8
931.2415	1997.2479	12461.3	11568.4
931.3793	1998.8359	12440	11548.7
931.517	2000.4232	12398.8	11510.1
931.6547	2002.0097	12349	11464
931.7923	2003.5955	12281.35	11392.75
931.93	2005.1805	12286.55	11395.1
932.0676	2006.7648	12229.5	11341.15
932.2052	2008.3484	12234.4	11344
932.3427	2009.9312	12202.3	11314.1
932.4803	2011.5133	12141.65	11257.7
932.6178	2013.0946	12106.2	11219.45
932.7553	2014.6752	12078.3	11191.35
932.8928	2016.2551	12036.1	11146.45
933.0302	2017.8342	11997.75	11108.75
933.1676	2019.4126	11937.35	11051.05
933.305	2020.9902	11924.1	11039.8
933.4424	2022.5672	11894.4	11006.8
933.5798	2024.1433	11884.75	10992
933.7171	2025.7188	11814.9	10929.9
933.8544	2027.2935	11800.45	10913.8
933.9917	2028.8674	11753.25	10870.7
934.129	2030.4406	11714.2	10830.15
934.2662	2032.0131	11665.5	10780.05
934.4034	2033.5849	11625.9	10737.25
934.5406	2035.1559	11596.6	10711.55
934.6778	2036.7261	11596.8	10710.2
934.8149	2038.2957	11563.2	10670.9
934.952	2039.8645	11559.35	10668.05
935.0891	2041.4325	11532	10638.2
935.2262	2042.9998	11480.5	10592.35
935.3632	2044.5664	11433.95	10544.55
935.5002	2046.1323	11404.75	10520
935.6372	2047.6974	11357.7	10472.1
935.7742	2049.2617	11334.6	10449.2
935.9111	2050.8254	11335.05	10443.6
936.048	2052.3883	11317.15	10426.2
936.1849	2053.9504	11287.15	10397.45
936.3218	2055.5118	11230.45	10340.5
936.4586	2057.0725	11162.5	10269.15
936.5955	2058.6325	11142.8	10254.4
936.7323	2060.1917	11117.6	10232.15
936.869	2061.7502	11120.8	10232.7
937.0058	2063.3079	11071.15	10185.65
937.1425	2064.8649	11022.55	10133.05
937.2792	2066.4212	11011.25	10121.3
937.4159	2067.9767	10967.3	10079.45
937.5525	2069.5315	10928.9	10040.15
937.6891	2071.0856	10874.4	9986.75
937.8257	2072.6389	10808.4	9920.35
937.9623	2074.1915	10751.95	9867.95
938.0989	2075.7433	10736.65	9846.65
938.2354	2077.2945	10716.8	9829.4
938.3719	2078.8448	10684.55	9794.95
938.5084	2080.3945	10656.3	9767.5
938.6448	2081.9434	10640.9	9749.1
938.7812	2083.4916	10581.85	9689.7
938.9176	2085.039	10560.3	9661.7
939.054	2086.5857	10532.65	9635.05
939.1903	2088.1317	10512.2	9614.8
939.3267	2089.677	10483.2	9585
939.463	2091.2215	10461.95	9565.7
939.5992	2092.7652	10450.2	9549.25
939.7355	2094.3083	10404.05	9506.95
939.8717	2095.8506	10379.45	9484.5
940.0079	2097.3921	10384.2	9489.7
940.1441	2098.933	10348.25	9455.4
940.2802	2100.4731	10343.05	9451.8
940.4163	2102.0124	10353.55	9453.3
940.5524	2103.5511	10288.65	9393.35
940.6885	2105.089	10266.4	9371.55
940.8245	2106.6261	10241.05	9348.45
940.9606	2108.1626	10205	9312.8
941.0965	2109.6983	10174.35	9255.25
941.2325	2111.2332	10140.5	9247.35
941.3684	2112.7675	10101.4	9204.75
941.5044	2114.301	10074.65	9180.7
941.6403	2115.8337	10069.95	9176.05
941.7761	2117.3657	10044.3	9152
941.912	2118.897	9997.5	9104.05
942.0478	2120.4276	9994.9	9093.75
942.1835	2121.9575	9937.1	9041.6
942.3193	2123.4866	9931.3	9033.55
942.455	2125.0149	9900.35	9004.45
942.5907	2126.5426	9832.55	8942
942.7264	2128.0695	9834.65	8942.1
942.8621	2129.5956	9802.1	8916.25
942.9977	2131.1211	9815.1	8921.55
943.1333	2132.6458	9787.15	8895.6
943.2689	2134.1698	9741.2	8846.9
943.4044	2135.693	9730.2	8830.65
943.54	2137.2155	9726.45	8830.35
943.6755	2138.7373	9690.3	8798.25
943.8109	2140.2584	9618.8	8730.9
943.9464	2141.7787	9606.4	8714.2
944.0818	2143.2983	9553.3	8666.5
944.2172	2144.8171	9516.75	8631.2
944.3526	2146.3353	9524	8633.95
944.4879	2147.8527	9488.75	8597.15
944.6232	2149.3693	9491.4	8597.05
944.7585	2150.8853	9421.8	8526.4
944.8938	2152.4005	9370.15	8474.05
945.029	2153.9149	9403.6	8507.35
945.1642	2155.4287	9431.75	8421.75
945.2994	2156.9417	9333.7	8438.3
945.4346	2158.454	9290.7	8398.05
945.5697	2159.9655	9268.6	8380.2
945.7048	2161.4764	9259.75	8370.7
945.8399	2162.9865	9236.55	8344.55
945.9749	2164.4958	9210.55	8318.85
946.1099	2166.0045	9162.15	8269.1
946.2449	2167.5124	9137.6	8245.8
946.3799	2169.0195	9117.2	8224.25
946.5148	2170.526	9142.25	8249.25
946.6498	2172.0317	9071.7	8177.4
946.7846	2173.5367	9077.9	8184.7
946.9195	2175.0409	9033.4	8142.75
947.0543	2176.5445	9028.75	8136.75
947.1891	2178.0473	8996.6	8101.65
947.3239	2179.5494	8953.9	8054.2
947.4587	2181.0507	8913.2	8019.7
947.5934	2182.5513	8915.85	8021.65
947.7281	2184.0512	8881.85	7986.5
947.8628	2185.5504	8842.55	7949.4
947.9974	2187.0488	8803.35	7914
948.132	2188.5465	8764.65	7876.8
948.2666	2190.0435	8748.95	7857.75
948.4012	2191.5397	8720.55	7826.9
948.5357	2193.0353	8711.6	7816.05
948.6702	2194.5301	8654.35	7755.5
948.8047	2196.0241	8646.3	7745.2
948.9392	2197.5175	8619.85	7721.35
949.0736	2199.0101	8577.2	7674.75
949.208	2200.502	8536.7	7644.3
949.3424	2201.9931	8519.45	7630.4
949.4767	2203.4835	8482	7591.05
949.611	2204.9733	8482.35	7576.1
949.7453	2206.4622	8449.55	7561.2
949.8796	2207.9505	8401.65	7509.65
950.0138	2209.438	8366.55	7481.5
950.148	2210.9248	8344	7452.9
950.2822	2212.4109	8311.3	7420.35
950.4164	2213.8962	8290.15	7392.95
950.5505	2215.3809	8289.55	7391.85
950.6846	2216.8648	8266.1	7366.65
950.8186	2218.3479	8243.75	7340.7
950.9527	2219.8304	8216.85	7312.05
951.0867	2221.3121	8187.65	7286.05
951.2207	2222.7931	8140	7241.6
951.3546	2224.2733	8125.9	7230.9
951.4886	2225.7529	8090.7	7194.5
951.6225	2227.2317	8071	7177.65
951.7563	2228.7098	8051.85	7161.8
951.8902	2230.1872	8011.55	7123.55
952.024	2231.6638	8013.05	7122.15
952.1578	2233.1397	7968.9	7076.75
952.2916	2234.6149	7941.6	7050.5
952.4253	2236.0894	7937.15	7047
952.559	2237.5632	7928.35	7034
952.6927	2239.0362	7870.3	6979.25
952.8263	2240.5085	7857.25	6963.3
952.9599	2241.9801	7818.7	6925.45
953.0935	2243.4509	7815.55	6922.9
953.2271	2244.921	7763.1	6865.1
953.3606	2246.3904	7732.75	6833.7
953.4941	2247.8591	7713	6817.9
953.6276	2249.3271	7675.4	6782.05
953.7611	2250.7943	7651.15	6755.65
953.8945	2252.2608	7648	6752
954.0279	2253.7266	7614.5	6719.75
954.1612	2255.1917	7603.1	6708.2
954.2946	2256.656	7586.55	6694.1
954.4279	2258.1197	7551.75	6661.15
954.5612	2259.5826	7530.95	6637.9
954.6944	2261.0447	7521.85	6628.55
954.8276	2262.5062	7497.25	6600.1
954.9608	2263.9669	7482.35	6581.75
955.094	2265.4269	7482.25	6585.6
955.2271	2266.8862	7431.55	6534.8
955.3602	2268.3448	7406.2	6513.6
955.4933	2269.8026	7417	6524
955.6264	2271.2598	7392.4	6499.45
955.7594	2272.7162	7371.9	6480.4
955.8924	2274.1719	7332.05	6436.05
956.0253	2275.6268	7324.85	6427.8
956.1583	2277.0811	7318.35	6421.1
956.2912	2278.5346	7299.45	6406.75
956.4241	2279.9874	7264.4	6371.3
956.5569	2281.4395	7256.05	6366.7
956.6897	2282.8908	7234.55	6337.95
956.8225	2284.3414	7221.25	6325.85
956.9553	2285.7914	7192.3	6296.2
957.088	2287.2406	7166	6268.8
957.2207	2288.689	7167.7	6272.8
957.3534	2290.1368	7166.55	6264.5
957.486	2291.5838	7140.55	6238.7
957.6186	2293.0302	7107.7	6208.6
957.7512	2294.4758	7064.15	6166.65
957.8838	2295.9206	7035.55	6138.5
958.0163	2297.3648	7002.05	6109.45
958.1488	2298.8082	6999.3	6104.1
958.2813	2300.251	7000.75	6104.5
958.4137	2301.693	6982.25	6082.95
958.5461	2303.1343	6969.65	6072.3
958.6785	2304.5748	6951.05	6055.1
958.8108	2306.0147	6913.9	6023.65
958.9432	2307.4538	6885.6	5994.35
959.0754	2308.8922	6857.6	5967.8
959.2077	2310.3299	6849.15	5958.75
959.3399	2311.7669	6819.5	5929.6
959.4721	2313.2031	6800.4	5906.55
959.6043	2314.6387	6777.95	5885.6
959.7365	2316.0735	6749.15	5854.05
959.8686	2317.5076	6759.75	5866.9
960.0006	2318.941	6733.9	5837.95
960.1327	2320.3737	6701.35	5804.45
960.2647	2321.8056	6675	5774.55
960.3967	2323.2369	6661.55	5764.75
960.5287	2324.6674	6638.5	5742.4
960.6606	2326.0972	6634.1	5739.3
960.7925	2327.5263	6602.8	5709.7
960.9244	2328.9547	6598.05	5700.55
961.0562	2330.3823	6569.75	5670.6
961.1881	2331.8092	6586.35	5685.5
961.3198	2333.2355	6539.85	5640.6
961.4516	2334.661	6524.95	5626.1
961.5833	2336.0858	6514.7	5615.35
961.715	2337.5098	6499.2	5600.9
961.8467	2338.9332	6489.35	5594.6
961.9783	2340.3558	6458.9	5561.3
962.1099	2341.7778	6434.85	5542.45
962.2415	2343.199	6413.55	5519.75
962.373	2344.6195	6397.6	5505.55
962.5045	2346.0393	6381.2	5487.9
962.636	2347.4583	6392.85	5497.95
962.7675	2348.8767	6338.95	5442.05
962.8989	2350.2943	6344.55	5445.6
963.0303	2351.7113	6307.8	5408.6
963.1617	2353.1275	6310.95	5414.15
963.293	2354.543	6303.2	5397.7
963.4243	2355.9578	6280.25	5381.2
963.5556	2357.3718	6247.15	5354.45
963.6868	2358.7852	6209.05	5313.3
963.818	2360.1978	6183.05	5290.35
963.9492	2361.6098	6179.15	5286.9
964.0803	2363.021	6169.8	5270.5
964.2114	2364.4315	6148.9	5253.5
964.3425	2365.8413	6141.9	5245.5
964.4736	2367.2504	6108.85	5216.7
964.6046	2368.6587	6081.6	5189.5
964.7356	2370.0664	6047.1	5153.85
964.8666	2371.4733	6036.45	5142.05
964.9975	2372.8795	6009.95	5115.65
965.1284	2374.285	5985.25	5093.5
965.2593	2375.6899	5966.5	5075.3
965.3901	2377.0939	5951.1	5057.1
965.5209	2378.4973	5930.2	5037.8
965.6517	2379.9	5903.25	5009.55
965.7825	2381.3019	5880.1	4987.95
965.9132	2382.7032	5878.8	4989.1
966.0439	2384.1037	5854.3	4963.5
966.1745	2385.5035	5837.45	4950.9
966.3051	2386.9027	5806.4	4916.15
966.4357	2388.3011	5804.75	4912.15
966.5663	2389.6987	5780.9	4890.85
966.6968	2391.0957	5754.2	4863.55
966.8273	2392.492	5727.85	4838.3
966.9578	2393.8876	5691.9	4798.75
967.0882	2395.2824	5687.75	4793.3
967.2186	2396.6765	5681.35	4791.75
967.349	2398.07	5645.7	4753.9
967.4793	2399.4627	5648.75	4751.95
967.6097	2400.8547	5608.5	4714.4
967.7399	2402.246	5626.35	4728.1
967.8702	2403.6366	5591.85	4699.6
968.0004	2405.0265	5551.55	4659.95
968.1306	2406.4156	5559.2	4666
968.2607	2407.8041	5521.05	4624.95
968.3909	2409.1918	5529.75	4637.65
968.521	2410.5789	5484.75	4592.05
968.651	2411.9652	5471.35	4574.8
968.781	2413.3508	5464.15	4571.4
968.911	2414.7358	5442.2	4549.35
969.041	2416.12	5411.65	4520.25
969.1709	2417.5035	5400.65	4506.55
969.3008	2418.8863	5384.45	4490.6
969.4307	2420.2684	5374	4481.25
969.5606	2421.6497	5342.3	4447.8
969.6904	2423.0304	5321.45	4429.6
969.8201	2424.4104	5313.85	4420.95
969.9499	2425.7896	5302.8	4408.35
970.0796	2427.1682	5264.8	4371.95
970.2093	2428.546	5254.9	4359.25
970.3389	2429.9232	5253.7	4359.35
970.4685	2431.2996	5239.2	4346.5
970.5981	2432.6753	5227.95	4333.6
970.7277	2434.0503	5210.35	4316.6
970.8572	2435.4246	5186.55	4292.45
970.9867	2436.7982	5179.2	4281.6
971.1161	2438.1711	5176.95	4284.7
971.2456	2439.5433	5154.8	4262.3
971.375	2440.9148	5130.3	4231.55
971.5043	2442.2856	5105.65	4211.9
971.6336	2443.6557	5100.35	4206
971.7629	2445.025	5068.55	4173.55
971.8922	2446.3937	5065.5	4170.15
972.0214	2447.7617	5043.35	4148.7
972.1506	2449.1289	5053.5	4159.7
972.2798	2450.4955	5018.65	4120.1
972.4089	2451.8613	4995.8	4103.8
972.538	2453.2265	5007.1	4113.55
972.6671	2454.5909	5020.05	4126.35
972.7961	2455.9546	5010.75	4118.6
972.9251	2457.3177	4975	4083.1
973.0541	2458.68	4964.55	4067.55
973.1831	2460.0416	4980.8	4085.2
973.312	2461.4025	4941.4	4048.45
973.4408	2462.7627	4926.25	4021.6
973.5697	2464.1222	4924.55	4034.75
973.6985	2465.4811	4900.65	4007.6
973.8273	2466.8392	4900.75	4008.95
973.956	2468.1966	4867.7	3971.75
974.0847	2469.5533	4875.05	3980.35
974.2134	2470.9093	4844.45	3951.9
974.3421	2472.2645	4834.75	3940.2
974.4707	2473.6191	4826.25	3935
974.5993	2474.973	4806.5	3912.95
974.7278	2476.3262	4803.55	3907.15
974.8563	2477.6787	4778	3885.65
974.9848	2479.0305	4738.1	3845.05
975.1132	2480.3816	4744.75	3850.45
975.2417	2481.7319	4732.35	3839.85
975.37	2483.0816	4723.25	3829.55
975.4984	2484.4306	4693.2	3800.45
975.6267	2485.7789	4664	3772.7
975.755	2487.1264	4673.8	3780.1
975.8833	2488.4733	4654.65	3760.7
976.0115	2489.8195	4650.2	3739.95
976.1397	2491.165	4607.8	3712.9
976.2678	2492.5097	4612.1	3715.7
976.3959	2493.8538	4581.8	3691.55
976.524	2495.1972	4565.85	3672.8
976.6521	2496.5398	4560.9	3666.75
976.7801	2497.8818	4554.95	3659.3
976.9081	2499.2231	4543.3	3646.35
977.036	2500.5637	4519.2	3622.15
977.164	2501.9035	4517.15	3621.8
977.2918	2503.2427	4508.1	3608.05
977.4197	2504.5812	4483.8	3588.8
977.5475	2505.919	4482.9	3588.95
977.6753	2507.256	4467.4	3572.3
977.8031	2508.5924	4443.15	3550.75
977.9308	2509.9281	4422.2	3523.45
978.0585	2511.2631	4405.2	3511.75
978.1861	2512.5974	4410.7	3517.9
978.3137	2513.9309	4398.35	3504.45
978.4413	2515.2638	4420.7	3498.95
978.5689	2516.596	4382.45	3488.3
978.6964	2517.9275	4353.45	3457.3
978.8239	2519.2583	4347.55	3454.85
978.9513	2520.5884	4317.7	3424.35
979.0788	2521.9178	4317.6	3423.7
979.2062	2523.2465	4300.85	3408.45
979.3335	2524.5745	4277.65	3386.45
979.4608	2525.9018	4280.05	3386.4
979.5881	2527.2284	4257.2	3366.25
979.7154	2528.5543	4233	3340.9
979.8426	2529.8796	4234.55	3340.65
979.9698	2531.2041	4234.95	3341.9
980.0969	2532.5279	4218.5	3325.7
980.224	2533.851	4218.9	3324.1
980.3511	2535.1735	4215.1	3322.4
980.4781	2536.4952	4198.6	3305.6
980.6052	2537.8163	4181.75	3286.5
980.7321	2539.1366	4162.25	3267.45
980.8591	2540.4562	4151.05	3254.45
980.986	2541.7752	4165.65	3271.35
981.1129	2543.0935	4162.5	3266.55
981.2397	2544.411	4147.65	3252
981.3665	2545.7279	4151.6	3257.2
981.4933	2547.0441	4135.05	3241.25
981.62	2548.3596	4132.8	3236.45
981.7467	2549.6744	4113.85	3217.6
981.8734	2550.9885	4099.95	3203.2
982.0001	2552.3019	4086.95	3193.1
982.1267	2553.6146	4087.75	3192.35
982.2532	2554.9266	4069.5	3176.45
982.3798	2556.2379	4068.3	3172.45
982.5063	2557.5485	4034.9	3142.05
982.6327	2558.8585	4038.4	3138.6
982.7592	2560.1677	4043.2	3143.45
982.8856	2561.4762	4033.8	3137.35
983.0119	2562.7841	4016.35	3119.7
983.1383	2564.0913	4029.55	3134.4
983.2646	2565.3977	4013.45	3119.5
983.3908	2566.7035	4002.85	3106.55
983.517	2568.0086	3988.4	3092.65
983.6432	2569.313	3973.4	3077.9
983.7694	2570.6167	3961	3062.3
983.8955	2571.9197	3943.45	3047.85
984.0216	2573.222	3945.05	3048.6
984.1476	2574.5236	3940.7	3045.3
984.2737	2575.8246	3930.25	3032.05
984.3996	2577.1248	3925.95	3028.8
984.5256	2578.4244	3926.4	3033.65
984.6515	2579.7232	3917.4	3022.2
984.7774	2581.0214	3942.7	3016.05
984.9032	2582.3189	3920.15	3026.15
985.029	2583.6157	3904.5	3005.6
985.1548	2584.9118	3897.75	3003.6
985.2806	2586.2072	3887.85	2993.6
985.4063	2587.5019	3877.4	2983.85
985.5319	2588.7959	3848.5	2953.5
985.6576	2590.0893	3864.05	2966.5
985.7832	2591.3819	3843.05	2947.45
985.9087	2592.6739	3830.35	2937.2
986.0343	2593.9652	3822.6	2926.3
986.1597	2595.2557	3825.85	2933.05
986.2852	2596.5456	3818.15	2921.35
986.4106	2597.8348	3803.05	2909.45
986.536	2599.1234	3794.75	2902
986.6614	2600.4112	3785.65	2891.6
986.7867	2601.6983	3773.35	2875.25
986.912	2602.9848	3771	2875.6
987.0372	2604.2705	3762.7	2862
987.1624	2605.5556	3740.05	2846.35
987.2876	2606.84	3735.15	2842.65
987.4128	2608.1237	3729.4	2833.65
987.5379	2609.4067	3711.95	2815.8
987.6629	2610.689	3716.7	2812.9
987.788	2611.9707	3696.35	2798.6
987.913	2613.2516	3701.1	2800.4
988.0379	2614.5319	3669.4	2775.45
988.1629	2615.8115	3658	2764.7
988.2878	2617.0903	3642.65	2746.55
988.4126	2618.3685	3645.7	2750.4
988.5375	2619.6461	3616.85	2722.8
988.6622	2620.9229	3611.65	2717.2
988.787	2622.199	3610.75	2716.3
988.9117	2623.4745	3611.6	2716.45
989.0364	2624.7493	3595	2701.5
989.161	2626.0234	3590	2697.95
989.2857	2627.2968	3568.85	2676.1
989.4102	2628.5695	3561.75	2665.85
989.5348	2629.8415	3544.8	2651.45
989.6593	2631.1128	3545.35	2650.8
989.7837	2632.3835	3518.35	2624.3
989.9082	2633.6535	3517.4	2625.5
990.0326	2634.9228	3509.05	2616.55
990.1569	2636.1914	3511.25	2618.95
990.2812	2637.4593	3497.95	2598.85
990.4055	2638.7265	3493	2597.8
990.5298	2639.9931	3473.55	2580.3
990.654	2641.259	3465	2569.95
990.7782	2642.5242	3455.65	2560.75
990.9023	2643.7887	3441.95	2549
991.0264	2645.0525	3452.55	2558.35
991.1505	2646.3156	3444.45	2537.1
991.2745	2647.5781	3416.85	2522.8
991.3985	2648.8398	3414.05	2522.65
991.5225	2650.1009	3402.55	2501.5
991.6464	2651.3613	3387.9	2493.1
991.7703	2652.6211	3379.35	2485.65
991.8942	2653.8801	3377.7	2485.6
992.018	2655.1385	3373.65	2477.5
992.1418	2656.3961	3361.05	2467.6
992.2655	2657.6531	3356.8	2464.7
992.3892	2658.9094	3360.45	2464.9
992.5129	2660.1651	3349.3	2455.75
992.6366	2661.42	3326.35	2431.6
992.7602	2662.6743	3326.85	2430.75
992.8837	2663.9279	3321.6	2429.95
993.0073	2665.1808	3317.55	2424.95
993.1307	2666.433	3319.55	2425.85
993.2542	2667.6846	3297.35	2402.6
993.3776	2668.9354	3304.75	2408.1
993.501	2670.1856	3297.6	2402.9
993.6244	2671.4351	3294.8	2401.85
993.7477	2672.6839	3294.2	2399.4
993.8709	2673.9321	3288.15	2393.55
993.9942	2675.1795	3270.6	2379.2
994.1174	2676.4263	3270.55	2377.9
994.2405	2677.6724	3273.45	2381.75
994.3637	2678.9179	3264.05	2369.3
994.4868	2680.1626	3249.55	2358.4
994.6098	2681.4067	3242.3	2348.25
994.7328	2682.6501	3243.05	2349.8
994.8558	2683.8928	3232	2339.25
994.9788	2685.1348	3220.95	2326.05
995.1017	2686.3761	3199.05	2308.6
995.2245	2687.6168	3196.45	2301.5
995.3474	2688.8568	3180.3	2286.75
995.4702	2690.0961	3185.55	2293.75
995.5929	2691.3348	3163.45	2271.75
995.7156	2692.5727	3156.05	2264.05
995.8383	2693.81	3158.3	2267.35
995.961	2695.0466	3147.9	2258.25
996.0836	2696.2826	3137.25	2244.75
996.2062	2697.5178	3130.1	2236.35
996.3287	2698.7524	3122.5	2230.45
996.4512	2699.9863	3129.45	2234
996.5737	2701.2195	3107.95	2214.85
996.6961	2702.452	3124.9	2232.1
996.8185	2703.6839	3112.8	2219.1
996.9408	2704.9151	3098.4	2207.75
997.0631	2706.1456	3094.9	2201.6
997.1854	2707.3755	3104.8	2210.4
997.3077	2708.6046	3095.6	2200.25
997.4299	2709.8331	3096	2201.8
997.552	2711.0609	3105.85	2213.8
997.6742	2712.2881	3104.9	2215.3
997.7963	2713.5145	3109.85	2215.35
997.9183	2714.7403	3104.7	2212.9
998.0403	2715.9654	3093.65	2202.35
998.1623	2717.1899	3119.85	2215.6
998.2842	2718.4136	3105	2213.35
998.4062	2719.6367	3105.9	2214.55
998.528	2720.8591	3120.8	2222.25
998.6498	2722.0809	3106.85	2214.9
998.7716	2723.3019	3115	2218.7
998.8934	2724.5223	3119.1	2227.5
999.0151	2725.7421	3116.85	2223.6
999.1368	2726.9611	3114.15	2221.05
999.2584	2728.1795	3110.75	2213.45
999.38	2729.3972	3103.95	2212.65
999.5016	2730.6142	3084.55	2185.6
999.6231	2731.8306	3060.6	2167.95
999.7446	2733.0462	3032.45	2141.4
999.8661	2734.2612	3016.75	2119.95
999.9875	2735.4756	3003	2107.95
1000.1089	2736.6892	2962.55	2068.15
1000.2302	2737.9022	2938.95	2049.15
1000.3515	2739.1145	2923.3	2032.25
1000.4728	2740.3262	2919.95	2018.7
1000.594	2741.5372	2893.55	2001.95
1000.7152	2742.7475	2875	1983.55
1000.8363	2743.9571	2856.2	1965.1
1000.9575	2745.1661	2845.75	1950.95
1001.0785	2746.3744	2838.6	1946.8
1001.1996	2747.582	2824.25	1934.8
1001.3206	2748.7889	2811.25	1917.85
1001.4415	2749.9952	2800.7	1909.4
1001.5625	2751.2008	2789.5	1895.55
1001.6833	2752.4057	2787.05	1894.5
1001.8042	2753.61	2774.9	1883.1
1001.925	2754.8136	2762.7	1869.2
1002.0458	2756.0165	2764.05	1872.2
1002.1665	2757.2188	2741.7	1850.85
1002.2872	2758.4204	2745.35	1855.65
1002.4078	2759.6213	2729.55	1836.85
1002.5285	2760.8215	2731.25	1836
1002.649	2762.0211	2727.35	1835
1002.7696	2763.22	2719.85	1824.65
1002.8901	2764.4182	2705.75	1813.4
1003.0106	2765.6158	2698.35	1807.1
1003.131	2766.8127	2694.45	1802.3
1003.2514	2768.009	2671.85	1783.55
1003.3717	2769.2045	2681.6	1791.2
1003.492	2770.3994	2682.75	1790.15
1003.6123	2771.5936	2666.45	1777.1
1003.7325	2772.7872	2647.65	1757.65
1003.8527	2773.9801	2648	1754.9
1003.9729	2775.1723	2654.85	1748.95
1004.093	2776.3639	2638.9	1748.05
1004.2131	2777.5548	2643.05	1750.75
1004.3331	2778.745	2623.4	1731.35
1004.4531	2779.9346	2616	1726.15
1004.5731	2781.1235	2619.25	1727.3
1004.693	2782.3117	2623.8	1735.2
1004.8129	2783.4992	2611.1	1724.45
1004.9328	2784.6861	2604.05	1715.3
1005.0526	2785.8723	2607.1	1716.45
1005.1723	2787.0579	2615.75	1725.8
1005.2921	2788.2428	2605.85	1714.45
1005.4118	2789.427	2624.55	1737
1005.5314	2790.6106	2615.2	1724.1
1005.651	2791.7935	2602.65	1713.65
1005.7706	2792.9757	2620.35	1729.15
1005.8902	2794.1573	2643.3	1753.45
1006.0097	2795.3382	2645.4	1757.5
1006.1291	2796.5184	2643.25	1753.15
1006.2485	2797.698	2646.95	1755.45
1006.3679	2798.8769	2660.3	1768.95
1006.4873	2800.0551	2670	1778.8
1006.6066	2801.2327	2684.75	1793.5
1006.7258	2802.4096	2695.55	1805.85
1006.8451	2803.5859	2707.55	1816.9
1006.9642	2804.7615	2714.65	1825.55
1007.0834	2805.9364	2739.35	1848
1007.2025	2807.1106	2761.45	1873.9
1007.3216	2808.2842	2784.6	1893.85
1007.4406	2809.4572	2814.9	1923.6
1007.5596	2810.6294	2848.75	1957.95
1007.6785	2811.801	2873	1984.1
1007.7975	2812.972	2903.95	2015.85
1007.9163	2814.1423	2948.35	2060.45
1008.0352	2815.3119	2995.15	2106.7
1008.154	2816.4808	3025.45	2136.2
1008.2727	2817.6491	3070.7	2178.95
1008.3914	2818.8167	3120.6	2231.5
1008.5101	2819.9837	3165.4	2271
1008.6288	2821.15	3194.45	2304.75
1008.7474	2822.3157	3230.8	2342.75
1008.8659	2823.4807	3278.3	2388.55
1008.9844	2824.645	3306.65	2418.35
1009.1029	2825.8086	3343.75	2454.25
1009.2214	2826.9716	3374.55	2486.5
1009.3398	2828.134	3414.45	2525.55
1009.4581	2829.2957	3461.25	2571.05
1009.5764	2830.4567	3473.95	2586.95
1009.6947	2831.617	3494.4	2604.65
1009.813	2832.7767	3496.9	2607.6
1009.9312	2833.9358	3485.1	2598.35
1010.0493	2835.0941	3477.5	2587.35
1010.1675	2836.2519	3480.45	2591.75
1010.2855	2837.4089	3453.9	2565.05
1010.4036	2838.5653	3464.9	2576.4
1010.5216	2839.7211	3456.55	2570.45
1010.6396	2840.8761	3444.65	2556.55
1010.7575	2842.0306	3460	2572.15
1010.8754	2843.1843	3490	2602.95
1010.9932	2844.3374	3534.7	2645.55
1011.111	2845.4899	3579.25	2690
1011.2288	2846.6417	3662.05	2773.45
1011.3465	2847.7928	3729.5	2842.4
1011.4642	2848.9433	3794.9	2906.15
1011.5818	2850.0931	3864.5	2976.8
1011.6995	2851.2422	3944.35	3053.55
1011.817	2852.3907	4004	3114.35
1011.9345	2853.5385	4060.6	3167.95
1012.052	2854.6857	4108.9	3213.75
1012.1695	2855.8323	4160.3	3272.6
1012.2869	2856.9781	4198.4	3310.7
1012.4042	2858.1233	4245.3	3356.4
1012.5216	2859.2679	4276.45	3387.4
1012.6389	2860.4118	4316	3427.8
1012.7561	2861.555	4344.3	3453.8
1012.8733	2862.6976	4376.9	3488.4
1012.9905	2863.8395	4389.85	3501.35
1013.1076	2864.9808	4417.05	3529.45
1013.2247	2866.1214	4434.7	3548.45
1013.3417	2867.2614	4444.15	3556.5
1013.4587	2868.4007	4434.3	3544.5
1013.5757	2869.5393	4455.5	3564.45
1013.6926	2870.6773	4460.7	3570.25
1013.8095	2871.8146	4471	3580.6
1013.9263	2872.9513	4463.75	3574.75
1014.0431	2874.0874	4452.15	3563.65
1014.1599	2875.2227	4448.25	3557.75
1014.2766	2876.3574	4421.25	3532.55
1014.3933	2877.4915	4407.4	3522.3
1014.51	2878.6249	4372.85	3484.55
1014.6266	2879.7577	4345.3	3458
1014.7431	2880.8898	4335.85	3437.15
1014.8596	2882.0212	4302.9	3416.2
1014.9761	2883.152	4282.7	3393.05
1015.0925	2884.2821	4277.45	3390.35
1015.2089	2885.4116	4262.65	3375
1015.3253	2886.5405	4258.5	3370.2
1015.4416	2887.6686	4269.6	3378.35
1015.5579	2888.7962	4268.1	3381.3
1015.6741	2889.923	4261.75	3374.35
1015.7903	2891.0493	4279.5	3393.4
1015.9065	2892.1748	4261.7	3373.65
1016.0226	2893.2997	4283.05	3392.9
1016.1387	2894.424	4301.85	3414.5
1016.2547	2895.5476	4301.25	3416.25
1016.3707	2896.6706	4340.2	3455.9
1016.4866	2897.7929	4354.25	3466.05
1016.6025	2898.9145	4355.95	3467.8
1016.7184	2900.0355	4394	3506.75
1016.8342	2901.1559	4419.55	3532.15
1016.95	2902.2756	4438	3552.45
1017.0658	2903.3946	4476.5	3589.35
1017.1815	2904.513	4498.6	3607.85
1017.2971	2905.6308	4522.4	3637.35
1017.4127	2906.7479	4536.75	3649.3
1017.5283	2907.8643	4573.35	3687.4
1017.6439	2908.9801	4565.1	3678.75
1017.7594	2910.0953	4559.05	3672.05
1017.8748	2911.2098	4574.9	3686.05
1017.9902	2912.3236	4557.2	3663.95
1018.1056	2913.4368	4531.9	3642.4
1018.2209	2914.5494	4515.15	3627.15
1018.3362	2915.6613	4481.05	3587.55
1018.4515	2916.7725	4471.55	3582.7
1018.5667	2917.8831	4416.25	3527.25
1018.6819	2918.9931	4384.45	3495.3
1018.797	2920.1024	4361.4	3473.6
1018.9121	2921.211	4327.6	3441.7
1019.0271	2922.319	4309.5	3422.8
1019.1421	2923.4264	4301.3	3416.45
1019.2571	2924.5331	4284.4	3399.55
1019.372	2925.6391	4264.05	3377.5
1019.4869	2926.7445	4259.45	3373.75
1019.6017	2927.8493	4248.7	3362.65
1019.7165	2928.9534	4237.5	3350.85
1019.8313	2930.0569	4234.8	3346.3
1019.946	2931.1597	4221.4	3333.35
1020.0606	2932.2619	4205.8	3317.1
1020.1753	2933.3634	4205.7	3318.2
1020.2899	2934.4643	4191.15	3297.15
1020.4044	2935.5645	4174.05	3280.1
1020.5189	2936.6641	4137.3	3246.2
1020.6334	2937.763	4084.5	3198.45
1020.7478	2938.8613	4042.6	3155.4
1020.8622	2939.959	3991.65	3101.3
1020.9765	2941.056	3912.65	3025.8
1021.0908	2942.1523	3842.5	2955.95
1021.2051	2943.248	3757.3	2870.2
1021.3193	2944.3431	3670.75	2786
1021.4334	2945.4375	3556.75	2670.3
1021.5476	2946.5313	3449	2564.55
1021.6617	2947.6244	3367.1	2482.85
1021.7757	2948.7169	3269.55	2383.9
1021.8897	2949.8087	3176.55	2291.15
1022.0037	2950.8999	3065.85	2177.9
1022.1176	2951.9904	2998.4	2113.55
1022.2315	2953.0803	2934.85	2047.05
1022.3453	2954.1696	2866.15	1978.5
1022.4591	2955.2582	2798.55	1912.35
1022.5728	2956.3462	2773.45	1888.65
1022.6865	2957.4335	2736.9	1852.1
1022.8002	2958.5202	2694.4	1807.25
1022.9138	2959.6062	2669.05	1783.9
1023.0274	2960.6916	2632	1747.55
1023.141	2961.7764	2602.7	1716.35
1023.2545	2962.8605	2599.8	1712.9
1023.3679	2963.9439	2590.95	1705.3
1023.4813	2965.0267	2569.15	1682.85
1023.5947	2966.1089	2579.7	1670.1
1023.708	2967.1905	2545.15	1659.15
1023.8213	2968.2714	2533.35	1647.9
1023.9346	2969.3516	2542.25	1656.9
1024.0478	2970.4312	2549.55	1658.45
1024.1609	2971.5102	2534.15	1647.7
1024.274	2972.5885	2524.1	1638.55
1024.3871	2973.6662	2547.55	1655.1
1024.5002	2974.7432	2533.2	1648.85
1024.6132	2975.8196	2514.7	1627.8
1024.7261	2976.8954	2497.05	1613.2
1024.839	2977.9705	2493.65	1609.75
1024.9519	2979.045	2476.7	1591.6
1025.0647	2980.1188	2458.3	1572.25
1025.1775	2981.192	2438.45	1554.35
1025.2902	2982.2645	2412.15	1526.55
1025.4029	2983.3364	2389.95	1503.65
1025.5156	2984.4077	2364.25	1478.95
1025.6282	2985.4783	2342.05	1449.85
1025.7407	2986.5483	2298	1412.65
1025.8532	2987.6177	2267.1	1382.4
1025.9657	2988.6864	2235.6	1351.55
1026.0782	2989.7545	2194.5	1307.05
1026.1906	2990.8219	2175.2	1289.1
1026.3029	2991.8887	2141.7	1255.6
1026.4152	2992.9548	2108.55	1223.5
1026.5275	2994.0204	2066.8	1182.8
1026.6397	2995.0852	2032.95	1150.95
1026.7519	2996.1495	2006.95	1120.25
1026.864	2997.2131	1991.55	1105.3
1026.9761	2998.276	1967.7	1083.25
1027.0882	2999.3383	1944.8	1059.9
1027.2002	3000.4	1935.6	1048.25
1027.3122	3001.4611	1910.85	1024.7
1027.4241	3002.5215	1899.7	1014.85
1027.536	3003.5812	1877.15	992.1
1027.6478	3004.6404	1867.4	980.4
1027.7596	3005.6989	1855.25	967.6
1027.8714	3006.7567	1847.8	962.35
1027.9831	3007.8139	1853.6	949.25
1028.0947	3008.8705	1824.75	940.45
1028.2064	3009.9264	1839.65	937.25
1028.3179	3010.9818	1822.45	937.1
1028.4295	3012.0364	1807.75	924.85
1028.541	3013.0905	1808.7	923.55
1028.6524	3014.1439	1800.1	914.1
1028.7638	3015.1966	1795.2	910.55
1028.8752	3016.2487	1797.5	912.9
1028.9865	3017.3002	1792.95	901.55
1029.0978	3018.3511	1789.55	907.95
1029.209	3019.4013	1782.75	897.4
1029.3202	3020.4509	1779.85	896.25
1029.4314	3021.4998	1785.35	900.75
1029.5425	3022.5481	1778.25	895.15
1029.6535	3023.5958	1773.25	889.1
1029.7645	3024.6428	1781.95	895.9
1029.8755	3025.6892	1783.65	899.65
1029.9864	3026.735	1786.95	902.35
1030.0973	3027.7802	1775.35	890.15
1030.2082	3028.8247	1773.75	890.5
1030.319	3029.8685	1775.1	892.4
1030.4297	3030.9118	1780.55	895.95
1030.5404	3031.9544	1775	888.95
1030.6511	3032.9963	1783.45	898.55
1030.7617	3034.0376	1787.9	903.6
1030.8723	3035.0783	1784.4	898.8
1030.9829	3036.1184	1789.4	904.25
1031.0934	3037.1578	1783.3	899.15
1031.2038	3038.1966	1798.05	910.55
1031.3142	3039.2348	1787	903.35
1031.4246	3040.2723	1793.45	900.45
1031.5349	3041.3092	1777.35	893.25
1031.6452	3042.3455	1780.75	896.6
1031.7554	3043.3811	1778.8	893.75
1031.8656	3044.4161	1772.9	887.8
1031.9758	3045.4505	1769.6	888.35
1032.0859	3046.4842	1752.8	867.8
1032.1959	3047.5173	1750.85	868
1032.3059	3048.5498	1732.05	845.95
1032.4159	3049.5816	1735.65	851.6
1032.5258	3050.6128	1722.8	838.3
1032.6357	3051.6434	1724.3	838.55
1032.7455	3052.6734	1708.4	821.55
1032.8553	3053.7027	1695.15	811.2
1032.9651	3054.7314	1697	813.35
1033.0748	3055.7594	1686.8	802.45
1033.1845	3056.7868	1684.7	799.65
1033.2941	3057.8136	1668.35	784.55
1033.4037	3058.8398	1666.7	783.8
1033.5132	3059.8653	1656	773.35
1033.6227	3060.8902	1660.3	777
1033.7321	3061.9145	1650.2	766.65
1033.8415	3062.9381	1643.3	759.25
1033.9509	3063.9612	1650.3	749.2
1034.0602	3064.9835	1633.1	748.3
1034.1694	3066.0053	1622.4	737.9
1034.2787	3067.0264	1618.45	734.4
1034.3878	3068.0469	1605.2	721.05
1034.497	3069.0668	1592.3	705.95
1034.6061	3070.086	1585.35	702.85
1034.7151	3071.1046	1570.45	686
1034.8241	3072.1226	1569.6	685.05
1034.9331	3073.1399	1561.55	678.8
1035.042	3074.1567	1538.65	654.5
1035.1508	3075.1727	1539.8	654.65
1035.2597	3076.1882	1525.15	640.55
1035.3684	3077.203	1521.2	637.25
1035.4772	3078.2173	1510.35	624.15
1035.5859	3079.2308	1507.45	618.25
1035.6945	3080.2438	1499.15	614.05
1035.8031	3081.2561	1484.4	600.9
1035.9117	3082.2678	1477	592.1
1036.0202	3083.2789	1468.5	585.35
1036.1286	3084.2893	1456.5	573.4
1036.2371	3085.2991	1456.75	574.3
1036.3454	3086.3083	1451.7	562.4
1036.4538	3087.3169	1443.5	558.6
1036.562	3088.3248	1437.7	552.95
1036.6703	3089.3321	1430.5	546.75
1036.7785	3090.3388	1418.25	534.1
1036.8866	3091.3449	1414.1	531.2
1036.9948	3092.3503	1412.8	526
1037.1028	3093.3551	1412.35	531
1037.2108	3094.3593	1406.6	525.35
1037.3188	3095.3629	1397.2	513.9
1037.4267	3096.3658	1396.15	510.5
1037.5346	3097.3681	1389.15	508.35
1037.6425	3098.3698	1388.2	502.9
1037.7503	3099.3708	1391.2	502.95
1037.858	3100.3713	1381.65	496.9
1037.9657	3101.3711	1379.65	494.9
1038.0734	3102.3702	1501.55	482.6
1038.181	3103.3688	1378.1	490.85
1038.2886	3104.3667	1366.05	482.9
1038.3961	3105.364	1355.4	471.5
1038.5036	3106.3607	1359.7	478.35
1038.611	3107.3568	1350.65	465.35
1038.7184	3108.3522	1347.25	464.15
1038.8257	3109.347	1347.95	463.25
1038.933	3110.3412	1347	458.2
1039.0403	3111.3348	1343.05	460.1
1039.1475	3112.3277	1336.85	453.1
1039.2547	3113.32	1336.5	454.2
1039.3618	3114.3117	1336.2	454.3
1039.4689	3115.3028	1327.4	443.5
1039.5759	3116.2932	1334.85	449.5
1039.6829	3117.2831	1331	441.3
1039.7898	3118.2723	1319.75	434.85
1039.8967	3119.2608	1323.45	439.05
1040.0035	3120.2488	1309.75	426.85
1040.1103	3121.2361	1308.15	424.3
1040.2171	3122.2229	1307.05	424.3
1040.3238	3123.209	1302.95	418.85
1040.4305	3124.1944	1303.4	420.8
1040.5371	3125.1793	1301.85	418.05
1040.6437	3126.1635	1303.6	422.1
1040.7502	3127.1471	1295.55	413.7
1040.8567	3128.1301	1293.3	408.55
1040.9631	3129.1125	1294.85	413.5
1041.0695	3130.0942	1294.65	412.9
1041.1759	3131.0753	1296.15	404.95
1041.2822	3132.0558	1285.3	400.05
1041.3884	3133.0357	1280.25	396.25
1041.4946	3134.015	1280.7	395.95
1041.6008	3134.9936	1281.4	398.35
1041.7069	3135.9716	1298.95	394.45
1041.813	3136.949	1274.1	391.4
1041.919	3137.9258	1293.75	392.05
1042.025	3138.902	1269.95	381.5
1042.1309	3139.8775	1268.85	386.3
1042.2368	3140.8524	1268.65	384.65
1042.3427	3141.8267	1263.95	379.9
1042.4485	3142.8004	1268.05	384.8
1042.5542	3143.7735	1266.75	376.85
1042.6599	3144.7459	1257.9	372.8
1042.7656	3145.7178	1256	372.85
1042.8712	3146.689	1256.75	375.6
1042.9768	3147.6596	1251.25	367.25
1043.0823	3148.6295	1244.5	362.9
1043.1878	3149.5989	1247.95	365.65
1043.2932	3150.5676	1241.25	357.45
1043.3986	3151.5357	1237.85	357.4
1043.5039	3152.5032	1240.1	356.4
1043.6092	3153.4701	1232.75	349.5
1043.7145	3154.4364	1236.15	350.65
1043.8197	3155.402	1234.7	352.95
1043.9248	3156.367	1235.9	351
1044.03	3157.3315	1274.7	349.45
1044.135	3158.2952	1224.9	341.85
1044.24	3159.2584	1219.7	339.85
1044.345	3160.221	1226.25	342.25
1044.4499	3161.1829	1220.55	340
1044.5548	3162.1442	1216.35	334.3
1044.6596	3163.105	1214	331.7
1044.7644	3164.065	1213.8	332.75
1044.8692	3165.0245	1213.8	328.35
1044.9739	3165.9834	1207.9	325.85
1045.0785	3166.9416	1204.6	322.15
1045.1831	3167.8993	1209.1	326.1
1045.2877	3168.8563	1200	318.5
1045.3922	3169.8127	1196.6	312.35
1045.4966	3170.7684	1195.55	313.15
1045.6011	3171.7236	1193.8	310.65
1045.7054	3172.6782	1198.25	316.4
1045.8098	3173.6321	1199.1	315.85
1045.914	3174.5854	1200.8	312.65
1046.0183	3175.5381	1195.05	311.05
1046.1224	3176.4902	1189.85	307.7
1046.2266	3177.4417	1187.8	305.4
1046.3307	3178.3926	1187.05	303.75
1046.4347	3179.3428	1179.85	297.2
1046.5387	3180.2924	1186.45	305.75
1046.6427	3181.2415	1182.9	300.2
1046.7466	3182.1899	1178.4	294.15
1046.8504	3183.1377	1175.8	293.8
1046.9542	3184.0848	1177.75	292.25
1047.058	3185.0314	1174	292.05
1047.1617	3185.9773	1169.4	287.7
1047.2654	3186.9227	1174.15	290.85
1047.369	3187.8674	1175.9	291.65
1047.4726	3188.8115	1168.6	283.05
1047.5761	3189.755	1172.25	288.75
1047.6796	3190.6979	1161.95	280.9
1047.783	3191.6402	1161.45	279.35
1047.8864	3192.5818	1162.55	281.55
1047.9898	3193.5229	1165.15	274.8
1048.0931	3194.4633	1158	276.1
1048.1963	3195.4031	1158.85	276.4
1048.2995	3196.3423	1154.4	272.2
1048.4027	3197.2809	1154.95	271.7
1048.5058	3198.2189	1159.45	276.6
1048.6089	3199.1563	1161.9	272.95
1048.7119	3200.0931	1151.1	271.05
1048.8148	3201.0292	1145.2	263.25
1048.9178	3201.9648	1145.7	264.85
1049.0206	3202.8997	1148.05	264.95
1049.1235	3203.834	1142.5	260.3
1049.2262	3204.7677	1142.9	262.05
1049.329	3205.7008	1140.5	255.5
1049.4317	3206.6333	1136.3	253.55
1049.5343	3207.5652	1143.1	259
1049.6369	3208.4964	1138.75	256.05
1049.7394	3209.4271	1140.6	257.4
1049.8419	3210.3571	1132.6	250.9
1049.9444	3211.2865	1137.1	256.15
1050.0468	3212.2154	1131.3	247.7
1050.1491	3213.1436	1131.4	245.7
1050.2514	3214.0712	1141.55	253.1
1050.3537	3214.9982	1128.9	245.95
1050.4559	3215.9246	1129.65	246.5
1050.5581	3216.8503	1130.35	249.55
1050.6602	3217.7755	1122.75	241.1
1050.7623	3218.7001	1122.3	240.9
1050.8643	3219.624	1123.35	242.45
1050.9663	3220.5473	1120.25	240.5
1051.0682	3221.4701	1116.65	236.1
1051.1701	3222.3922	1122.5	236.25
1051.2719	3223.3137	1117.65	237.6
1051.3737	3224.2346	1122.15	241.4
1051.4754	3225.1549	1112.65	230.6
1051.5771	3226.0746	1116.3	236.95
1051.6788	3226.9937	1113.05	230.85
1051.7804	3227.9121	1111.2	229.15
1051.8819	3228.83	1115.55	236.15
1051.9834	3229.7473	1112.15	232.15
1052.0849	3230.6639	1108.4	224.65
1052.1863	3231.5799	1106.4	225.45
1052.2876	3232.4954	1105.85	224.6
1052.3889	3233.4102	1100.05	222.2
1052.4902	3234.3244	1100.15	215.5
1052.5914	3235.238	1098.15	217.3
1052.6926	3236.151	1122.5	213.75
1052.7937	3237.0634	1094.85	212.8
1052.8948	3237.9752	1099.55	217.7
1052.9958	3238.8864	1098.85	216.7
1053.0968	3239.797	1092	211.75
1053.1977	3240.7069	1094.95	214.05
1053.2986	3241.6163	1092.2	208.15
1053.3994	3242.5251	1088.4	207.85
1053.5002	3243.4332	1086.05	205.1
1053.6009	3244.3408	1084.25	203.85
1053.7016	3245.2477	1089	206.75
1053.8022	3246.154	1086.95	204.4
1053.9028	3247.0598	1081.3	199.25
1054.0034	3247.9649	1082.95	202.35
1054.1039	3248.8694	1078.65	198.85
1054.2043	3249.7733	1078.35	197.2
1054.3047	3250.6766	1079.6	195.6
1054.4051	3251.5793	1076.8	192.95
1054.5054	3252.4814	1075.45	193.55
1054.6056	3253.3829	1075.55	194.7
1054.7058	3254.2838	1072.15	190.85
1054.806	3255.1841	1071.7	192.45
1054.9061	3256.0838	1076.6	194.4
1055.0061	3256.9829	1066.75	187.1
1055.1062	3257.8814	1067.05	183.5
1055.2061	3258.7792	1067.6	184.1
1055.306	3259.6765	1065.25	181.9
1055.4059	3260.5731	1063	181.45
1055.5057	3261.4692	1058.2	175.05
1055.6055	3262.3647	1061.8	177.7
1055.7052	3263.2595	1057.6	175.55
1055.8049	3264.1538	1056.9	176.2
1055.9045	3265.0474	1047.6	165.85
1056.0041	3265.9404	1048.7	169.6
1056.1036	3266.8329	1047.7	168.8
1056.2031	3267.7247	1050.95	159.85
1056.3025	3268.616	1035.35	156.05
1056.4019	3269.5066	1031.95	149.95
1056.5013	3270.3966	1031.65	152
1056.6005	3271.286	1024.5	145.45
