Software Version:	3.9.2.0
Unit SN:	10000200
Spectrometer SN:	6960
Date:	3/26/2024 1:36:20 PM
Data Line Index:	25
Spectral Points:	2048
Integration time (ms):	125
Averages:	20
Delay (ms):	30000
Sequence Number:	1
Processing:	dark subtract
Laser Power (mW):	305
Laser Current (mA):	819
Laser Diode Temp (C):	25
Laser Case Temp (C):	27
System Temp (C):	27
Spectrometer Temp (C):	24.9
CCD Temp (C):	0.018
Secondary Temp (C):	20.008
Heatsink Temp (C):	22.619
CCDPCB Temp (C):	36.685
SecondaryPCB Temp (C):	33.995

Wavelength	RamanShift	Raw Counts	Dark Subtracted
787.061	30.1047	588.3	177.35
787.2016	32.3739	597.55	185.15
787.3422	34.6426	611.7	199.6
787.4828	36.9109	623.2	209.2
787.6235	39.1787	640.8	224.55
787.7642	41.4461	661.2	240.15
787.9049	43.7131	681.25	253.9
788.0456	45.9796	694.55	264.75
788.1863	48.2456	717.8	283.95
788.3271	50.5112	737.2	300.1
788.4679	52.7764	761	323.2
788.6087	55.0411	780.5	338.15
788.7496	57.3054	811.85	363.8
788.8904	59.5692	830.45	381.5
789.0313	61.8326	860.3	407.85
789.1722	64.0955	895.5	438.25
789.3132	66.3579	935	473.2
789.4541	68.6199	980.45	515.65
789.5951	70.8815	1051.95	584.6
789.7361	73.1426	1225.6	755.55
789.8771	75.4032	1658.85	1180.4
790.0181	77.6634	2730.15	2245.4
790.1592	79.9231	5395.3	4905.4
790.3003	82.1824	11379.35	10873.6
790.4414	84.4412	23203.95	22667.5
790.5825	86.6995	43845.3	43273.65
790.7237	88.9574	56612.25	56008.9
790.8648	91.2148	61908.9	61279
791.006	93.4717	62680.4	62037.95
791.1472	95.7282	62998.75	62346.6
791.2885	97.9842	63142	62478.4
791.4297	100.2398	63075.25	62413.6
791.571	102.4949	63034.45	62368.45
791.7123	104.7495	62955.5	62287.25
791.8536	107.0036	62809.3	62144.95
791.9949	109.2573	62912.35	62244.45
792.1363	111.5105	62756.8	62086.05
792.2777	113.7632	62718	62048.6
792.4191	116.0154	62774.45	62088.3
792.5605	118.2672	62850.9	62176.15
792.7019	120.5185	62865.65	62193.8
792.8434	122.7693	62829.4	62150.75
792.9849	125.0197	62594.1	61913.75
793.1264	127.2696	62968.65	62283.05
793.2679	129.519	62841.25	62150.05
793.4094	131.7679	63003.35	62312.65
793.551	134.0163	62611.6	61909.85
793.6926	136.2642	62733.5	62031.75
793.8342	138.5117	62946.75	62237.65
793.9758	140.7587	62811.45	62105.05
794.1175	143.0052	62782.05	62070.95
794.2591	145.2512	62543.6	61834.55
794.4008	147.4967	62784.85	62074
794.5425	149.7417	62689.65	61979.2
794.6842	151.9863	62662.5	61950.4
794.826	154.2304	62522.25	61801.75
794.9677	156.4739	62572.2	61849.05
795.1095	158.717	62767.5	62043.95
795.2513	160.9596	62595.55	61867.8
795.3931	163.2017	62346.55	61616.2
795.535	165.4433	62566.2	61837.45
795.6768	167.6844	62400.65	61669.2
795.8187	169.925	62512.15	61774.95
795.9606	172.1651	62302	61568.25
796.1025	174.4047	62386.45	61647.55
796.2445	176.6439	62319.7	61578.75
796.3864	178.8825	62193.15	61452.5
796.5284	181.1206	62471.05	61720.1
796.6704	183.3582	62373.9	61618.8
796.8124	185.5954	62264.75	61511.3
796.9544	187.832	62265.55	61511.1
797.0965	190.0681	62025.05	61267.95
797.2386	192.3037	62357.6	61593.95
797.3806	194.5388	62663	61894.1
797.5228	196.7734	61881.15	61110
797.6649	199.0075	62656.3	61881.3
797.807	201.2411	62372.2	61598.8
797.9492	203.4742	62732.3	61956.85
798.0914	205.7068	62641.05	61866.95
798.2336	207.9389	62631.15	61849.1
798.3758	210.1704	62589	61804.3
798.518	212.4015	62838.85	62054.55
798.6603	214.632	62558.05	61776
798.8025	216.862	62866.05	62093.5
798.9448	219.0915	62651	61883.7
799.0871	221.3205	62649	61880.9
799.2294	223.549	62910.45	62147.6
799.3718	225.777	62875.45	62115.3
799.5141	228.0044	63055.25	62293.45
799.6565	230.2314	62916.85	62157.65
799.7989	232.4578	62917.85	62157.35
799.9413	234.6837	62972.05	62202.05
800.0837	236.909	63426	62649.6
800.2262	239.1339	62742.7	61944.2
800.3687	241.3582	63017.6	62233.1
800.5111	243.582	63029.4	62211.2
800.6536	245.8053	63025.05	62224.25
800.7961	248.0281	63075.6	62277.25
800.9387	250.2503	63150.4	62347.15
801.0812	252.472	62919.6	62110.05
801.2238	254.6932	63083.8	62277.15
801.3664	256.9139	63002.45	62191.5
801.509	259.134	63447.4	62631.65
801.6516	261.3536	63008.85	62198.05
801.7942	263.5727	63227.1	62412.35
801.9369	265.7912	63100	62282.15
802.0795	268.0092	63184.2	62367.9
802.2222	270.2267	63271.35	62451.45
802.3649	272.4436	63065.5	62249.2
802.5076	274.6601	63260.2	62442.1
802.6504	276.8759	63349.95	62535.8
802.7931	279.0913	63180.05	62356.8
802.9359	281.3061	63266.2	62441.05
803.0787	283.5204	63214.95	62386.25
803.2215	285.7341	63184.55	62354.4
803.3643	287.9473	63397.45	62553.7
803.5071	290.16	63269.25	62437.55
803.6499	292.3721	63322.7	62493.1
803.7928	294.5837	63216.8	62382.45
803.9357	296.7947	63079.8	62249.65
804.0786	299.0052	63409.8	62578.4
804.2215	301.2152	63279.8	62447.5
804.3644	303.4246	63357.6	62527.1
804.5074	305.6334	63313.1	62483.9
804.6503	307.8418	63046.55	62213.45
804.7933	310.0495	63004.9	62171.4
804.9363	312.2568	62970.3	62136.85
805.0793	314.4635	62929.45	62095.55
805.2223	316.6696	63029.4	62188.2
805.3653	318.8752	63099.25	62253.55
805.5084	321.0802	62611.5	61773.05
805.6514	323.2847	62842.2	62001.8
805.7945	325.4887	62798.5	61955.35
805.9376	327.692	62727.65	61884.4
806.0807	329.8949	62821.3	61976.85
806.2238	332.0972	62690.8	61845
806.367	334.2989	62727.15	61876.3
806.5101	336.5001	62893.6	62038.3
806.6533	338.7007	62499.9	61647.8
806.7965	340.9008	62684.25	61835.75
806.9397	343.1003	62692.05	61833.95
807.0829	345.2992	62793.2	61940.7
807.2261	347.4976	62599.35	61744.85
807.3693	349.6955	62685.35	61828.65
807.5126	351.8927	62520.9	61656.8
807.6559	354.0895	62646.15	61773.05
807.7991	356.2856	62632.15	61767.9
807.9424	358.4812	62794	61933.65
808.0857	360.6763	62493.4	61630.1
808.2291	362.8707	62773.95	61910.6
808.3724	365.0646	62584.2	61718.85
808.5158	367.258	62582.65	61717.15
808.6591	369.4508	62418.5	61553.5
808.8025	371.643	62712.9	61844.5
808.9459	373.8346	62550.2	61673.95
809.0893	376.0257	62574.2	61698
809.2327	378.2162	62513.25	61638
809.3762	380.4062	62294.75	61420.55
809.5196	382.5956	62480.85	61608
809.6631	384.7844	62413.05	61541.25
809.8066	386.9726	62509.6	61633.4
809.9501	389.1603	62488.35	61611.8
810.0936	391.3474	62296.5	61377.55
810.2371	393.5339	62459.45	61580.55
810.3806	395.7199	62153.5	61284.15
810.5241	397.9052	62196.45	61326.6
810.6677	400.09	62290.75	61425.4
810.8113	402.2743	62457.3	61592.1
810.9548	404.4579	62228.3	61361.25
811.0984	406.641	62269.6	61400.3
811.2421	408.8235	62392.9	61527.65
811.3857	411.0054	62424.7	61557.6
811.5293	413.1868	62455.35	61583.5
811.673	415.3675	62347.8	61466.25
811.8166	417.5477	62385.35	61506.75
811.9603	419.7273	62403.95	61529.75
812.104	421.9064	62356	61472.15
812.2477	424.0848	62385.8	61508.65
812.3914	426.2627	62497.9	61613.55
812.5351	428.4399	62213.5	61332.2
812.6788	430.6166	61929.25	61039.85
812.8226	432.7928	62180.2	61289.35
812.9663	434.9683	61929.8	61044.65
813.1101	437.1432	61878.55	60994.05
813.2539	439.3176	62068.3	61188.55
813.3977	441.4914	61690.3	60809.85
813.5415	443.6645	61764.5	60879.1
813.6853	445.8371	61772.9	60886.75
813.8291	448.0091	61597.45	60712.25
813.973	450.1806	61476.3	60592.25
814.1168	452.3514	61577.95	60695
814.2607	454.5216	61292.15	60404.3
814.4046	456.6913	61569.4	60681.8
814.5485	458.8603	61624.9	60743.5
814.6924	461.0288	61258.65	60379.5
814.8363	463.1967	61617.8	60736.85
814.9802	465.3639	61551.4	60669.55
815.1241	467.5306	60888	60003.1
815.2681	469.6967	61315.45	60433.7
815.412	471.8622	61523.15	60638.35
815.556	474.0271	61296.85	60412.5
815.7	476.1914	61330.85	60441.3
815.844	478.3551	61356.05	60466.75
815.988	480.5182	61677.4	60790
816.132	482.6807	61207	60326.25
816.276	484.8426	61303.45	60425.45
816.4201	487.0039	61727.55	60845.25
816.5641	489.1647	61766.7	60882.3
816.7082	491.3248	61392.1	60503.65
816.8522	493.4843	61836.2	60951.6
816.9963	495.6432	61812.65	60928.25
817.1404	497.8015	61329.7	60436.55
817.2845	499.9592	61611	60710.25
817.4286	502.1163	61569.6	60671.85
817.5727	504.2728	61465.95	60575.8
817.7168	506.4287	61353.25	60470.35
817.861	508.5839	61029.1	60144.7
818.0051	510.7386	61183.15	60296
818.1493	512.8927	61259.8	60359.25
818.2935	515.0461	61136.9	60241
818.4377	517.199	61408.2	60511.8
818.5818	519.3512	61165.4	60263.9
818.726	521.5029	61215.35	60315.2
818.8703	523.6539	61305.25	60406.85
819.0145	525.8043	60876.15	59977
819.1587	527.9541	61251.9	60353.1
819.303	530.1033	61164.55	60267.5
819.4472	532.2519	60921.9	60022.7
819.5915	534.3999	61217.35	60314.1
819.7357	536.5472	61408.05	60510.55
819.88	538.694	60857.05	59962.1
820.0243	540.8401	61244.95	60342.2
820.1686	542.9856	61317.7	60408.05
820.3129	545.1305	61490.75	60574.95
820.4572	547.2748	61150	60230.65
820.6016	549.4185	61091.4	60169.6
820.7459	551.5615	61357.35	60437.85
820.8902	553.704	61219.6	60309.25
821.0346	555.8458	61022.75	60115.55
821.1789	557.987	61128.25	60219.25
821.3233	560.1276	61264.1	60353.8
821.4677	562.2675	61185.9	60275.45
821.6121	564.4069	61352	60441.1
821.7565	566.5456	61552.1	60644.4
821.9009	568.6837	61210.85	60301.05
822.0453	570.8212	61272.8	60364.95
822.1897	572.958	60626.05	59719.7
822.3342	575.0942	60976.5	60072.95
822.4786	577.2299	60541.65	59641.75
822.6231	579.3648	60418.75	59527.9
822.7675	581.4992	60341.25	59457.3
822.912	583.6329	60319.35	59433.45
823.0565	585.766	60360.15	59469.9
823.201	587.8985	60539.35	59642.85
823.3454	590.0304	59923.85	59004.45
823.4899	592.1616	60401.8	59490.9
823.6345	594.2922	60117.7	59207.45
823.779	596.4222	59689.25	58773.95
823.9235	598.5515	59736.5	58822.9
824.068	600.6802	59955.15	59043
824.2126	602.8083	59406.1	58490.9
824.3571	604.9358	59386.95	58472.05
824.5017	607.0626	59836.9	58921.05
824.6462	609.1888	59180.8	58258.55
824.7908	611.3144	59624.15	58703.2
824.9354	613.4393	59438.95	58514.35
825.08	615.5636	59154.6	58235.4
825.2246	617.6873	59463.6	58543.25
825.3692	619.8103	59005.35	58086.75
825.5138	621.9327	59473	58552.45
825.6584	624.0544	59426.55	58513.35
825.803	626.1756	59087	58177.85
825.9477	628.2961	59060.45	58144.3
826.0923	630.4159	58790.45	57871.8
826.237	632.5351	58629.75	57709.05
826.3816	634.6537	59417.8	58499.1
826.5263	636.7716	58543	57614.75
826.6709	638.8889	58789.7	57861.45
826.8156	641.0056	58751.9	57826.1
826.9603	643.1216	58842.4	57915.35
827.105	645.237	58971.9	58051.8
827.2497	647.3518	58513.4	57595.25
827.3944	649.4659	58631.3	57717.6
827.5391	651.5793	58652.2	57738.6
827.6838	653.6922	58725	57806.6
827.8285	655.8043	58098.35	57178.6
827.9733	657.9159	58924.8	58005.1
828.118	660.0268	57505.5	56586.1
828.2627	662.137	58349.7	57426.9
828.4075	664.2466	58409.35	57479.9
828.5522	666.3556	58068.2	57144.05
828.697	668.4639	58312.1	57390.95
828.8418	670.5716	57938.9	57019.9
828.9865	672.6786	58223.4	57301.5
829.1313	674.785	57697.05	56773.95
829.2761	676.8907	57776.2	56853.95
829.4209	678.9958	57967.65	57051.1
829.5657	681.1002	58074.8	57146.7
829.7105	683.204	57576.55	56647.25
829.8553	685.3072	57299.1	56371.1
830.0001	687.4097	57463.5	56536.15
830.1449	689.5115	57299.15	56372.7
830.2898	691.6127	57691.55	56767.75
830.4346	693.7132	57257.7	56338.35
830.5794	695.8131	57330.25	56398.35
830.7243	697.9123	57438.35	56507.25
830.8691	700.0109	57534.45	56602.8
831.014	702.1089	56980.4	56051.15
831.1588	704.2061	57186.2	56257.85
831.3037	706.3028	57230.9	56304.3
831.4486	708.3987	57272.35	56342.7
831.5935	710.4941	57019.15	56093
831.7383	712.5887	57378.75	56451.75
831.8832	714.6827	57110	56179.8
832.0281	716.7761	57447	56522.85
832.173	718.8688	57571.1	56643.65
832.3179	720.9608	57224.9	56291.85
832.4628	723.0522	57307.2	56366.4
832.6077	725.1429	56964.55	56027.65
832.7527	727.233	57969.1	57036.3
832.8976	729.3224	56538.35	55608.3
833.0425	731.4112	57001	56068.05
833.1874	733.4993	56937.5	56003.1
833.3324	735.5867	56858.45	55929.7
833.4773	737.6735	56446.2	55515.25
833.6222	739.7596	55998.45	55065.2
833.7672	741.845	55940.75	55006.45
833.9122	743.9298	56307.25	55373.65
834.0571	746.014	55823.15	54887.3
834.2021	748.0974	55489.7	54553.6
834.347	750.1802	56149.7	55213.75
834.492	752.2624	55260.65	54327.95
834.637	754.3439	55402.2	54465.4
834.782	756.4247	55625.95	54680.35
834.9269	758.5048	55282.1	54345.8
835.0719	760.5843	55542.9	54606.85
835.2169	762.6631	55801.85	54864.65
835.3619	764.7413	55921.35	54987
835.5069	766.8188	56227.2	55289.3
835.6519	768.8956	56648.6	55713.05
835.7969	770.9718	56693.25	55756.8
835.9419	773.0473	56483.9	55546.75
836.0869	775.1221	56010.6	55072
836.232	777.1962	55890.2	54956.45
836.377	779.2697	55390.7	54451.3
836.522	781.3426	55635.75	54683.85
836.667	783.4147	55759.05	54821.45
836.8121	785.4862	55662.8	54722.55
836.9571	787.557	55183.25	54242
837.1021	789.6271	55357.8	54413.3
837.2472	791.6966	54624.7	53683.4
837.3922	793.7654	53958.4	53022.5
837.5373	795.8335	53772.9	52835.35
837.6823	797.901	53744.45	52806.6
837.8274	799.9678	53466	52525.85
837.9724	802.0339	53338.15	52395.5
838.1175	804.0993	53338.5	52387.75
838.2626	806.1641	53102.4	52161.35
838.4076	808.2282	52966.1	52026.65
838.5527	810.2916	52867.65	51922.95
838.6978	812.3544	52981.3	52044.35
838.8428	814.4164	52547	51608.5
838.9879	816.4778	52679.05	51737.45
839.133	818.5385	52618.45	51676.5
839.2781	820.5986	52644.05	51703.45
839.4232	822.658	52811.6	51864.25
839.5682	824.7166	52923.85	51982.2
839.7133	826.7747	52878.5	51936.7
839.8584	828.832	53310.25	52365.85
840.0035	830.8886	53588.7	52641.45
840.1486	832.9446	53583.35	52636.85
840.2937	834.9999	52811.05	51871
840.4388	837.0545	53003.15	52056.15
840.5839	839.1085	52897.6	51955.05
840.729	841.1618	52626.95	51676.25
840.8741	843.2143	52050.75	51109.3
841.0192	845.2662	51862.95	50920.55
841.1643	847.3175	51954.9	51011.45
841.3095	849.368	51398	50453.95
841.4546	851.4179	51681.3	50737.1
841.5997	853.467	51257.85	50315.05
841.7448	855.5155	51340.2	50394.35
841.8899	857.5633	50979.65	50035.1
842.0351	859.6105	50735.8	49791.95
842.1802	861.6569	50805.7	49862.85
842.3253	863.7027	50402.3	49454.75
842.4704	865.7478	50529.9	49585.55
842.6156	867.7922	50334	49388.85
842.7607	869.8359	50510.2	49564.1
842.9058	871.8789	50066.55	49119.2
843.0509	873.9212	50356.45	49378.1
843.1961	875.9629	50220.9	49277.45
843.3412	878.0039	50259.75	49316.45
843.4863	880.0441	50158.05	49213.45
843.6315	882.0837	50195.55	49249.35
843.7766	884.1226	50143.35	49197.45
843.9218	886.1609	50115.5	49170.2
844.0669	888.1984	50030.4	49087.6
844.212	890.2352	50347.25	49400.25
844.3572	892.2714	49926.25	48973.05
844.5023	894.3069	49998.05	49052.35
844.6475	896.3416	49697.75	48750.6
844.7926	898.3757	49489.6	48544.45
844.9377	900.4091	49139.55	48193.5
845.0829	902.4418	49431.7	48479.15
845.228	904.4739	49126.7	48176.3
845.3732	906.5052	49192.2	48242.8
845.5183	908.5358	48979.9	48032.2
845.6635	910.5658	48758.3	47811.3
845.8086	912.595	48590.8	47641.95
845.9538	914.6236	48149.3	47203.65
846.0989	916.6515	48425.5	47479.2
846.2441	918.6786	47790.65	46840.95
846.3892	920.7051	47873.4	46920.4
846.5344	922.7309	47905.75	46956.8
846.6795	924.756	47830.2	46883.7
846.8246	926.7804	47718.4	46766.3
846.9698	928.8041	47258	46308.25
847.1149	930.8272	47485.95	46535.15
847.2601	932.8495	47307.35	46358.25
847.4052	934.8711	47103.95	46154.85
847.5504	936.892	46905.3	45953.6
847.6955	938.9123	46847.25	45898.35
847.8407	940.9318	46715.15	45768.65
847.9858	942.9506	46585.05	45638
848.131	944.9688	46431.6	45482.25
848.2761	946.9862	46085.85	45138.2
848.4213	949.003	45957.35	45008.95
848.5664	951.019	45602.65	44654.65
848.7115	953.0344	45588.15	44638.2
848.8567	955.0491	45487.5	44539.35
849.0018	957.063	45558.55	44606.35
849.147	959.0763	45575.65	44619.75
849.2921	961.0888	45413.45	44464.75
849.4373	963.1007	45457.35	44509.4
849.5824	965.1119	45393.65	44455.65
849.7275	967.1223	45283.35	44351.5
849.8727	969.1321	45269.3	44331.3
850.0178	971.1412	45032.3	44093.15
850.1629	973.1495	44904.85	43956.35
850.3081	975.1572	44920.1	43952.1
850.4532	977.1641	44813.15	43867.55
850.5983	979.1704	44650.2	43700.55
850.7435	981.1759	44511.1	43557.95
850.8886	983.1808	44429.95	43478.1
851.0337	985.1849	44384.5	43429.05
851.1788	987.1884	44393	43443.55
851.324	989.1911	44471.05	43522.55
851.4691	991.1932	44207.3	43255.15
851.6142	993.1945	44126.75	43180.95
851.7593	995.1951	43984.7	43038
851.9045	997.1951	43858.5	42907.05
852.0496	999.1943	43631.95	42681.2
852.1947	1001.1928	43523.45	42576.7
852.3398	1003.1906	43393.65	42445.4
852.4849	1005.1877	43396.3	42448.9
852.63	1007.1841	43191.3	42247.15
852.7751	1009.1798	43094.5	42149.85
852.9202	1011.1748	42919.05	41972.8
853.0653	1013.1691	42682.65	41734.2
853.2104	1015.1627	42376.4	41433.05
853.3555	1017.1556	41938.2	40993.15
853.5006	1019.1477	41867.25	40922.45
853.6457	1021.1392	41498.1	40559.7
853.7908	1023.1299	41358.35	40420.45
853.9359	1025.12	41188.9	40252.8
854.081	1027.1093	41037.1	40114.45
854.2261	1029.0979	41078.85	40158.4
854.3712	1031.0859	40974.25	40045.25
854.5163	1033.0731	40822.65	39886.05
854.6613	1035.0596	40665.75	39727.4
854.8064	1037.0454	40386.4	39445.55
854.9515	1039.0304	40207.05	39264.5
855.0965	1041.0148	39969.5	39025.5
855.2416	1042.9985	39814.25	38866.1
855.3867	1044.9814	39783.2	38842.05
855.5317	1046.9636	39559.7	38611.9
855.6768	1048.9452	39421.35	38481
855.8219	1050.926	39378.4	38437.5
855.9669	1052.9061	39324.75	38381.25
856.112	1054.8855	39241.3	38296.6
856.257	1056.8642	39180.4	38239.85
856.4021	1058.8421	39168.45	38217.05
856.5471	1060.8194	39025.15	38081
856.6921	1062.7959	39017.25	38070.8
856.8372	1064.7717	38971.4	38025.65
856.9822	1066.7469	38946.2	38002
857.1272	1068.7213	38882.4	37937
857.2723	1070.695	38854.15	37909.7
857.4173	1072.6679	38668.35	37722.2
857.5623	1074.6402	38632.3	37685.3
857.7073	1076.6117	38643.75	37691.2
857.8523	1078.5826	38494.3	37549.4
857.9973	1080.5527	38244.9	37296.6
858.1423	1082.5221	38093.95	37150.15
858.2873	1084.4908	38010.15	37064.65
858.4323	1086.4587	37940.5	36995.45
858.5773	1088.426	37906.75	36962.1
858.7223	1090.3925	37752.45	36800.1
858.8673	1092.3584	37769.1	36825.4
859.0123	1094.3235	37560.2	36614.35
859.1573	1096.2879	37468.85	36525.25
859.3022	1098.2515	37499.15	36555.3
859.4472	1100.2145	37571.6	36628.7
859.5922	1102.1767	37581.7	36636.7
859.7371	1104.1382	37624.9	36684
859.8821	1106.099	37721.2	36776.95
860.027	1108.0591	37818.6	36874.95
860.172	1110.0185	37782.95	36835.2
860.3169	1111.9771	37851.6	36905.75
860.4619	1113.9351	37615.6	36669.2
860.6068	1115.8923	37391.35	36448.9
860.7517	1117.8488	37170.5	36223.45
860.8967	1119.8045	36818.55	35873.65
861.0416	1121.7596	36759.65	35814.85
861.1865	1123.7139	36475.15	35534.6
861.3314	1125.6675	36384.4	35440.45
861.4763	1127.6204	36429.45	35485.75
861.6212	1129.5726	36297.55	35353.3
861.7661	1131.524	36173.05	35225.85
861.911	1133.4748	36039.45	35099.4
862.0559	1135.4248	35818.8	34878.2
862.2008	1137.3741	35653.3	34713.75
862.3457	1139.3226	35432.95	34489.25
862.4905	1141.2705	35373.75	34431.7
862.6354	1143.2176	35152.1	34203.95
862.7803	1145.164	35058.95	34115.9
862.9251	1147.1097	34965.5	34020
863.07	1149.0546	34861	33914.85
863.2148	1150.9989	34723.65	33778.85
863.3597	1152.9424	34590.7	33645.85
863.5045	1154.8852	34479.45	33536.1
863.6493	1156.8272	34379.35	33436.25
863.7942	1158.7686	34381.75	33431.65
863.939	1160.7092	34265.8	33319.55
864.0838	1162.6491	34128.45	33181.15
864.2286	1164.5883	34195.45	33249.8
864.3734	1166.5267	34144.85	33202.55
864.5182	1168.4644	34264.2	33324.6
864.663	1170.4014	34297.2	33356.65
864.8078	1172.3377	34508.9	33570.2
864.9526	1174.2732	34687.5	33746.15
865.0974	1176.2081	34910.95	33970.55
865.2421	1178.1421	35209.15	34263.4
865.3869	1180.0755	35519.65	34578.45
865.5317	1182.0082	35631.5	34691
865.6764	1183.9401	35689.95	34750.8
865.8212	1185.8713	35509.85	34577.75
865.9659	1187.8017	35209.4	34277.9
866.1106	1189.7315	34911.5	33985.05
866.2554	1191.6605	34365.65	33444.45
866.4001	1193.5888	34068.15	33141.3
866.5448	1195.5163	33888	32956.7
866.6895	1197.4432	33723.6	32784.95
866.8342	1199.3693	33604.85	32668.7
866.9789	1201.2947	33477.05	32534.15
867.1236	1203.2193	33313.35	32376.85
867.2683	1205.1432	33291.85	32353.2
867.413	1207.0664	33141.85	32204.55
867.5576	1208.9889	33036.15	32096
867.7023	1210.9106	32931.85	31994
867.847	1212.8316	32812.6	31872.9
867.9916	1214.7519	32797.1	31848.9
868.1363	1216.6715	32676.3	31737.85
868.2809	1218.5903	32712.1	31774.6
868.4255	1220.5084	32660.6	31723.1
868.5701	1222.4257	32729.55	31790.3
868.7148	1224.3424	32608.05	31672.5
868.8594	1226.2583	32671.55	31729.95
869.004	1228.1735	32678.35	31740.25
869.1486	1230.0879	32611.15	31673.55
869.2932	1232.0016	32711.5	31776
869.4377	1233.9146	32695.2	31754.75
869.5823	1235.8269	32570.9	31632
869.7269	1237.7384	32569.8	31634.15
869.8715	1239.6492	32305.25	31368.75
870.016	1241.5592	32268.1	31333.5
870.1606	1243.4686	32164.2	31226.2
870.3051	1245.3772	32270.95	31333.55
870.4496	1247.285	32300.8	31359.55
870.5941	1249.1922	32332.25	31396.75
870.7387	1251.0986	32404.35	31468.85
870.8832	1253.0042	32334.55	31396.65
871.0277	1254.9092	32344.9	31412.4
871.1722	1256.8134	32307.55	31372.65
871.3167	1258.7169	32408.1	31471.95
871.4611	1260.6196	32439.7	31504.15
871.6056	1262.5216	32597.7	31661.6
871.7501	1264.4229	32645.35	31710
871.8945	1266.3234	32771.45	31836.25
872.039	1268.2232	32854.2	31917.45
872.1834	1270.1223	32781.15	31842.6
872.3278	1272.0207	32747.85	31808.95
872.4723	1273.9183	32661.55	31719.65
872.6167	1275.8151	32528.7	31595.2
872.7611	1277.7113	32523.35	31588
872.9055	1279.6067	32419.5	31484
873.0499	1281.5014	32516.6	31578.3
873.1943	1283.3953	32777.9	31840.5
873.3386	1285.2885	33087.55	32152.9
873.483	1287.181	33417.5	32482.6
873.6274	1289.0727	33747.7	32813.8
873.7717	1290.9637	33924.65	32989.4
873.9161	1292.854	34061.15	33127.4
874.0604	1294.7435	33906.2	32972
874.2047	1296.6323	33840.05	32907
874.349	1298.5204	33688.6	32748
874.4933	1300.4077	33559.05	32620.55
874.6376	1302.2943	33314.65	32379.75
874.7819	1304.1802	33089.9	32158.2
874.9262	1306.0653	32634.2	31698.75
875.0705	1307.9497	32227.4	31292.5
875.2147	1309.8333	31921.05	30986.7
875.359	1311.7162	31629.4	30697.15
875.5032	1313.5984	31478.25	30540.65
875.6475	1315.4798	31332.15	30383.95
875.7917	1317.3605	31192.8	30242.75
875.9359	1319.2405	31117.3	30176
876.0801	1321.1197	30860.55	29926.85
876.2243	1322.9982	30621.75	29682.5
876.3685	1324.876	30384.1	29450.6
876.5127	1326.753	30060.6	29125.1
876.6569	1328.6293	29940.45	29002.3
876.801	1330.5048	29805.2	28864.45
876.9452	1332.3796	29590.4	28654.2
877.0893	1334.2537	29553.7	28595.4
877.2335	1336.127	29361.85	28426.55
877.3776	1337.9996	29276.95	28341
877.5217	1339.8714	29227.6	28295.8
877.6658	1341.7426	29189.35	28203.55
877.8099	1343.6129	29129.85	28192.1
877.954	1345.4826	29060.9	28124.7
878.0981	1347.3515	29112.95	28174.6
878.2422	1349.2196	29016.9	28079.1
878.3862	1351.087	29050.5	28115.45
878.5303	1352.9537	29006	28069.65
878.6743	1354.8197	29105	28167.55
878.8184	1356.6849	29194.5	28260.4
878.9624	1358.5493	29211.15	28278.25
879.1064	1360.4131	29300.5	28366.75
879.2504	1362.276	29305.15	28373.1
879.3944	1364.1383	29264.25	28333.35
879.5384	1365.9998	29107.8	28170.9
879.6823	1367.8606	28745.95	27810.8
879.8263	1369.7206	28426.1	27490.5
879.9702	1371.5799	28100.1	27161.15
880.1142	1373.4384	27849.3	26915.8
880.2581	1375.2962	27626.55	26689.9
880.402	1377.1533	27259.15	26329.35
880.5459	1379.0096	26883.3	25953.95
880.6898	1380.8652	26577.65	25647.5
880.8337	1382.7201	26288	25358.4
880.9776	1384.5742	26010.9	25076.2
881.1215	1386.4275	25800.85	24865.5
881.2653	1388.2802	25619.15	24686.2
881.4092	1390.132	25443.4	24511.8
881.553	1391.9832	25352.3	24415.25
881.6968	1393.8336	25195.05	24259.85
881.8406	1395.6832	25123.3	24190.6
881.9844	1397.5322	25016.7	24082.4
882.1282	1399.3803	24901.15	23963.85
882.272	1401.2278	24780.05	23845.95
882.4158	1403.0745	24708.25	23777.35
882.5595	1404.9204	24559.95	23627.5
882.7033	1406.7656	24564.2	23632.6
882.847	1408.6101	24503.25	23571.4
882.9908	1410.4538	24433.35	23500.6
883.1345	1412.2968	24401.65	23470.05
883.2782	1414.139	24315.35	23383.8
883.4219	1415.9805	24375.25	23443.4
883.5656	1417.8213	24360.95	23407.4
883.7092	1419.6613	24349.6	23419.2
883.8529	1421.5006	24433.6	23502.45
883.9965	1423.3391	24507.65	23575.65
884.1402	1425.1769	24639.2	23708.65
884.2838	1427.0139	24987.9	24057.45
884.4274	1428.8502	25359.3	24422.8
884.571	1430.6858	25684.6	24753.1
884.7146	1432.5206	25894.4	24963.95
884.8582	1434.3547	26056.7	25124.55
885.0018	1436.188	26014.35	25084.9
885.1453	1438.0206	25904.6	24974.2
885.2889	1439.8524	25704.45	24774.15
885.4324	1441.6835	25586.65	24654.05
885.5759	1443.5139	25473.9	24542.2
885.7194	1445.3435	25318.7	24389.95
885.8629	1447.1724	25299.75	24369.15
886.0064	1449.0005	25230.9	24302.8
886.1499	1450.8279	25123.6	24196.6
886.2933	1452.6545	25108.3	24181.25
886.4368	1454.4804	25114.1	24186
886.5802	1456.3056	25038.3	24101.55
886.7237	1458.13	24947.35	24022.35
886.8671	1459.9536	24859.15	23929.85
887.0105	1461.7766	24617.95	23687.75
887.1539	1463.5987	24293.95	23361.95
887.2972	1465.4202	23963.7	23034.8
887.4406	1467.2409	23648.85	22718.75
887.584	1469.0608	23445.3	22518.1
887.7273	1470.88	23225.6	22294.9
887.8706	1472.6984	23005.65	22076.35
888.0139	1474.5161	22792.35	21861.05
888.1572	1476.3331	22645.35	21715.9
888.3005	1478.1493	22493.95	21567.45
888.4438	1479.9648	22428.95	21498.7
888.5871	1481.7795	22321.2	21390.05
888.7303	1483.5935	22277.1	21347.35
888.8736	1485.4067	22152	21222.9
889.0168	1487.2192	22111.85	21181.6
889.16	1489.031	22038.15	21110.2
889.3032	1490.842	21978.05	21050.8
889.4464	1492.6522	21993.95	21064.6
889.5896	1494.4618	21855.8	20926.3
889.7327	1496.2705	21805.75	20876.35
889.8759	1498.0785	21712.2	20786.1
890.019	1499.8858	21665.9	20734.9
890.1622	1501.6924	21577.05	20648.7
890.3053	1503.4981	21564.95	20637.55
890.4484	1505.3032	21470.25	20541
890.5914	1507.1075	21414.85	20486.9
890.7345	1508.911	21365.8	20441.15
890.8776	1510.7138	21277.1	20347.65
891.0206	1512.5159	21184.2	20257.65
891.1637	1514.3172	21120.15	20195.7
891.3067	1516.1178	21005.1	20081.05
891.4497	1517.9176	20956.5	20026.55
891.5927	1519.7166	20866	19941.65
891.7357	1521.515	20829.95	19899.7
891.8786	1523.3126	20759.75	19834.95
892.0216	1525.1094	20698	19771.95
892.1645	1526.9055	20604.2	19679.7
892.3074	1528.7008	20552.2	19630.4
892.4503	1530.4954	20400.25	19469.55
892.5932	1532.2893	20363.25	19440.15
892.7361	1534.0824	20272.7	19349.75
892.879	1535.8747	20261.4	19341.95
893.0218	1537.6663	20185.75	19265.3
893.1647	1539.4572	20136.75	19214.7
893.3075	1541.2473	20109.6	19190.15
893.4503	1543.0367	20066.25	19147.8
893.5931	1544.8253	20006.25	19081.05
893.7359	1546.6132	20002.65	19077.45
893.8787	1548.4003	19938	19006.75
894.0214	1550.1867	19946.75	19016.85
894.1642	1551.9723	19907.45	18983.85
894.3069	1553.7572	19980.75	19059.05
894.4496	1555.5414	19984.05	19066.5
894.5923	1557.3247	20046.15	19129.95
894.735	1559.1074	20116.25	19200.2
894.8777	1560.8893	20158	19246.1
895.0204	1562.6705	20219.05	19302.9
895.163	1564.4509	20296.45	19383.65
895.3056	1566.2305	20272.5	19361.85
895.4482	1568.0094	20352.7	19441.95
895.5908	1569.7876	20326.35	19411.3
895.7334	1571.565	20293.75	19378.3
895.876	1573.3417	20258.3	19343.9
896.0186	1575.1176	20192.7	19279.2
896.1611	1576.8928	20130.1	19219.9
896.3036	1578.6672	20082.7	19176.25
896.4461	1580.4409	20027.1	19120.65
896.5886	1582.2138	20015.65	19102.5
896.7311	1583.986	20002.15	19091.4
896.8736	1585.7575	19986.05	19073.5
897.0161	1587.5282	19990.2	19080.45
897.1585	1589.2981	20063.8	19156.95
897.3009	1591.0673	20038.75	19130.95
897.4433	1592.8358	20114.3	19204.85
897.5857	1594.6035	20139.2	19225.2
897.7281	1596.3704	20133.45	19218.55
897.8705	1598.1366	20180.3	19268.4
898.0128	1599.9021	20168.8	19260.4
898.1551	1601.6668	20162.25	19249.05
898.2975	1603.4308	20210.55	19299.9
898.4398	1605.194	20328	19414.9
898.5821	1606.9564	20430.8	19525.3
898.7243	1608.7182	20591.95	19685.2
898.8666	1610.4791	20755.75	19856.15
899.0088	1612.2394	20925.45	20027.5
899.1511	1613.9988	21122.55	20221.45
899.2933	1615.7576	21326.8	20421.65
899.4355	1617.5156	21476.15	20558.7
899.5776	1619.2728	21525.85	20615.05
899.7198	1621.0293	21465.65	20556.4
899.862	1622.785	21280.15	20373.15
900.0041	1624.54	20955.65	20050.35
900.1462	1626.2942	20677.65	19772.3
900.2883	1628.0477	20285.1	19378.1
900.4304	1629.8005	19981.7	19071.95
900.5725	1631.5525	19654.7	18749.85
900.7145	1633.3037	19432.25	18528.95
900.8566	1635.0542	19243.45	18339.85
900.9986	1636.804	19062.6	18160.5
901.1406	1638.553	19002.25	18042.85
901.2826	1640.3013	18847.9	17943.4
901.4245	1642.0488	18778.55	17875.1
901.5665	1643.7955	18741.95	17840.2
901.7085	1645.5416	18759.55	17856.05
901.8504	1647.2868	18791.55	17889
901.9923	1649.0313	18830.3	17923.6
902.1342	1650.7751	18935.05	18029.3
902.2761	1652.5181	18990.9	18088.7
902.4179	1654.2604	19053.6	18151.1
902.5598	1656.0019	19200.8	18297.25
902.7016	1657.7427	19355.95	18451.8
902.8434	1659.4828	19526.95	18622.65
902.9852	1661.222	19590.15	18684.2
903.127	1662.9606	19540.85	18635.45
903.2687	1664.6984	19341.05	18435.3
903.4105	1666.4354	19021.45	18114.9
903.5522	1668.1717	18541.35	17632.35
903.6939	1669.9072	18077.7	17170.1
903.8356	1671.642	17731.2	16821.55
903.9773	1673.3761	17383.05	16478.85
904.119	1675.1094	17091.5	16188.05
904.2606	1676.8419	16875.2	15971.45
904.4022	1678.5737	16660.2	15756.25
904.5439	1680.3048	16534.6	15627.45
904.6855	1682.0351	16386.6	15481.55
904.827	1683.7646	16239.8	15331.65
904.9686	1685.4934	16171.2	15265.3
905.1101	1687.2215	16053.7	15150.1
905.2517	1688.9488	15965.95	15064.9
905.3932	1690.6754	15855.1	14953.4
905.5347	1692.4012	15812.6	14908
905.6761	1694.1263	15721.3	14817.45
905.8176	1695.8506	15678.1	14775.45
905.9591	1697.5742	15614.8	14713.45
906.1005	1699.297	15552.2	14654.5
906.2419	1701.0191	15464.5	14565.65
906.3833	1702.7404	15362.05	14464.05
906.5246	1704.461	15266.75	14362.2
906.666	1706.1808	15210.95	14307
906.8073	1707.8999	15188.2	14288.3
906.9487	1709.6182	15106.9	14207.95
907.09	1711.3358	15047.55	14153.25
907.2313	1713.0527	14988.55	14094.05
907.3725	1714.7688	14932.95	14030.85
907.5138	1716.4841	14860.15	13960.5
907.655	1718.1987	14873.3	13968.25
907.7962	1719.9126	14765.75	13867.7
907.9374	1721.6257	14738.4	13839.75
908.0786	1723.338	14726.75	13829.45
908.2198	1725.0496	14613	13715.15
908.3609	1726.7605	14628.7	13728.9
908.502	1728.4706	14537.55	13639.6
908.6431	1730.18	14469.2	13571.55
908.7842	1731.8886	14473.65	13576.85
908.9253	1733.5964	14445.3	13542.7
909.0664	1735.3036	14391.25	13489.8
909.2074	1737.0099	14355.85	13460.5
909.3484	1738.7156	14295.45	13397.9
909.4894	1740.4204	14229.2	13329.45
909.6304	1742.1246	14208.45	13307.8
909.7714	1743.8279	14161.7	13263.35
909.9123	1745.5306	14137.95	13240.85
910.0532	1747.2325	14088.75	13192.65
910.1941	1748.9336	14012.35	13116.15
910.335	1750.634	13979.25	13078.3
910.4759	1752.3336	13974.9	13076.95
910.6168	1754.0325	13916.85	13022.95
910.7576	1755.7307	13882.4	12985.8
910.8984	1757.4281	13864.4	12967.4
911.0392	1759.1247	13865.15	12957.15
911.18	1760.8206	13833.05	12925.35
911.3208	1762.5158	13841.15	12935.45
911.4615	1764.2102	13737.55	12840.4
911.6022	1765.9039	13696.3	12801.05
911.7429	1767.5968	13658.95	12765.05
911.8836	1769.289	13616.2	12721.4
912.0243	1770.9804	13590.45	12692.1
912.1649	1772.6711	13577.95	12677.95
912.3056	1774.361	13543.8	12644.45
912.4462	1776.0502	13520.1	12620.35
912.5868	1777.7386	13498.35	12599.3
912.7274	1779.4263	13431.25	12533.35
912.8679	1781.1132	13410.25	12515.75
913.0084	1782.7994	13384.15	12489.65
913.149	1784.4849	13354.85	12460.4
913.2895	1786.1696	13313.95	12412.55
913.4299	1787.8535	13286.35	12392.45
913.5704	1789.5367	13253.45	12362
913.7108	1791.2192	13250.9	12354.55
913.8513	1792.9009	13189.9	12269.7
913.9917	1794.5818	13178.3	12278.7
914.132	1796.2621	13145.15	12249.4
914.2724	1797.9415	13093.5	12195.25
914.4128	1799.6202	13045.7	12148.35
914.5531	1801.2982	13034.5	12138.15
914.6934	1802.9755	12991.35	12092.85
914.8337	1804.6519	12992.35	12094.7
914.9739	1806.3277	12937.5	12042.35
915.1142	1808.0027	12888.6	11996.4
915.2544	1809.6769	12862.95	11970.8
915.3946	1811.3504	12827.55	11934.65
915.5348	1813.0231	12785.45	11892.45
915.675	1814.6951	12774.25	11882.15
915.8151	1816.3664	12794.5	11898.4
915.9553	1818.0369	12770.85	11873.95
916.0954	1819.7067	12709.9	11813.4
916.2355	1821.3757	12679	11782.25
916.3755	1823.044	12646.85	11750.85
916.5156	1824.7115	12633.15	11734.6
916.6556	1826.3783	12576.15	11680.4
916.7956	1828.0443	12557.8	11662.5
916.9356	1829.7096	12560.45	11662.8
917.0756	1831.3741	12515	11615.8
917.2155	1833.0379	12494.65	11600.55
917.3555	1834.701	12454.5	11559.3
917.4954	1836.3633	12416.6	11524.9
917.6353	1838.0248	12393.35	11498.1
917.7751	1839.6856	12383.3	11488.3
917.915	1841.3457	12351.4	11455.55
918.0548	1843.005	12324.9	11427.2
918.1946	1844.6636	12314.75	11419.5
918.3344	1846.3214	12298.7	11403.9
918.4742	1847.9785	12279.05	11383
918.6139	1849.6349	12226.85	11328.45
918.7537	1851.2904	12209.4	11300.3
918.8934	1852.9453	12167.25	11269.3
919.0331	1854.5994	12130.5	11232.9
919.1727	1856.2528	12169.7	11268.65
919.3124	1857.9054	12111.4	11214.6
919.452	1859.5572	12102	11209.35
919.5916	1861.2083	12078	11179.55
919.7312	1862.8587	12052.9	11154.95
919.8708	1864.5084	12054	11156.05
920.0103	1866.1572	12013.1	11117.7
920.1498	1867.8054	11954.45	11056.6
920.2893	1869.4528	11944.95	11047.7
920.4288	1871.0994	11900.55	11001.6
920.5683	1872.7453	11869.35	10970.55
920.7077	1874.3905	11853.3	10949.55
920.8471	1876.0349	11793.15	10895.45
920.9865	1877.6786	11816.35	10918.35
921.1259	1879.3215	11800.45	10904.85
921.2653	1880.9637	11783.55	10888.45
921.4046	1882.6051	11721	10826.45
921.5439	1884.2458	11718.75	10822.5
921.6832	1885.8858	11681.5	10785.35
921.8225	1887.525	11662.7	10765.1
921.9617	1889.1634	11601.9	10703.7
922.101	1890.8011	11580	10682.55
922.2402	1892.4381	11543.05	10646.95
922.3794	1894.0743	11535.8	10640.4
922.5185	1895.7098	11527.2	10632.45
922.6577	1897.3446	11478.5	10579.25
922.7968	1898.9786	11474.5	10574.25
922.9359	1900.6118	11441.35	10545.95
923.075	1902.2443	11381.4	10484.25
923.214	1903.8761	11348.5	10453.25
923.3531	1905.5071	11291.35	10395.95
923.4921	1907.1374	11271.2	10374.1
923.6311	1908.7669	11242.05	10346.25
923.77	1910.3957	11222.7	10327.55
923.909	1912.0237	11173.5	10278.2
924.0479	1913.651	11174.45	10279.5
924.1868	1915.2776	11141.55	10246.35
924.3257	1916.9034	11093.4	10202.05
924.4646	1918.5285	11077.45	10183.25
924.6034	1920.1528	11010	10114.6
924.7422	1921.7764	10987.75	10092
924.881	1923.3992	10959.95	10065.85
925.0198	1925.0213	10880.05	9984.55
925.1586	1926.6427	10844.7	9950.15
925.2973	1928.2633	10911.2	9946.8
925.436	1929.8832	10822.65	9927.4
925.5747	1931.5023	10758.65	9863.6
925.7134	1933.1207	10731.25	9836
925.852	1934.7383	10695.8	9802.45
925.9906	1936.3552	10658.55	9763.05
926.1292	1937.9714	10646.45	9751.7
926.2678	1939.5868	10600.45	9701.85
926.4064	1941.2015	10553.2	9657.75
926.5449	1942.8154	10521.55	9626.05
926.6834	1944.4286	10496.15	9600
926.8219	1946.041	10443.5	9525.3
926.9604	1947.6528	10425.6	9525.4
927.0988	1949.2637	10409.5	9513.5
927.2372	1950.8739	10347.75	9452.4
927.3756	1952.4834	10327.9	9431.9
927.514	1954.0921	10302.5	9408.8
927.6523	1955.7001	10288.7	9390.35
927.7907	1957.3074	10259.8	9367.65
927.929	1958.9139	10191.8	9303
928.0673	1960.5197	10191.75	9299.1
928.2055	1962.1247	10140.1	9247.75
928.3438	1963.729	10119.45	9230.1
928.482	1965.3325	10069.25	9155.65
928.6202	1966.9353	10034.95	9145.25
928.7584	1968.5374	10008.65	9116.35
928.8965	1970.1387	9992.15	9101.15
929.0346	1971.7393	9947.05	9056.8
929.1727	1973.3392	9919.5	9029.15
929.3108	1974.9383	9876.35	8986.4
929.4489	1976.5366	9825.1	8934.45
929.5869	1978.1342	9855.1	8964.1
929.7249	1979.7311	9796.6	8903.7
929.8629	1981.3273	9777.7	8886.75
930.0009	1982.9227	9770.6	8877.25
930.1388	1984.5173	9720	8830.8
930.2767	1986.1112	9679.5	8789.1
930.4146	1987.7044	9673.4	8783.9
930.5525	1989.2968	9622.1	8731.55
930.6904	1990.8885	9592.1	8699
930.8282	1992.4795	9603.55	8713.75
930.966	1994.0697	9536.7	8648.35
931.1038	1995.6592	9521.35	8634.3
931.2415	1997.2479	9503.4	8612.35
931.3793	1998.8359	9505.4	8616.3
931.517	2000.4232	9439.4	8554.7
931.6547	2002.0097	9417.75	8534.05
931.7923	2003.5955	9378.75	8491.8
931.93	2005.1805	9370.4	8481.25
932.0676	2006.7648	9347.25	8460.25
932.2052	2008.3484	9318.5	8429.3
932.3427	2009.9312	9330.1	8442.05
932.4803	2011.5133	9300.5	8414.8
932.6178	2013.0946	9238.75	8353.9
932.7553	2014.6752	9231.8	8346.2
932.8928	2016.2551	9189.15	8301.4
933.0302	2017.8342	9151.9	8262.9
933.1676	2019.4126	9122.75	8236.9
933.305	2020.9902	9084.5	8198.3
933.4424	2022.5672	9111.6	8225.85
933.5798	2024.1433	9061.15	8169.35
933.7171	2025.7188	9038.3	8152.75
933.8544	2027.2935	8996	8110.85
933.9917	2028.8674	8978	8091.6
934.129	2030.4406	8961.95	8077.05
934.2662	2032.0131	8925.25	8039.65
934.4034	2033.5849	8889.8	8004.25
934.5406	2035.1559	8891.6	8006.85
934.6778	2036.7261	8891.3	8007
934.8149	2038.2957	8840.7	7952.55
934.952	2039.8645	8812.85	7924.2
935.0891	2041.4325	8825.5	7933.6
935.2262	2042.9998	8775.15	7888.45
935.3632	2044.5664	8761.6	7873.1
935.5002	2046.1323	8733.25	7848.75
935.6372	2047.6974	8699.2	7815.15
935.7742	2049.2617	8685.1	7798.6
935.9111	2050.8254	8694.9	7787.4
936.048	2052.3883	8660.05	7770.8
936.1849	2053.9504	8635.85	7745.8
936.3218	2055.5118	8593.8	7703.95
936.4586	2057.0725	8577.8	7687.15
936.5955	2058.6325	8548.35	7662.5
936.7323	2060.1917	8520.9	7633.75
936.869	2061.7502	8511.2	7622.7
937.0058	2063.3079	8482	7598.5
937.1425	2064.8649	8468.55	7579.95
937.2792	2066.4212	8457.35	7570.2
937.4159	2067.9767	8409	7521.65
937.5525	2069.5315	8407.85	7519.75
937.6891	2071.0856	8360.1	7471.35
937.8257	2072.6389	8331.95	7442.95
937.9623	2074.1915	8291.5	7408.15
938.0989	2075.7433	8261.8	7374.55
938.2354	2077.2945	8219.75	7333.95
938.3719	2078.8448	8216.85	7329.95
938.5084	2080.3945	8194.05	7306.15
938.6448	2081.9434	8204.15	7313.95
938.7812	2083.4916	8168.3	7278.45
938.9176	2085.039	8148.55	7255.65
939.054	2086.5857	8122.15	7229.55
939.1903	2088.1317	8100.9	7209
939.3267	2089.677	8070.15	7174.45
939.463	2091.2215	8090	7195.65
939.5992	2092.7652	8052.85	7159.45
939.7355	2094.3083	8022.9	7130.6
939.8717	2095.8506	8015.45	7125.45
940.0079	2097.3921	8007.6	7118.5
940.1441	2098.933	7982.55	7093.05
940.2802	2100.4731	7978.35	7089.45
940.4163	2102.0124	7946.75	7049.3
940.5524	2103.5511	7928.3	7036
940.6885	2105.089	7908.3	7015.9
940.8245	2106.6261	7899.7	7009.85
940.9606	2108.1626	7863.65	6973.4
941.0965	2109.6983	7893.2	6975.1
941.2325	2111.2332	7858.75	6968.85
941.3684	2112.7675	7821.05	6926.85
941.5044	2114.301	7807.5	6915.85
941.6403	2115.8337	7794.1	6903.75
941.7761	2117.3657	7779.05	6889.4
941.912	2118.897	7742.3	6850.25
942.0478	2120.4276	7717.2	6820.65
942.1835	2121.9575	7719.6	6826.05
942.3193	2123.4866	7702.15	6808.8
942.455	2125.0149	7673.4	6779.8
942.5907	2126.5426	7639.55	6752.15
942.7264	2128.0695	7618.45	6725.05
942.8621	2129.5956	7597.4	6712.75
942.9977	2131.1211	7609.6	6718.2
943.1333	2132.6458	7584.1	6696.4
943.2689	2134.1698	7550.3	6658.25
943.4044	2135.693	7558.75	6663.65
943.54	2137.2155	7518.4	6624.35
943.6755	2138.7373	7503.65	6614.15
943.8109	2140.2584	7469.75	6581.3
943.9464	2141.7787	7468.45	6576.25
944.0818	2143.2983	7442.05	6555.85
944.2172	2144.8171	7377.85	6492.95
944.3526	2146.3353	7375.55	6486.75
944.4879	2147.8527	7343.35	6453.85
944.6232	2149.3693	7366.95	6477.2
944.7585	2150.8853	7352.7	6458.55
944.8938	2152.4005	7309.7	6418.75
945.029	2153.9149	7319.1	6427.95
945.1642	2155.4287	7353.35	6362.35
945.2994	2156.9417	7269.4	6377.55
945.4346	2158.454	7212.85	6320.25
945.5697	2159.9655	7221.7	6331.4
945.7048	2161.4764	7203.75	6316.5
945.8399	2162.9865	7180.45	6291.65
945.9749	2164.4958	7150.3	6262.4
946.1099	2166.0045	7129.9	6237.55
946.2449	2167.5124	7150.05	6261.75
946.3799	2169.0195	7122.5	6230.85
946.5148	2170.526	7102.6	6210.15
946.6498	2172.0317	7086.7	6195.8
946.7846	2173.5367	7052.4	6160.7
946.9195	2175.0409	7040.15	6150.3
947.0543	2176.5445	7047.3	6158.1
947.1891	2178.0473	7010.95	6119.95
947.3239	2179.5494	6975.65	6079.45
947.4587	2181.0507	6951.65	6061.9
947.5934	2182.5513	6952.55	6060.35
947.7281	2184.0512	6918.35	6028.25
947.8628	2185.5504	6920.55	6030.85
947.9974	2187.0488	6876.4	5988.15
948.132	2188.5465	6852.4	5963.7
948.2666	2190.0435	6820.6	5929.25
948.4012	2191.5397	6799.4	5907.55
948.5357	2193.0353	6797.25	5907.35
948.6702	2194.5301	6758.3	5863.6
948.8047	2196.0241	6757.25	5864.85
948.9392	2197.5175	6743.15	5849.55
949.0736	2199.0101	6722.75	5825.75
949.208	2200.502	6661.5	5771.3
949.3424	2201.9931	6672.5	5783.5
949.4767	2203.4835	6635.85	5746.1
949.611	2204.9733	6637.1	5733.2
949.7453	2206.4622	6600.75	5713.45
949.8796	2207.9505	6594.6	5704.5
950.0138	2209.438	6570.4	5686.85
950.148	2210.9248	6564.55	5674.95
950.2822	2212.4109	6518.6	5629.4
950.4164	2213.8962	6514.55	5619.15
950.5505	2215.3809	6503	5609.25
950.6846	2216.8648	6477.6	5583.4
950.8186	2218.3479	6457.35	5558.6
950.9527	2219.8304	6416.95	5516.7
951.0867	2221.3121	6393.5	5495.6
951.2207	2222.7931	6379.8	5486.75
951.3546	2224.2733	6361	5467.45
951.4886	2225.7529	6344.2	5452.85
951.6225	2227.2317	6325.8	5434.35
951.7563	2228.7098	6348.1	5459.1
951.8902	2230.1872	6308.25	5419.75
952.024	2231.6638	6292.4	5403.8
952.1578	2233.1397	6253.8	5361.2
952.2916	2234.6149	6249.3	5360.9
952.4253	2236.0894	6220.95	5329.3
952.559	2237.5632	6220.75	5328.2
952.6927	2239.0362	6199.55	5309.9
952.8263	2240.5085	6169	5279.75
952.9599	2241.9801	6162.65	5271.45
953.0935	2243.4509	6142.4	5250.3
953.2271	2244.921	6133.2	5240.4
953.3606	2246.3904	6115.05	5218.55
953.4941	2247.8591	6072.05	5179.35
953.6276	2249.3271	6089.15	5198.35
953.7611	2250.7943	6062.7	5169.3
953.8945	2252.2608	6035.15	5142.5
954.0279	2253.7266	6033.3	5142.65
954.1612	2255.1917	6002.3	5109.75
954.2946	2256.656	5984.3	5096.5
954.4279	2258.1197	5959.6	5071.65
954.5612	2259.5826	5962.65	5071.45
954.6944	2261.0447	5949.8	5057.75
954.8276	2262.5062	5930.2	5036.2
954.9608	2263.9669	5921.25	5024.3
955.094	2265.4269	5919.7	5025.1
955.2271	2266.8862	5885.35	4996.1
955.3602	2268.3448	5873.3	4980.7
955.4933	2269.8026	5871.35	4980.95
955.6264	2271.2598	5843.2	4953.4
955.7594	2272.7162	5821.6	4933
955.8924	2274.1719	5802.7	4912
956.0253	2275.6268	5774.6	4881.8
956.1583	2277.0811	5794.9	4901
956.2912	2278.5346	5785.8	4897.35
956.4241	2279.9874	5771.35	4878.7
956.5569	2281.4395	5742.2	4852.5
956.6897	2282.8908	5729.55	4835.95
956.8225	2284.3414	5713.15	4820.85
956.9553	2285.7914	5685.85	4794.6
957.088	2287.2406	5683.75	4789.4
957.2207	2288.689	5657.1	4763.5
957.3534	2290.1368	5658.2	4761.25
957.486	2291.5838	5647.3	4750.45
957.6186	2293.0302	5635.9	4740
957.7512	2294.4758	5608.8	4716.05
957.8838	2295.9206	5593.25	4697.45
958.0163	2297.3648	5586.3	4694.85
958.1488	2298.8082	5567.9	4676.6
958.2813	2300.251	5558.05	4664.95
958.4137	2301.693	5553.3	4655.3
958.5461	2303.1343	5556.5	4661.45
958.6785	2304.5748	5511.4	4621.05
958.8108	2306.0147	5481.75	4590.7
958.9432	2307.4538	5488.2	4595.1
959.0754	2308.8922	5472.95	4585.95
959.2077	2310.3299	5440.4	4552.2
959.3399	2311.7669	5425.75	4536.1
959.4721	2313.2031	5410.2	4517.8
959.6043	2314.6387	5383.05	4491.05
959.7365	2316.0735	5368.4	4476.9
959.8686	2317.5076	5380.1	4488.1
960.0006	2318.941	5367.65	4473.6
960.1327	2320.3737	5343.7	4451.95
960.2647	2321.8056	5334.15	4440.35
960.3967	2323.2369	5316.35	4423.8
960.5287	2324.6674	5307.05	4413.45
960.6606	2326.0972	5301.4	4408.25
960.7925	2327.5263	5291.1	4399.15
960.9244	2328.9547	5290.75	4397.95
961.0562	2330.3823	5259.55	4365.9
961.1881	2331.8092	5262.15	4362
961.3198	2333.2355	5248.65	4352.55
961.4516	2334.661	5204.8	4312.55
961.5833	2336.0858	5192.65	4299.2
961.715	2337.5098	5186.2	4290.85
961.8467	2338.9332	5175.95	4282.3
961.9783	2340.3558	5149.65	4256.05
962.1099	2341.7778	5145.25	4253.35
962.2415	2343.199	5135.6	4243.6
962.373	2344.6195	5112.9	4220.8
962.5045	2346.0393	5103.1	4212.8
962.636	2347.4583	5093.75	4199.7
962.7675	2348.8767	5098.1	4205.4
962.8989	2350.2943	5068.3	4173.15
963.0303	2351.7113	5084.15	4184.7
963.1617	2353.1275	5041.9	4147.6
963.293	2354.543	5053.4	4136.15
963.4243	2355.9578	5012.1	4118.55
963.5556	2357.3718	5001.4	4111.2
963.6868	2358.7852	4982.15	4088.5
963.818	2360.1978	4970.75	4079.1
963.9492	2361.6098	4962.3	4070.05
964.0803	2363.021	4967.6	4072.65
964.2114	2364.4315	4934.05	4043.15
964.3425	2365.8413	4929.3	4034.7
964.4736	2367.2504	4897.55	4007.7
964.6046	2368.6587	4867.65	3976.05
964.7356	2370.0664	4856.05	3966.55
964.8666	2371.4733	4853.8	3962.05
964.9975	2372.8795	4833.1	3940.2
965.1284	2374.285	4841.1	3947.75
965.2593	2375.6899	4804.1	3910.45
965.3901	2377.0939	4781.7	3889.35
965.5209	2378.4973	4788.6	3899.45
965.6517	2379.9	4746.85	3853.75
965.7825	2381.3019	4753.1	3860.65
965.9132	2382.7032	4742.05	3850.45
966.0439	2384.1037	4722.05	3833.6
966.1745	2385.5035	4693.3	3807.4
966.3051	2386.9027	4691.5	3804.15
966.4357	2388.3011	4670.25	3779.1
966.5663	2389.6987	4679.95	3788.95
966.6968	2391.0957	4671.65	3781.2
966.8273	2392.492	4646.15	3754.6
966.9578	2393.8876	4621.95	3731
967.0882	2395.2824	4616.35	3727.6
967.2186	2396.6765	4595.9	3703.95
967.349	2398.07	4589.75	3697.85
967.4793	2399.4627	4584.4	3691.75
967.6097	2400.8547	4574.75	3682.45
967.7399	2402.246	4543.15	3645.75
967.8702	2403.6366	4534.75	3644.2
968.0004	2405.0265	4505.75	3615.9
968.1306	2406.4156	4506.55	3611.25
968.2607	2407.8041	4482.85	3585.35
968.3909	2409.1918	4458.95	3565.05
968.521	2410.5789	4468.45	3578.35
968.651	2411.9652	4436.45	3541.75
968.781	2413.3508	4431.6	3540.3
968.911	2414.7358	4414.8	3522.85
969.041	2416.12	4408.05	3519
969.1709	2417.5035	4421.2	3529.95
969.3008	2418.8863	4373.7	3480
969.4307	2420.2684	4363.45	3473.3
969.5606	2421.6497	4348	3456.25
969.6904	2423.0304	4322.85	3433.2
969.8201	2424.4104	4327.15	3433.35
969.9499	2425.7896	4313.85	3419.7
970.0796	2427.1682	4297.15	3407.9
970.2093	2428.546	4295.05	3402.65
970.3389	2429.9232	4270.1	3376.2
970.4685	2431.2996	4266.4	3374.25
970.5981	2432.6753	4275.45	3384.1
970.7277	2434.0503	4237.55	3345.7
970.8572	2435.4246	4233.4	3341.95
970.9867	2436.7982	4226.3	3331.65
971.1161	2438.1711	4211.8	3318.15
971.2456	2439.5433	4189.3	3296.95
971.375	2440.9148	4204.1	3306.65
971.5043	2442.2856	4165.7	3274.1
971.6336	2443.6557	4166.5	3274.35
971.7629	2445.025	4162.55	3271.95
971.8922	2446.3937	4140.9	3246.7
972.0214	2447.7617	4138.15	3245.6
972.1506	2449.1289	4131.9	3239.15
972.2798	2450.4955	4128	3232.8
972.4089	2451.8613	4093.8	3204.3
972.538	2453.2265	4072.25	3182.15
972.6671	2454.5909	4076.3	3183.65
972.7961	2455.9546	4072.95	3179.65
972.9251	2457.3177	4072.9	3180.95
973.0541	2458.68	4052.1	3160.55
973.1831	2460.0416	4038.45	3146.4
973.312	2461.4025	4038.05	3144.55
973.4408	2462.7627	4031.6	3131.4
973.5697	2464.1222	4033.6	3145.2
973.6985	2465.4811	4004.65	3115.7
973.8273	2466.8392	3984.05	3094.1
973.956	2468.1966	3992.6	3098.2
974.0847	2469.5533	3989.5	3093.45
974.2134	2470.9093	3988.55	3096.9
974.3421	2472.2645	3961.8	3069.65
974.4707	2473.6191	3945.2	3053.95
974.5993	2474.973	3941.45	3049.35
974.7278	2476.3262	3935.75	3043.75
974.8563	2477.6787	3932.3	3043.55
974.9848	2479.0305	3899.3	3008.1
975.1132	2480.3816	3885.7	2994.4
975.2417	2481.7319	3873.25	2982.9
975.37	2483.0816	3863.6	2971.45
975.4984	2484.4306	3866.55	2973.75
975.6267	2485.7789	3853.55	2966.4
975.755	2487.1264	3847.85	2955
975.8833	2488.4733	3822.8	2931.6
976.0115	2489.8195	3840.35	2933.05
976.1397	2491.165	3809.1	2913.55
976.2678	2492.5097	3790.85	2897.95
976.3959	2493.8538	3771.75	2879.65
976.524	2495.1972	3764.5	2873.05
976.6521	2496.5398	3750.9	2859.05
976.7801	2497.8818	3750.3	2856.5
976.9081	2499.2231	3734.15	2841.4
977.036	2500.5637	3728.35	2833.55
977.164	2501.9035	3701.35	2809.55
977.2918	2503.2427	3710.7	2814.95
977.4197	2504.5812	3694.05	2801.65
977.5475	2505.919	3690.2	2795.65
977.6753	2507.256	3692	2800.3
977.8031	2508.5924	3668.55	2778.85
977.9308	2509.9281	3654.45	2757.3
978.0585	2511.2631	3646.55	2755.2
978.1861	2512.5974	3643.75	2753.1
978.3137	2513.9309	3639.7	2747.9
978.4413	2515.2638	3639.5	2719.2
978.5689	2516.596	3619.7	2730.55
978.6964	2517.9275	3603.5	2710.75
978.8239	2519.2583	3583.1	2692.65
978.9513	2520.5884	3583.55	2691.15
979.0788	2521.9178	3562.75	2670.9
979.2062	2523.2465	3562.3	2673.05
979.3335	2524.5745	3539.6	2649.3
979.4608	2525.9018	3542.05	2651.35
979.5881	2527.2284	3535.4	2644.45
979.7154	2528.5543	3541.7	2650.55
979.8426	2529.8796	3518.95	2625.95
979.9698	2531.2041	3502.6	2611.5
980.0969	2532.5279	3507.35	2618.35
980.224	2533.851	3508.4	2618.25
980.3511	2535.1735	3476.15	2585.2
980.4781	2536.4952	3471	2579.85
980.6052	2537.8163	3474.45	2584.6
980.7321	2539.1366	3474.6	2580.4
980.8591	2540.4562	3462.2	2568.3
980.986	2541.7752	3451.15	2557.75
981.1129	2543.0935	3457.2	2564.4
981.2397	2544.411	3447	2554.55
981.3665	2545.7279	3444.65	2553.2
981.4933	2547.0441	3444.5	2552
981.62	2548.3596	3429	2535.15
981.7467	2549.6744	3410.55	2519
981.8734	2550.9885	3408.15	2513.45
982.0001	2552.3019	3404.2	2510.95
982.1267	2553.6146	3414.35	2521.65
982.2532	2554.9266	3387.2	2495.45
982.3798	2556.2379	3375.2	2482.6
982.5063	2557.5485	3371.8	2480.25
982.6327	2558.8585	3357.45	2459.15
982.7592	2560.1677	3361.05	2464.85
982.8856	2561.4762	3358.85	2467.55
983.0119	2562.7841	3340.2	2445.25
983.1383	2564.0913	3337.1	2447.25
983.2646	2565.3977	3346.75	2455.95
983.3908	2566.7035	3332.4	2440.2
983.517	2568.0086	3329.65	2435.4
983.6432	2569.313	3318.6	2424.65
983.7694	2570.6167	3320.15	2425.15
983.8955	2571.9197	3297.75	2405.25
984.0216	2573.222	3298.35	2402.85
984.1476	2574.5236	3291.2	2399.05
984.2737	2575.8246	3291.55	2395.7
984.3996	2577.1248	3283.9	2388.35
984.5256	2578.4244	3278.45	2387.7
984.6515	2579.7232	3269.4	2379.45
984.7774	2581.0214	3299.1	2378.2
984.9032	2582.3189	3271	2380.65
985.029	2583.6157	3251.15	2355.85
985.1548	2584.9118	3243.85	2352.6
985.2806	2586.2072	3254.9	2364.7
985.4063	2587.5019	3240.25	2349.75
985.5319	2588.7959	3224.5	2330.5
985.6576	2590.0893	3225.05	2329.45
985.7832	2591.3819	3208.45	2318.4
985.9087	2592.6739	3205.75	2315.8
986.0343	2593.9652	3212.2	2319.3
986.1597	2595.2557	3207.9	2317.2
986.2852	2596.5456	3193.3	2298.05
986.4106	2597.8348	3180	2288.35
986.536	2599.1234	3179.95	2288.25
986.6614	2600.4112	3170.35	2278.6
986.7867	2601.6983	3183.9	2289.8
986.912	2602.9848	3140.75	2249.15
987.0372	2604.2705	3145.25	2248
987.1624	2605.5556	3137.8	2246.35
987.2876	2606.84	3123.35	2231.5
987.4128	2608.1237	3116.05	2222.55
987.5379	2609.4067	3105.8	2213.95
987.6629	2610.689	3102.3	2203.95
987.788	2611.9707	3093.45	2198.35
987.913	2613.2516	3087.7	2189.75
988.0379	2614.5319	3072.75	2181.75
988.1629	2615.8115	3063.6	2171.9
988.2878	2617.0903	3057.8	2165.1
988.4126	2618.3685	3040.95	2149.55
988.5375	2619.6461	3040.85	2149.15
988.6622	2620.9229	3031.1	2140.15
988.787	2622.199	3027.3	2134.35
988.9117	2623.4745	3015.85	2124.4
989.0364	2624.7493	2996.15	2105.5
989.161	2626.0234	3011.6	2120.9
989.2857	2627.2968	2990.75	2101.65
989.4102	2628.5695	2989.7	2097.05
989.5348	2629.8415	2979.8	2089.3
989.6593	2631.1128	2971.15	2078.4
989.7837	2632.3835	2962.55	2072.6
989.9082	2633.6535	2950.15	2060.25
990.0326	2634.9228	2945	2057.35
990.1569	2636.1914	2931.05	2042.05
990.2812	2637.4593	2950.4	2061.85
990.4055	2638.7265	2925.2	2033.2
990.5298	2639.9931	2913.15	2023.3
990.654	2641.259	2917.95	2026
990.7782	2642.5242	2905.35	2014.3
990.9023	2643.7887	2898.4	2008.35
991.0264	2645.0525	2887.4	1997.85
991.1505	2646.3156	2890	1983.9
991.2745	2647.5781	2870	1979.25
991.3985	2648.8398	2857.3	1967.95
991.5225	2650.1009	2883.8	1969.15
991.6464	2651.3613	2856.4	1966.05
991.7703	2652.6211	2847.75	1957.1
991.8942	2653.8801	2846.45	1958.5
992.018	2655.1385	2842.1	1949.35
992.1418	2656.3961	2842.35	1951.55
992.2655	2657.6531	2826.15	1934.75
992.3892	2658.9094	2821.75	1932
992.5129	2660.1651	2826.25	1936.85
992.6366	2661.42	2809.1	1919.25
992.7602	2662.6743	2815.35	1924.65
992.8837	2663.9279	2819.8	1930.5
993.0073	2665.1808	2803.7	1914.25
993.1307	2666.433	2792.95	1901.1
993.2542	2667.6846	2788.75	1899.25
993.3776	2668.9354	2793.35	1900.5
993.501	2670.1856	2793.85	1901.7
993.6244	2671.4351	2775.05	1884.55
993.7477	2672.6839	2789.3	1897.25
993.8709	2673.9321	2771.65	1881.1
993.9942	2675.1795	2769.8	1879.75
994.1174	2676.4263	2769.4	1879.75
994.2405	2677.6724	2758.25	1869.45
994.3637	2678.9179	2768.45	1877.1
994.4868	2680.1626	2752.8	1863.15
994.6098	2681.4067	2742.6	1850.45
994.7328	2682.6501	2738.95	1848.55
994.8558	2683.8928	2732.75	1842.25
994.9788	2685.1348	2721.5	1833.9
995.1017	2686.3761	2711.6	1823.15
995.2245	2687.6168	2711.05	1822.95
995.3474	2688.8568	2686.8	1797.7
995.4702	2690.0961	2691.45	1801.9
995.5929	2691.3348	2683	1793.6
995.7156	2692.5727	2679.3	1787.05
995.8383	2693.81	2672.2	1781.6
995.961	2695.0466	2665.2	1776.9
996.0836	2696.2826	2658.45	1768.05
996.2062	2697.5178	2657.5	1766.7
996.3287	2698.7524	2650.1	1762.65
996.4512	2699.9863	2656.8	1764.55
996.5737	2701.2195	2644.65	1756.25
996.6961	2702.452	2646.95	1755.1
996.8185	2703.6839	2645.95	1755.75
996.9408	2704.9151	2641.05	1752.05
997.0631	2706.1456	2643.95	1754.95
997.1854	2707.3755	2628.25	1737.1
997.3077	2708.6046	2642.15	1749.85
997.4299	2709.8331	2626.9	1733.9
997.552	2711.0609	2621.9	1730.95
997.6742	2712.2881	2634.35	1743.9
997.7963	2713.5145	2631.25	1740.35
997.9183	2714.7403	2639.05	1749.4
998.0403	2715.9654	2626.8	1736.5
998.1623	2717.1899	2647.2	1742.15
998.2842	2718.4136	2637.15	1747.85
998.4062	2719.6367	2637.05	1746.5
998.528	2720.8591	2645.2	1750.4
998.6498	2722.0809	2636.55	1748.2
998.7716	2723.3019	2651.2	1759.2
998.8934	2724.5223	2639.95	1749.2
999.0151	2725.7421	2640.35	1750.65
999.1368	2726.9611	2646.45	1755.15
999.2584	2728.1795	2634.9	1743
999.38	2729.3972	2614.75	1726.5
999.5016	2730.6142	2616.6	1719.9
999.6231	2731.8306	2585.25	1694.7
999.7446	2733.0462	2575.6	1686.3
999.8661	2734.2612	2572.5	1678.55
999.9875	2735.4756	2534.9	1644.75
1000.1089	2736.6892	2532.2	1642.15
1000.2302	2737.9022	2507.75	1622.65
1000.3515	2739.1145	2496.65	1607.45
1000.4728	2740.3262	2499.05	1600.9
1000.594	2741.5372	2473.9	1583.25
1000.7152	2742.7475	2467.2	1577.05
1000.8363	2743.9571	2450.9	1561.3
1000.9575	2745.1661	2444.8	1552.15
1001.0785	2746.3744	2433.95	1544.45
1001.1996	2747.582	2422.45	1533.65
1001.3206	2748.7889	2408.45	1518.9
1001.4415	2749.9952	2397.25	1507.2
1001.5625	2751.2008	2386.8	1497.85
1001.6833	2752.4057	2383.6	1492.35
1001.8042	2753.61	2371.95	1481.95
1001.925	2754.8136	2358.45	1465.75
1002.0458	2756.0165	2370.3	1480.5
1002.1665	2757.2188	2362	1474.7
1002.2872	2758.4204	2351.55	1463.5
1002.4078	2759.6213	2348.7	1458.75
1002.5285	2760.8215	2350.25	1455.8
1002.649	2762.0211	2339.85	1449.8
1002.7696	2763.22	2338.65	1448.35
1002.8901	2764.4182	2331.55	1441.65
1003.0106	2765.6158	2327.05	1438.75
1003.131	2766.8127	2320.6	1430.7
1003.2514	2768.009	2313.65	1425.65
1003.3717	2769.2045	2300.95	1411.55
1003.492	2770.3994	2299.5	1409.85
1003.6123	2771.5936	2293.95	1404.1
1003.7325	2772.7872	2278.2	1390.6
1003.8527	2773.9801	2276	1387.1
1003.9729	2775.1723	2290.2	1387
1004.093	2776.3639	2275.2	1386.25
1004.2131	2777.5548	2262.9	1374.05
1004.3331	2778.745	2255.05	1365
1004.4531	2779.9346	2252	1363.75
1004.5731	2781.1235	2263.3	1371.95
1004.693	2782.3117	2244.2	1358
1004.8129	2783.4992	2247.9	1360.4
1004.9328	2784.6861	2246.8	1361.05
1005.0526	2785.8723	2245.9	1356.95
1005.1723	2787.0579	2252.3	1363.6
1005.2921	2788.2428	2241.8	1353.45
1005.4118	2789.427	2243.5	1356.55
1005.5314	2790.6106	2247.25	1357.8
1005.651	2791.7935	2243.65	1356.3
1005.7706	2792.9757	2239.25	1351.75
1005.8902	2794.1573	2240.6	1351.1
1006.0097	2795.3382	2245.75	1357.65
1006.1291	2796.5184	2244.85	1358.75
1006.2485	2797.698	2245.25	1356.5
1006.3679	2798.8769	2252.95	1365.8
1006.4873	2800.0551	2267.3	1378.5
1006.6066	2801.2327	2262.65	1372.7
1006.7258	2802.4096	2269.7	1383.85
1006.8451	2803.5859	2267	1378.2
1006.9642	2804.7615	2287.25	1398
1007.0834	2805.9364	2294.3	1407.95
1007.2025	2807.1106	2307.05	1422.2
1007.3216	2808.2842	2325.2	1436.3
1007.4406	2809.4572	2327.75	1439.95
1007.5596	2810.6294	2359.7	1471.25
1007.6785	2811.801	2369.7	1484
1007.7975	2812.972	2407.35	1518.75
1007.9163	2814.1423	2433	1545.5
1008.0352	2815.3119	2457	1569.25
1008.154	2816.4808	2486.65	1600.1
1008.2727	2817.6491	2517	1629.2
1008.3914	2818.8167	2561.7	1675.85
1008.5101	2819.9837	2589.55	1696.9
1008.6288	2821.15	2619	1730.85
1008.7474	2822.3157	2667.6	1780.8
1008.8659	2823.4807	2707	1820
1008.9844	2824.645	2751.8	1864.7
1009.1029	2825.8086	2794.35	1907.1
1009.2214	2826.9716	2830.7	1943.75
1009.3398	2828.134	2856.4	1973.65
1009.4581	2829.2957	2899.55	2012.95
1009.5764	2830.4567	2916.75	2032.3
1009.6947	2831.617	2930.65	2042.25
1009.813	2832.7767	2943	2056.4
1009.9312	2833.9358	2944.3	2058.2
1010.0493	2835.0941	2932.75	2044.4
1010.1675	2836.2519	2917.35	2031.3
1010.2855	2837.4089	2910.6	2022
1010.4036	2838.5653	2875.8	1989.2
1010.5216	2839.7211	2865.9	1980.5
1010.6396	2840.8761	2873.25	1983.85
1010.7575	2842.0306	2880.2	1995.65
1010.8754	2843.1843	2880.8	1993.5
1010.9932	2844.3374	2899.8	2014.5
1011.111	2845.4899	2925.2	2038.45
1011.2288	2846.6417	2962.4	2073.75
1011.3465	2847.7928	3024.25	2138.65
1011.4642	2848.9433	3062.9	2176.05
1011.5818	2850.0931	3100.8	2214.7
1011.6995	2851.2422	3135.85	2247.4
1011.817	2852.3907	3196.5	2308.7
1011.9345	2853.5385	3230.75	2342.9
1012.052	2854.6857	3278.6	2382.6
1012.1695	2855.8323	3285.35	2399.3
1012.2869	2856.9781	3319.05	2432.65
1012.4042	2858.1233	3361.05	2473.7
1012.5216	2859.2679	3392.25	2507.5
1012.6389	2860.4118	3431.25	2544.55
1012.7561	2861.555	3445.75	2551.2
1012.8733	2862.6976	3478.7	2591.4
1012.9905	2863.8395	3513.95	2626.55
1013.1076	2864.9808	3541.05	2654.5
1013.2247	2866.1214	3539.75	2655.35
1013.3417	2867.2614	3573.6	2686.55
1013.4587	2868.4007	3571.4	2682.45
1013.5757	2869.5393	3578.85	2690.6
1013.6926	2870.6773	3586.6	2697.15
1013.8095	2871.8146	3589.45	2698.8
1013.9263	2872.9513	3592.3	2702.5
1014.0431	2874.0874	3566.55	2679.95
1014.1599	2875.2227	3559.85	2675.1
1014.2766	2876.3574	3547.55	2661.7
1014.3933	2877.4915	3517.95	2633.55
1014.51	2878.6249	3494.95	2609.55
1014.6266	2879.7577	3464.1	2577.4
1014.7431	2880.8898	3469.95	2573.1
1014.8596	2882.0212	3445.35	2559.6
1014.9761	2883.152	3448.95	2562.35
1015.0925	2884.2821	3434.35	2549.7
1015.2089	2885.4116	3406.2	2522.15
1015.3253	2886.5405	3401.7	2512.85
1015.4416	2887.6686	3429.35	2540.05
1015.5579	2888.7962	3421.1	2537.4
1015.6741	2889.923	3429.35	2543.25
1015.7903	2891.0493	3420	2535.7
1015.9065	2892.1748	3427.3	2541.7
1016.0226	2893.2997	3427.95	2541.15
1016.1387	2894.424	3440.1	2555.45
1016.2547	2895.5476	3447.85	2560.2
1016.3707	2896.6706	3461.6	2576.85
1016.4866	2897.7929	3463.65	2577.75
1016.6025	2898.9145	3493.1	2606.65
1016.7184	2900.0355	3499.85	2615
1016.8342	2901.1559	3521.6	2635.2
1016.95	2902.2756	3533.75	2648.15
1017.0658	2903.3946	3560.25	2673.5
1017.1815	2904.513	3566.55	2677.5
1017.2971	2905.6308	3587.25	2701.1
1017.4127	2906.7479	3616.05	2730.1
1017.5283	2907.8643	3619.2	2732
1017.6439	2908.9801	3616.55	2730.65
1017.7594	2910.0953	3636.9	2751.2
1017.8748	2911.2098	3621.4	2734.45
1017.9902	2912.3236	3613.25	2720.6
1018.1056	2913.4368	3596.4	2707.55
1018.2209	2914.5494	3586.1	2699.75
1018.3362	2915.6613	3564.75	2671.7
1018.4515	2916.7725	3524.3	2636.6
1018.5667	2917.8831	3501.4	2615.75
1018.6819	2918.9931	3488.75	2599.1
1018.797	2920.1024	3465.7	2577.7
1018.9121	2921.211	3448.3	2563.5
1019.0271	2922.319	3426.55	2542
1019.1421	2923.4264	3413.05	2527.3
1019.2571	2924.5331	3406.2	2521.1
1019.372	2925.6391	3397.85	2512.4
1019.4869	2926.7445	3392.4	2508.05
1019.6017	2927.8493	3382.65	2495.7
1019.7165	2928.9534	3400.05	2514.25
1019.8313	2930.0569	3393.1	2504.85
1019.946	2931.1597	3395	2508.05
1020.0606	2932.2619	3390.7	2505.8
1020.1753	2933.3634	3388.15	2501.35
1020.2899	2934.4643	3403.3	2509.95
1020.4044	2935.5645	3389.35	2496.8
1020.5189	2936.6641	3373.8	2484
1020.6334	2937.763	3341.1	2455.65
1020.7478	2938.8613	3313.75	2428.95
1020.8622	2939.959	3280.85	2390.5
1020.9765	2941.056	3230.6	2346.25
1021.0908	2942.1523	3176.05	2290.7
1021.2051	2943.248	3113.05	2227.25
1021.3193	2944.3431	3051.15	2166.4
1021.4334	2945.4375	2970.15	2084.05
1021.5476	2946.5313	2893.3	2006.7
1021.6617	2947.6244	2808.65	1924.1
1021.7757	2948.7169	2734.7	1847.85
1021.8897	2949.8087	2676.9	1791.3
1022.0037	2950.8999	2604.45	1720.45
1022.1176	2951.9904	2551.1	1667.95
1022.2315	2953.0803	2484.7	1599.25
1022.3453	2954.1696	2443.05	1556.35
1022.4591	2955.2582	2410.65	1526
1022.5728	2956.3462	2368.9	1484.1
1022.6865	2957.4335	2333.5	1447.15
1022.8002	2958.5202	2301.05	1416.15
1022.9138	2959.6062	2282.5	1396.85
1023.0274	2960.6916	2256.05	1371.65
1023.141	2961.7764	2235.25	1348.15
1023.2545	2962.8605	2230	1342.55
1023.3679	2963.9439	2222.05	1338.25
1023.4813	2965.0267	2211.5	1324.35
1023.5947	2966.1089	2225.2	1317.55
1023.708	2967.1905	2199.4	1314.75
1023.8213	2968.2714	2191.3	1308.45
1023.9346	2969.3516	2189.05	1303.6
1024.0478	2970.4312	2198.85	1303.45
1024.1609	2971.5102	2195.5	1310.9
1024.274	2972.5885	2195.5	1311.3
1024.3871	2973.6662	2194.7	1304.25
1024.5002	2974.7432	2189.8	1306.2
1024.6132	2975.8196	2181.95	1297.05
1024.7261	2976.8954	2178.25	1294.1
1024.839	2977.9705	2152.7	1268.45
1024.9519	2979.045	2157.65	1269.8
1025.0647	2980.1188	2139.65	1255.5
1025.1775	2981.192	2126.45	1242.9
1025.2902	2982.2645	2111.3	1223.65
1025.4029	2983.3364	2101.05	1216.3
1025.5156	2984.4077	2064.3	1179.3
1025.6282	2985.4783	2057.45	1165.7
1025.7407	2986.5483	2027.6	1143.95
1025.8532	2987.6177	1999.2	1113.05
1025.9657	2988.6864	1978.8	1094.25
1026.0782	2989.7545	1946.55	1059.25
1026.1906	2990.8219	1924.5	1040.75
1026.3029	2991.8887	1893.75	1007.3
1026.4152	2992.9548	1875.25	987.95
1026.5275	2994.0204	1842.6	957.65
1026.6397	2995.0852	1824.7	939.75
1026.7519	2996.1495	1799.3	914.05
1026.864	2997.2131	1785.35	899.35
1026.9761	2998.276	1762.05	876.6
1027.0882	2999.3383	1749.4	864.75
1027.2002	3000.4	1721.95	837.2
1027.3122	3001.4611	1705.45	822.45
1027.4241	3002.5215	1699.05	813.4
1027.536	3003.5812	1674.9	791.1
1027.6478	3004.6404	1671.45	785.95
1027.7596	3005.6989	1664.4	778.45
1027.8714	3006.7567	1654.85	769.5
1027.9831	3007.8139	1660.9	755.4
1028.0947	3008.8705	1627.25	742.05
1028.2064	3009.9264	1635.15	734.15
1028.3179	3010.9818	1610.1	725.8
1028.4295	3012.0364	1606.75	722.85
1028.541	3013.0905	1600.6	716.25
1028.6524	3014.1439	1602	714.8
1028.7638	3015.1966	1591.4	707.25
1028.8752	3016.2487	1591.6	706.6
1028.9865	3017.3002	1587.1	697.65
1029.0978	3018.3511	1576.9	692.75
1029.209	3019.4013	1570.55	684.5
1029.3202	3020.4509	1567.15	683.5
1029.4314	3021.4998	1563.85	678.65
1029.5425	3022.5481	1571.5	687.7
1029.6535	3023.5958	1566	681.75
1029.7645	3024.6428	1563.25	676.6
1029.8755	3025.6892	1558.55	677.3
1029.9864	3026.735	1557.05	672.1
1030.0973	3027.7802	1553.5	668.75
1030.2082	3028.8247	1558.15	673.55
1030.319	3029.8685	1555.85	671.75
1030.4297	3030.9118	1557.45	672.2
1030.5404	3031.9544	1548.4	665.8
1030.6511	3032.9963	1548.35	664.3
1030.7617	3034.0376	1548.3	667.7
1030.8723	3035.0783	1546.85	656.6
1030.9829	3036.1184	1555.4	668.7
1031.0934	3037.1578	1544.7	661.95
1031.2038	3038.1966	1555.9	669.25
1031.3142	3039.2348	1543.55	661.75
1031.4246	3040.2723	1553.35	660.2
1031.5349	3041.3092	1542.15	660.1
1031.6452	3042.3455	1536.45	651.6
1031.7554	3043.3811	1539.3	654.6
1031.8656	3044.4161	1537.3	651.6
1031.9758	3045.4505	1532	648.05
1032.0859	3046.4842	1530.9	646.2
1032.1959	3047.5173	1524.65	641.1
1032.3059	3048.5498	1533.4	649.15
1032.4159	3049.5816	1522	638.8
1032.5258	3050.6128	1526.2	640.35
1032.6357	3051.6434	1514.2	628.95
1032.7455	3052.6734	1516.2	633.5
1032.8553	3053.7027	1509.75	623.65
1032.9651	3054.7314	1504.35	620.4
1033.0748	3055.7594	1499.2	614.6
1033.1845	3056.7868	1502.6	617.35
1033.2941	3057.8136	1487.15	603.25
1033.4037	3058.8398	1484.75	601.85
1033.5132	3059.8653	1478.45	596.1
1033.6227	3060.8902	1481.25	598.25
1033.7321	3061.9145	1476.25	590.9
1033.8415	3062.9381	1480.9	598.4
1033.9509	3063.9612	1488.85	587.4
1034.0602	3064.9835	1469.85	586.25
1034.1694	3066.0053	1472.55	586.5
1034.2787	3067.0264	1457.65	574.5
1034.3878	3068.0469	1452	567.4
1034.497	3069.0668	1456.1	570.05
1034.6061	3070.086	1442.75	560.15
1034.7151	3071.1046	1442	554.05
1034.8241	3072.1226	1433	547.45
1034.9331	3073.1399	1434.55	550.2
1035.042	3074.1567	1422	537.2
1035.1508	3075.1727	1417.95	531.75
1035.2597	3076.1882	1406.55	523.35
1035.3684	3077.203	1399.65	514.85
1035.4772	3078.2173	1395.4	510.6
1035.5859	3079.2308	1391.45	503.3
1035.6945	3080.2438	1389.1	504.6
1035.8031	3081.2561	1378.8	494.7
1035.9117	3082.2678	1375.7	491.5
1036.0202	3083.2789	1375.9	491.75
1036.1286	3084.2893	1360.25	477.55
1036.2371	3085.2991	1353.85	468.35
1036.3454	3086.3083	1357.8	470.55
1036.4538	3087.3169	1356.55	469.35
1036.562	3088.3248	1341.3	457.55
1036.6703	3089.3321	1339.05	452.95
1036.7785	3090.3388	1334.95	452.6
1036.8866	3091.3449	1332.55	449.95
1036.9948	3092.3503	1327.8	442
1037.1028	3093.3551	1314.85	431.9
1037.2108	3094.3593	1316.75	435.1
1037.3188	3095.3629	1309.1	426.95
1037.4267	3096.3658	1314.5	427.35
1037.5346	3097.3681	1306.4	421.95
1037.6425	3098.3698	1305.4	420.35
1037.7503	3099.3708	1307.95	417.4
1037.858	3100.3713	1300.25	416.15
1037.9657	3101.3711	1290.35	404.6
1038.0734	3102.3702	1433.55	409.1
1038.181	3103.3688	1294.65	412.95
1038.2886	3104.3667	1285.25	402.7
1038.3961	3105.364	1282.1	398
1038.5036	3106.3607	1272.45	387.4
1038.611	3107.3568	1279.2	393.05
1038.7184	3108.3522	1269.45	385
1038.8257	3109.347	1267.6	382.65
1038.933	3110.3412	1269.35	383.75
1039.0403	3111.3348	1265.25	381.8
1039.1475	3112.3277	1260.45	377.6
1039.2547	3113.32	1255.7	372.45
1039.3618	3114.3117	1257.3	372.75
1039.4689	3115.3028	1258.15	375.85
1039.5759	3116.2932	1252.85	367.65
1039.6829	3117.2831	1254.5	365.75
1039.7898	3118.2723	1251	369.2
1039.8967	3119.2608	1241.55	357.15
1040.0035	3120.2488	1241.5	357.65
1040.1103	3121.2361	1234.9	350.15
1040.2171	3122.2229	1235.35	351.15
1040.3238	3123.209	1238.35	353
1040.4305	3124.1944	1230	348.85
1040.5371	3125.1793	1222.55	337.75
1040.6437	3126.1635	1223.75	342.95
1040.7502	3127.1471	1224.3	341.95
1040.8567	3128.1301	1220	337.7
1040.9631	3129.1125	1218.45	337.65
1041.0695	3130.0942	1216	332
1041.1759	3131.0753	1226.85	336
1041.2822	3132.0558	1215.45	331.15
1041.3884	3133.0357	1209.4	324.05
1041.4946	3134.015	1210.2	328.35
1041.6008	3134.9936	1207.9	324.05
1041.7069	3135.9716	1226.5	320.15
1041.813	3136.949	1210.3	326
1041.919	3137.9258	1222.8	320.55
1042.025	3138.902	1207.2	317.2
1042.1309	3139.8775	1200.2	316.5
1042.2368	3140.8524	1194.55	312.1
1042.3427	3141.8267	1201.8	316.4
1042.4485	3142.8004	1190.5	307.85
1042.5542	3143.7735	1200.6	310.8
1042.6599	3144.7459	1198.7	313.9
1042.7656	3145.7178	1194.15	309.95
1042.8712	3146.689	1191.35	308.6
1042.9768	3147.6596	1184.65	298.85
1043.0823	3148.6295	1187.7	303.35
1043.1878	3149.5989	1182.25	298.45
1043.2932	3150.5676	1178.85	297.25
1043.3986	3151.5357	1176.3	294.9
1043.5039	3152.5032	1177.8	294.25
1043.6092	3153.4701	1176.15	292.1
1043.7145	3154.4364	1180.35	293.9
1043.8197	3155.402	1171.45	287.65
1043.9248	3156.367	1166.3	281.45
1044.03	3157.3315	1205.9	286.2
1044.135	3158.2952	1170.45	287.8
1044.24	3159.2584	1159.65	277.8
1044.345	3160.221	1162.2	278.55
1044.4499	3161.1829	1160.8	277.65
1044.5548	3162.1442	1160.15	280.2
1044.6596	3163.105	1156.6	273.8
1044.7644	3164.065	1155.55	271.35
1044.8692	3165.0245	1158.3	272.9
1044.9739	3165.9834	1153.9	274.1
1045.0785	3166.9416	1153.7	269.1
1045.1831	3167.8993	1147.25	264.3
1045.2877	3168.8563	1148.15	264.6
1045.3922	3169.8127	1152.95	270.1
1045.4966	3170.7684	1144.75	261.2
1045.6011	3171.7236	1149	264.05
1045.7054	3172.6782	1141.35	258.6
1045.8098	3173.6321	1141.55	259.95
1045.914	3174.5854	1143.55	254.85
1046.0183	3175.5381	1142	258.55
1046.1224	3176.4902	1133.85	250.95
1046.2266	3177.4417	1131.9	250.15
1046.3307	3178.3926	1136.8	252.05
1046.4347	3179.3428	1135.7	254.2
1046.5387	3180.2924	1130.25	248.75
1046.6427	3181.2415	1131.7	248.4
1046.7466	3182.1899	1129.45	244.75
1046.8504	3183.1377	1128.85	247.55
1046.9542	3184.0848	1132.15	243.3
1047.058	3185.0314	1124.75	241.85
1047.1617	3185.9773	1126.15	241.9
1047.2654	3186.9227	1123.9	238.85
1047.369	3187.8674	1125.25	242.05
1047.4726	3188.8115	1122.95	236.3
1047.5761	3189.755	1117.9	234.5
1047.6796	3190.6979	1115.05	232.45
1047.783	3191.6402	1116.6	233.45
1047.8864	3192.5818	1115.9	232.85
1047.9898	3193.5229	1120.95	229.8
1048.0931	3194.4633	1111.65	231.2
1048.1963	3195.4031	1108.95	223.1
1048.2995	3196.3423	1109.25	223.95
1048.4027	3197.2809	1106.65	223.75
1048.5058	3198.2189	1110.9	228.8
1048.6089	3199.1563	1116.5	227.25
1048.7119	3200.0931	1098.2	214.1
1048.8148	3201.0292	1102.35	220.5
1048.9178	3201.9648	1103.85	220
1049.0206	3202.8997	1108.45	220.6
1049.1235	3203.834	1099.25	216.15
1049.2262	3204.7677	1098.55	216.1
1049.329	3205.7008	1099.5	216
1049.4317	3206.6333	1096.05	214.7
1049.5343	3207.5652	1097.9	213.2
1049.6369	3208.4964	1093.4	212.45
1049.7394	3209.4271	1097.4	215.4
1049.8419	3210.3571	1094.35	211.75
1049.9444	3211.2865	1094.3	209.85
1050.0468	3212.2154	1089.65	205.4
1050.1491	3213.1436	1091.35	204.85
1050.2514	3214.0712	1097.95	208.7
1050.3537	3214.9982	1088.4	204.75
1050.4559	3215.9246	1086.55	202.5
1050.5581	3216.8503	1080.45	199.05
1050.6602	3217.7755	1083.2	201.25
1050.7623	3218.7001	1085.1	202.5
1050.8643	3219.624	1083.9	198.2
1050.9663	3220.5473	1082	199.3
1051.0682	3221.4701	1080.55	194.55
1051.1701	3222.3922	1081.65	198.8
1051.2719	3223.3137	1078.1	195.3
1051.3737	3224.2346	1074	191.95
1051.4754	3225.1549	1075.6	193.85
1051.5771	3226.0746	1073.6	191.85
1051.6788	3226.9937	1075.6	192.95
1051.7804	3227.9121	1070.35	188.95
1051.8819	3228.83	1071.8	188.95
1051.9834	3229.7473	1067	185.3
1052.0849	3230.6639	1064.55	181.6
1052.1863	3231.5799	1070.4	189.3
1052.2876	3232.4954	1069.75	186.45
1052.3889	3233.4102	1065.65	181.75
1052.4902	3234.3244	1065.8	183.3
1052.5914	3235.238	1067.1	185.25
1052.6926	3236.151	1087.8	177.95
1052.7937	3237.0634	1059.55	176.7
1052.8948	3237.9752	1060.2	177.65
1052.9958	3238.8864	1059.3	177.5
1053.0968	3239.797	1055.65	173.15
1053.1977	3240.7069	1056.35	172.95
1053.2986	3241.6163	1060.95	177.5
1053.3994	3242.5251	1050.35	168.3
1053.5002	3243.4332	1056	176.75
1053.6009	3244.3408	1055.2	172.95
1053.7016	3245.2477	1049.8	168
1053.8022	3246.154	1052.35	168.4
1053.9028	3247.0598	1049.4	165.6
1054.0034	3247.9649	1049.8	166.6
1054.1039	3248.8694	1049.1	165.95
1054.2043	3249.7733	1045	161.05
1054.3047	3250.6766	1049.1	166.8
1054.4051	3251.5793	1045.65	161.9
1054.5054	3252.4814	1042.2	162.35
1054.6056	3253.3829	1040.9	159.8
1054.7058	3254.2838	1039.15	157.15
1054.806	3255.1841	1037.9	156.1
1054.9061	3256.0838	1035.6	154.95
1055.0061	3256.9829	1035.05	153.45
1055.1062	3257.8814	1038.1	152.75
1055.2061	3258.7792	1036.85	152.35
1055.306	3259.6765	1032.7	150.95
1055.4059	3260.5731	1036.75	153.6
1055.5057	3261.4692	1028.1	145.6
1055.6055	3262.3647	1031.05	150.5
1055.7052	3263.2595	1025.6	143.35
1055.8049	3264.1538	1023.5	139.95
1055.9045	3265.0474	1022.1	139.5
1056.0041	3265.9404	1016.65	134.05
1056.1036	3266.8329	1019.05	138.25
1056.2031	3267.7247	1023.85	131.65
1056.3025	3268.616	1010.1	128.1
1056.4019	3269.5066	1011.95	129.55
1056.5013	3270.3966	1008.3	123.5
1056.6005	3271.286	999.65	120
