Software Version:	3.9.2.0
Unit SN:	10000200
Spectrometer SN:	6960
Date:	3/26/2024 2:19:56 PM
Data Line Index:	25
Spectral Points:	2048
Integration time (ms):	125
Averages:	20
Delay (ms):	30000
Sequence Number:	1
Processing:	dark subtract
Laser Power (mW):	305
Laser Current (mA):	820
Laser Diode Temp (C):	25
Laser Case Temp (C):	27.6
System Temp (C):	27.6
Spectrometer Temp (C):	25.5
CCD Temp (C):	0.005
Secondary Temp (C):	20.008
Heatsink Temp (C):	22.924
CCDPCB Temp (C):	36.985
SecondaryPCB Temp (C):	34.551

Wavelength	RamanShift	Raw Counts	Dark Subtracted
787.061	30.1047	695.2	283.3
787.2016	32.3739	715.9	307.4
787.3422	34.6426	732.2	322.6
787.4828	36.9109	754.2	341.05
787.6235	39.1787	779.75	364.65
787.7642	41.4461	810.25	390.35
787.9049	43.7131	847.35	423.8
788.0456	45.9796	874.7	447.7
788.1863	48.2456	899.1	468.05
788.3271	50.5112	931.45	496.1
788.4679	52.7764	962	522.25
788.6087	55.0411	1001.15	560.95
788.7496	57.3054	1038.3	592.3
788.8904	59.5692	1077.85	628.9
789.0313	61.8326	1125.5	673.55
789.1722	64.0955	1173.2	715.5
789.3132	66.3579	1233.95	772.3
789.4541	68.6199	1307.7	844.6
789.5951	70.8815	1415.75	949.4
789.7361	73.1426	1657.05	1188.25
789.8771	75.4032	2282.7	1805.15
790.0181	77.6634	3825.85	3342.85
790.1592	79.9231	7708.85	7219.65
790.3003	82.1824	16690.4	16186.35
790.4414	84.4412	42428.65	41896.25
790.5825	86.6995	65406.7	64839.4
790.7237	88.9574	65535	64939
790.8648	91.2148	65535	64915.5
791.006	93.4717	65535	64897.45
791.1472	95.7282	65535	64889.45
791.2885	97.9842	65535	64886
791.4297	100.2398	65535	64879.75
791.571	102.4949	65535	64877.6
791.7123	104.7495	65535	64876.4
791.8536	107.0036	65535	64874.4
791.9949	109.2573	65535	64876.45
792.1363	111.5105	65535	64871
792.2777	113.7632	65535	64871.55
792.4191	116.0154	65535	64863.3
792.5605	118.2672	65535	64862.65
792.7019	120.5185	65535	64866.1
792.8434	122.7693	65535	64861.3
792.9849	125.0197	65535	64860.2
793.1264	127.2696	65535	64854.85
793.2679	129.519	65535	64855.05
793.4094	131.7679	65535	64854.15
793.551	134.0163	65535	64847.05
793.6926	136.2642	65535	64844.35
793.8342	138.5117	65535	64841.85
793.9758	140.7587	65535	64840.25
794.1175	143.0052	65535	64836.1
794.2591	145.2512	65535	64836.5
794.4008	147.4967	65535	64841.15
794.5425	149.7417	65535	64833.35
794.6842	151.9863	65535	64828.5
794.826	154.2304	65535	64829.3
794.9677	156.4739	65535	64823.35
795.1095	158.717	65535	64822.4
795.2513	160.9596	65535	64817.6
795.3931	163.2017	65535	64818.5
795.535	165.4433	65535	64811.95
795.6768	167.6844	65535	64810.85
795.8187	169.925	65535	64810.95
795.9606	172.1651	65535	64813.6
796.1025	174.4047	65535	64806.3
796.2445	176.6439	65535	64803.85
796.3864	178.8825	65535	64800.65
796.5284	181.1206	65535	64794.4
796.6704	183.3582	65535	64789.15
796.8124	185.5954	65535	64790.7
796.9544	187.832	65535	64787.7
797.0965	190.0681	65535	64787.95
797.2386	192.3037	65535	64779.5
797.3806	194.5388	65535	64777.8
797.5228	196.7734	65535	64774.7
797.6649	199.0075	65535	64770.95
797.807	201.2411	65535	64771.7
797.9492	203.4742	65535	64771.75
798.0914	205.7068	65535	64770.35
798.2336	207.9389	65535	64767.5
798.3758	210.1704	65535	64767.05
798.518	212.4015	65535	64762.6
798.6603	214.632	65535	64767.55
798.8025	216.862	65535	64776.4
798.9448	219.0915	65535	64781.9
799.0871	221.3205	65535	64781.45
799.2294	223.549	65535	64784.05
799.3718	225.777	65535	64785.85
799.5141	228.0044	65535	64785.75
799.6565	230.2314	65535	64784.3
799.7989	232.4578	65535	64780.5
799.9413	234.6837	65535	64778.65
800.0837	236.909	65535	64776.65
800.2262	239.1339	65535	64747.85
800.3687	241.3582	65535	64763.95
800.5111	243.582	65535	64732.35
800.6536	245.8053	65535	64742.7
800.7961	248.0281	65535	64750
800.9387	250.2503	65535	64748.7
801.0812	252.472	65535	64739.85
801.2238	254.6932	65535	64741.55
801.3664	256.9139	65535	64736.15
801.509	259.134	65535	64737.65
801.6516	261.3536	65535	64734.5
801.7942	263.5727	65535	64732.3
801.9369	265.7912	65535	64732.95
802.0795	268.0092	65535	64735.7
802.2222	270.2267	65535	64732.25
802.3649	272.4436	65535	64733.45
802.5076	274.6601	65535	64725.3
802.6504	276.8759	65535	64731
802.7931	279.0913	65535	64726.4
802.9359	281.3061	65535	64725.45
803.0787	283.5204	65535	64723.05
803.2215	285.7341	65535	64718.8
803.3643	287.9473	65535	64708.95
803.5071	290.16	65535	64714.15
803.6499	292.3721	65535	64720.55
803.7928	294.5837	65535	64719.75
803.9357	296.7947	65535	64719.5
804.0786	299.0052	65535	64717.35
804.2215	301.2152	65535	64717.5
804.3644	303.4246	65535	64723.5
804.5074	305.6334	65535	64723.45
804.6503	307.8418	65535	64720.9
804.7933	310.0495	65535	64716.7
804.9363	312.2568	65535	64715.3
805.0793	314.4635	65535	64715.65
805.2223	316.6696	65535	64711.6
805.3653	318.8752	65535	64701.1
805.5084	321.0802	65535	64711.45
805.6514	323.2847	65535	64709.2
805.7945	325.4887	65535	64710.95
805.9376	327.692	65535	64709.25
806.0807	329.8949	65535	64709.7
806.2238	332.0972	65535	64704.15
806.367	334.2989	65535	64704.55
806.5101	336.5001	65535	64699.4
806.6533	338.7007	65535	64700.65
806.7965	340.9008	65535	64704.25
806.9397	343.1003	65535	64697.6
807.0829	345.2992	65535	64699.95
807.2261	347.4976	65535	64697.45
807.3693	349.6955	65535	64693.15
807.5126	351.8927	65535	64693.4
807.6559	354.0895	65535	64677.5
807.7991	356.2856	65535	64693.75
807.9424	358.4812	65535	64691.4
808.0857	360.6763	65535	64692.4
808.2291	362.8707	65535	64689.35
808.3724	365.0646	65535	64683.6
808.5158	367.258	65535	64687.65
808.6591	369.4508	65535	64680.15
808.8025	371.643	65535	64682.55
808.9459	373.8346	65535	64681.05
809.0893	376.0257	65535	64678.95
809.2327	378.2162	65535	64679.5
809.3762	380.4062	65535	64675.4
809.5196	382.5956	65535	64678.55
809.6631	384.7844	65535	64676.6
809.8066	386.9726	65535	64673.2
809.9501	389.1603	65535	64680.35
810.0936	391.3474	65535	64642.95
810.2371	393.5339	65535	64676.55
810.3806	395.7199	65535	64684.45
810.5241	397.9052	65535	64683.3
810.6677	400.09	65535	64682.85
810.8113	402.2743	65535	64687.05
810.9548	404.4579	65535	64684.65
811.0984	406.641	65535	64683
811.2421	408.8235	65535	64681
811.3857	411.0054	65535	64681.6
811.5293	413.1868	65535	64680.35
811.673	415.3675	65535	64675.85
811.8166	417.5477	65535	64681.25
811.9603	419.7273	65535	64670.9
812.104	421.9064	65535	64668.85
812.2477	424.0848	65535	64672.95
812.3914	426.2627	65535	64669.5
812.5351	428.4399	65535	64669.95
812.6788	430.6166	65535	64667.75
812.8226	432.7928	65535	64665.7
812.9663	434.9683	65535	64665.65
813.1101	437.1432	65535	64667.35
813.2539	439.3176	65535	64668.6
813.3977	441.4914	65535	64670.4
813.5415	443.6645	65535	64665.05
813.6853	445.8371	65535	64661.6
813.8291	448.0091	65535	64666.85
813.973	450.1806	65535	64664.1
814.1168	452.3514	65535	64666.35
814.2607	454.5216	65535	64665.6
814.4046	456.6913	65535	64663.55
814.5485	458.8603	65535	64662.45
814.6924	461.0288	65535	64667
814.8363	463.1967	65535	64668.1
814.9802	465.3639	65535	64668.05
815.1241	467.5306	65535	64665.35
815.2681	469.6967	65535	64668.1
815.412	471.8622	65535	64667.45
815.556	474.0271	65535	64664.4
815.7	476.1914	65535	64656.65
815.844	478.3551	65535	64659.25
815.988	480.5182	65535	64662
816.132	482.6807	65535	64664.25
816.276	484.8426	65535	64673.25
816.4201	487.0039	65535	64667.6
816.5641	489.1647	65535	64661.35
816.7082	491.3248	65535	64661.65
816.8522	493.4843	65535	64665.6
816.9963	495.6432	65535	64661.6
817.1404	497.8015	65535	64656.5
817.2845	499.9592	65535	64657.05
817.4286	502.1163	65535	64655.55
817.5727	504.2728	65535	64656.9
817.7168	506.4287	65535	64663.7
817.861	508.5839	65535	64661.45
818.0051	510.7386	65535	64665.85
818.1493	512.8927	65535	64648.65
818.2935	515.0461	65535	64656.7
818.4377	517.199	65535	64659.4
818.5818	519.3512	65535	64656.25
818.726	521.5029	65535	64651.6
818.8703	523.6539	65535	64652.9
819.0145	525.8043	65535	64654.05
819.1587	527.9541	65535	64652.95
819.303	530.1033	65535	64651.8
819.4472	532.2519	65535	64652.5
819.5915	534.3999	65535	64646.5
819.7357	536.5472	65535	64651.85
819.88	538.694	65535	64654.75
820.0243	540.8401	65535	64650.65
820.1686	542.9856	65535	64645.25
820.3129	545.1305	65535	64642.95
820.4572	547.2748	65535	64640.7
820.6016	549.4185	65535	64639.65
820.7459	551.5615	65535	64640.65
820.8902	553.704	65535	64637.65
821.0346	555.8458	65535	64643.05
821.1789	557.987	65535	64647.3
821.3233	560.1276	65535	64644
821.4677	562.2675	65535	64643.45
821.6121	564.4069	65535	64642.4
821.7565	566.5456	65535	64643.55
821.9009	568.6837	65535	64644.2
822.0453	570.8212	65535	64647.5
822.1897	572.958	65535	64647.05
822.3342	575.0942	65535	64648.6
822.4786	577.2299	65535	64648.9
822.6231	579.3648	65535	64655.05
822.7675	581.4992	65535	64659.75
822.912	583.6329	65535	64660.55
823.0565	585.766	65535	64658.9
823.201	587.8985	65535	64656.55
823.3454	590.0304	65535	64641.55
823.4899	592.1616	65535	64640.95
823.6345	594.2922	65535	64641.5
823.779	596.4222	65535	64639.2
823.9235	598.5515	65535	64637.55
824.068	600.6802	65535	64635.4
824.2126	602.8083	65535	64643.75
824.3571	604.9358	65535	64639.65
824.5017	607.0626	65535	64634.7
824.6462	609.1888	65535	64635.9
824.7908	611.3144	65535	64636.45
824.9354	613.4393	65535	64636.9
825.08	615.5636	65535	64634.95
825.2246	617.6873	65535	64637.35
825.3692	619.8103	65535	64633.75
825.5138	621.9327	65535	64639.1
825.6584	624.0544	65535	64642
825.803	626.1756	65535	64642.15
825.9477	628.2961	65535	64633.8
826.0923	630.4159	65535	64633.65
826.237	632.5351	65535	64637.75
826.3816	634.6537	65535	64636
826.5263	636.7716	65535	64632.75
826.6709	638.8889	65535	64635.6
826.8156	641.0056	65535	64635.7
826.9603	643.1216	65535	64630.25
827.105	645.237	65535	64632.2
827.2497	647.3518	65535	64638.65
827.3944	649.4659	65535	64637.95
827.5391	651.5793	65535	64639.15
827.6838	653.6922	65535	64638.6
827.8285	655.8043	65535	64636.05
827.9733	657.9159	65535	64633.6
828.118	660.0268	65535	64635.1
828.2627	662.137	65535	64635.25
828.4075	664.2466	65535	64628.3
828.5522	666.3556	65535	64633.55
828.697	668.4639	65535	64634.65
828.8418	670.5716	65535	64635.65
828.9865	672.6786	65535	64633.2
829.1313	674.785	65535	64630.25
829.2761	676.8907	65535	64630.2
829.4209	678.9958	65535	64635.75
829.5657	681.1002	65535	64631.15
829.7105	683.204	65535	64626
829.8553	685.3072	65535	64626.95
830.0001	687.4097	65535	64632.2
830.1449	689.5115	65535	64625.85
830.2898	691.6127	65535	64631
830.4346	693.7132	65535	64633.15
830.5794	695.8131	65535	64610.8
830.7243	697.9123	65535	64623.7
830.8691	700.0109	65535	64622.85
831.014	702.1089	65535	64625.3
831.1588	704.2061	65535	64627.7
831.3037	706.3028	65535	64623.2
831.4486	708.3987	65535	64625.25
831.5935	710.4941	65535	64627.9
831.7383	712.5887	65535	64628.3
831.8832	714.6827	65535	64627.05
832.0281	716.7761	65535	64632.2
832.173	718.8688	65535	64630
832.3179	720.9608	65535	64624
832.4628	723.0522	65535	64618.8
832.6077	725.1429	65535	64626.15
832.7527	727.233	65535	64625.6
832.8976	729.3224	65535	64628.7
833.0425	731.4112	65535	64625.45
833.1874	733.4993	65535	64624.65
833.3324	735.5867	65535	64623.6
833.4773	737.6735	65535	64625.95
833.6222	739.7596	65535	64625.4
833.7672	741.845	65535	64620.6
833.9122	743.9298	65535	64621.35
834.0571	746.014	65535	64625.15
834.2021	748.0974	65535	64622.25
834.347	750.1802	65535	64623.55
834.492	752.2624	65535	64620.65
834.637	754.3439	65535	64619.9
834.782	756.4247	65535	64615.75
834.9269	758.5048	65535	64624.4
835.0719	760.5843	65535	64621.45
835.2169	762.6631	65535	64622.2
835.3619	764.7413	65535	64622.8
835.5069	766.8188	65535	64621.1
835.6519	768.8956	65535	64623.4
835.7969	770.9718	65535	64619.45
835.9419	773.0473	65535	64624.7
836.0869	775.1221	65535	64620.6
836.232	777.1962	65535	64624.1
836.377	779.2697	65535	64618.4
836.522	781.3426	65535	64601.4
836.667	783.4147	65535	64623.3
836.8121	785.4862	65535	64622.25
836.9571	787.557	65535	64621.1
837.1021	789.6271	65535	64617.4
837.2472	791.6966	65535	64618
837.3922	793.7654	65535	64619.3
837.5373	795.8335	65535	64619.2
837.6823	797.901	65535	64623.05
837.8274	799.9678	65535	64617.8
837.9724	802.0339	65535	64618.25
838.1175	804.0993	65535	64608.65
838.2626	806.1641	65535	64622.1
838.4076	808.2282	65535	64622.3
838.5527	810.2916	65535	64619.35
838.6978	812.3544	65535	64620.95
838.8428	814.4164	65535	64622.45
838.9879	816.4778	65535	64620
839.133	818.5385	65535	64617.1
839.2781	820.5986	65535	64617.95
839.4232	822.658	65535	64617.5
839.5682	824.7166	65535	64620.6
839.7133	826.7747	65535	64624.05
839.8584	828.832	65535	64616.45
840.0035	830.8886	65535	64614.1
840.1486	832.9446	65535	64618.4
840.2937	834.9999	65535	64619.6
840.4388	837.0545	65535	64614.75
840.5839	839.1085	65535	64618.6
840.729	841.1618	65535	64612.1
840.8741	843.2143	65535	64616.1
841.0192	845.2662	65535	64619
841.1643	847.3175	65535	64616.7
841.3095	849.368	65535	64619.4
841.4546	851.4179	65535	64616.55
841.5997	853.467	65535	64620.25
841.7448	855.5155	65535	64617.1
841.8899	857.5633	65535	64617.55
842.0351	859.6105	65535	64617.55
842.1802	861.6569	65535	64619.2
842.3253	863.7027	65535	64613.15
842.4704	865.7478	65535	64615.95
842.6156	867.7922	65535	64619.25
842.7607	869.8359	65535	64616.85
842.9058	871.8789	65535	64616.2
843.0509	873.9212	65535	64585.25
843.1961	875.9629	65535	64616.95
843.3412	878.0039	65535	64617.95
843.4863	880.0441	65535	64617
843.6315	882.0837	65535	64616.7
843.7766	884.1226	65535	64616.5
843.9218	886.1609	65535	64617.15
844.0669	888.1984	65535	64618.7
844.212	890.2352	65535	64619.75
844.3572	892.2714	65535	64610.3
844.5023	894.3069	65535	64613.95
844.6475	896.3416	65535	64616.25
844.7926	898.3757	65535	64615.5
844.9377	900.4091	65535	64614.65
845.0829	902.4418	65535	64610.9
845.228	904.4739	65535	64614.05
845.3732	906.5052	65535	64615.1
845.5183	908.5358	65535	64613.6
845.6635	910.5658	65535	64611.3
845.8086	912.595	65535	64613.05
845.9538	914.6236	65535	64613.4
846.0989	916.6515	65535	64615.2
846.2441	918.6786	65535	64610.55
846.3892	920.7051	65535	64613.55
846.5344	922.7309	65535	64615.5
846.6795	924.756	65535	64616.35
846.8246	926.7804	65535	64613.4
846.9698	928.8041	65535	64614.8
847.1149	930.8272	65535	64614.6
847.2601	932.8495	65535	64613.55
847.4052	934.8711	65535	64612.1
847.5504	936.892	65535	64617.55
847.6955	938.9123	65535	64614.55
847.8407	940.9318	65535	64615
847.9858	942.9506	65531.95	64612.6
848.131	944.9688	65535	64610.9
848.2761	946.9862	65508.1	64589.8
848.4213	949.003	65524.5	64604.45
848.5664	951.019	65482.95	64562.25
848.7115	953.0344	65502.2	64581.1
848.8567	955.0491	65494.25	64572.85
849.0018	957.063	65513.35	64593.35
849.147	959.0763	65515.4	64589.05
849.2921	961.0888	65469.85	64546.1
849.4373	963.1007	65503.95	64583.45
849.5824	965.1119	65504.45	64587.65
849.7275	967.1223	65452.4	64538.6
849.8727	969.1321	65509.35	64596.35
850.0178	971.1412	65431.4	64513.1
850.1629	973.1495	65389.15	64469.25
850.3081	975.1572	65446.8	64472.15
850.4532	977.1641	65392.5	64472.75
850.5983	979.1704	65401.8	64481.3
850.7435	981.1759	65396	64469.7
850.8886	983.1808	65338.6	64414.25
851.0337	985.1849	65343.2	64409.1
851.1788	987.1884	65395.75	64471.2
851.324	989.1911	65432.2	64507.2
851.4691	991.1932	65250.1	64329.8
851.6142	993.1945	65295.9	64377.6
851.7593	995.1951	65347.25	64425.35
851.9045	997.1951	65249	64322.8
852.0496	999.1943	65237.25	64313.55
852.1947	1001.1928	65200.9	64281.35
852.3398	1003.1906	65219.65	64296.65
852.4849	1005.1877	64989.6	64068.2
852.63	1007.1841	64926.85	64007.85
852.7751	1009.1798	64931.75	64010.85
852.9202	1011.1748	64908.65	63989.8
853.0653	1013.1691	64870.5	63949.6
853.2104	1015.1627	63810.15	62890.75
853.3555	1017.1556	64428.35	63511
853.5006	1019.1477	64493.2	63575.35
853.6457	1021.1392	64045.75	63130.1
853.7908	1023.1299	63328.35	62412.7
853.9359	1025.12	63885.5	62972.3
854.081	1027.1093	63532.8	62625.3
854.2261	1029.0979	63544.8	62640.4
854.3712	1031.0859	63377.55	62467.8
854.5163	1033.0731	62785.9	61871.1
854.6613	1035.0596	63124.9	62212.4
854.8064	1037.0454	62907.5	61990.55
854.9515	1039.0304	62582.55	61663.45
855.0965	1041.0148	61527.15	60609.5
855.2416	1042.9985	61755.95	60835.5
855.3867	1044.9814	62402.35	61484.25
855.5317	1046.9636	61290.15	60370.7
855.6768	1048.9452	61530.15	60615.65
855.8219	1050.926	61210.65	60292.95
855.9669	1052.9061	61180.7	60262.3
856.112	1054.8855	61157.65	60236.8
856.257	1056.8642	60694.3	59777.5
856.4021	1058.8421	60241.4	59317.75
856.5471	1060.8194	60393.85	59473.95
856.6921	1062.7959	59827.2	58908
856.8372	1064.7717	60454.55	59535
856.9822	1066.7469	60091.6	59172.4
857.1272	1068.7213	60021.5	59100.9
857.2723	1070.695	59484.8	58566.7
857.4173	1072.6679	58918.5	57998.45
857.5623	1074.6402	59335.15	58414.6
857.7073	1076.6117	58678.65	57752.75
857.8523	1078.5826	58685.2	57764.45
857.9973	1080.5527	58802.3	57882.2
858.1423	1082.5221	58451.8	57533.65
858.2873	1084.4908	58662.35	57744.3
858.4323	1086.4587	58600.7	57679.55
858.5773	1088.426	58685.75	57766.65
858.7223	1090.3925	58516.8	57591.1
858.8673	1092.3584	58304.2	57383.4
859.0123	1094.3235	57572.6	56654.95
859.1573	1096.2879	57403.95	56482.8
859.3022	1098.2515	57453.95	56534.3
859.4472	1100.2145	57131.1	56210.15
859.5922	1102.1767	56992.05	56071.65
859.7371	1104.1382	57234.6	56314.8
859.8821	1106.099	57059	56137.4
860.027	1108.0591	57024.95	56105.65
860.172	1110.0185	56323.85	55406.3
860.3169	1111.9771	57008.5	56090.15
860.4619	1113.9351	56355.95	55437.25
860.6068	1115.8923	55763.5	54844.3
860.7517	1117.8488	55147.3	54223.35
860.8967	1119.8045	54516.75	53598.45
861.0416	1121.7596	54503.75	53585.35
861.1865	1123.7139	54161.9	53245.3
861.3314	1125.6675	54140.45	53225.25
861.4763	1127.6204	54021.1	53102.95
861.6212	1129.5726	53602.3	52681.75
861.7661	1131.524	53801.35	52883.65
861.911	1133.4748	53863.5	52943.35
862.0559	1135.4248	53506.05	52585.35
862.2008	1137.3741	53494.85	52578.35
862.3457	1139.3226	53278.05	52357.55
862.4905	1141.2705	53170.35	52253.35
862.6354	1143.2176	52872.3	51948.05
862.7803	1145.164	52563.95	51641.85
862.9251	1147.1097	52561.4	51640.35
863.07	1149.0546	52478.95	51558.4
863.2148	1150.9989	52416.55	51495.75
863.3597	1152.9424	51945.2	51028.3
863.5045	1154.8852	51731.25	50810.8
863.6493	1156.8272	51447.7	50533.45
863.7942	1158.7686	51476.35	50553.1
863.939	1160.7092	50934.75	50015.35
864.0838	1162.6491	50763.7	49844.3
864.2286	1164.5883	50855.8	49936.8
864.3734	1166.5267	50573.3	49654.7
864.5182	1168.4644	50755.65	49838.35
864.663	1170.4014	50724.95	49800.75
864.8078	1172.3377	50955.95	50039.3
864.9526	1174.2732	51135.8	50220.05
865.0974	1176.2081	50973.95	50057.5
865.2421	1178.1421	50992.05	50068.55
865.3869	1180.0755	51198.45	50280.85
865.5317	1182.0082	50866	49947.65
865.6764	1183.9401	50731.35	49812.6
865.8212	1185.8713	50243.45	49328.5
865.9659	1187.8017	49947.8	49037
866.1106	1189.7315	49641	48734
866.2554	1191.6605	49058	48149.95
866.4001	1193.5888	48672.65	47762.05
866.5448	1195.5163	48457.85	47547.1
866.6895	1197.4432	48227.3	47314.45
866.8342	1199.3693	48013.5	47098.75
866.9789	1201.2947	47710.2	46785.4
867.1236	1203.2193	47541.95	46624.4
867.2683	1205.1432	47389.2	46472.9
867.413	1207.0664	47378.85	46460.7
867.5576	1208.9889	47225	46304.45
867.7023	1210.9106	47101.75	46186.95
867.847	1212.8316	46952.65	46036.1
867.9916	1214.7519	46935.25	46012.6
868.1363	1216.6715	46731.4	45814.9
868.2809	1218.5903	46583.15	45663.4
868.4255	1220.5084	46392.65	45476.3
868.5701	1222.4257	46296.65	45380.8
868.7148	1224.3424	45960	45048.85
868.8594	1226.2583	45920.25	44999.9
869.004	1228.1735	45886.6	44968.35
869.1486	1230.0879	45753.6	44838.45
869.2932	1232.0016	45762.15	44848.1
869.4377	1233.9146	45618.5	44698.95
869.5823	1235.8269	45363.5	44450.45
869.7269	1237.7384	45188.55	44273.95
869.8715	1239.6492	44804.05	43889.75
870.016	1241.5592	44623.4	43705.25
870.1606	1243.4686	44313.75	43397.95
870.3051	1245.3772	44164.5	43249.9
870.4496	1247.285	43919.35	43005.15
870.5941	1249.1922	43734.5	42819.4
870.7387	1251.0986	43640.35	42727.1
870.8832	1253.0042	43387.35	42471.6
871.0277	1254.9092	43408.7	42494.35
871.1722	1256.8134	43320.25	42406.8
871.3167	1258.7169	43438.7	42519.4
871.4611	1260.6196	43430.8	42517.1
871.6056	1262.5216	43545.25	42629.5
871.7501	1264.4229	43524.75	42609.65
871.8945	1266.3234	43574.5	42661.05
872.039	1268.2232	43460.6	42544
872.1834	1270.1223	43327.6	42410.25
872.3278	1272.0207	43201.65	42284.95
872.4723	1273.9183	43042.95	42121.5
872.6167	1275.8151	42836.6	41920.9
872.7611	1277.7113	42670.05	41755.5
872.9055	1279.6067	42337.45	41426.65
873.0499	1281.5014	42034.4	41118.5
873.1943	1283.3953	41817.7	40899.95
873.3386	1285.2885	41638.05	40721.55
873.483	1287.181	41465.6	40550.15
873.6274	1289.0727	41492.7	40581.05
873.7717	1290.9637	41254.75	40339.75
873.9161	1292.854	41407.65	40491.15
874.0604	1294.7435	41338.4	40423.7
874.2047	1296.6323	41481.15	40567.55
874.349	1298.5204	41631.4	40715.2
874.4933	1300.4077	41824.1	40907.25
874.6376	1302.2943	41926.1	41013.25
874.7819	1304.1802	41987.85	41074
874.9262	1306.0653	41742.1	40824.1
875.0705	1307.9497	41574.8	40661.45
875.2147	1309.8333	41433.6	40520.65
875.359	1311.7162	41326.9	40412.95
875.5032	1313.5984	41376.1	40460.85
875.6475	1315.4798	41312.45	40383.1
875.7917	1317.3605	41355.8	40439.15
875.9359	1319.2405	41507.8	40592.65
876.0801	1321.1197	41457.95	40539.35
876.2243	1322.9982	41297.15	40378.5
876.3685	1324.876	41277.55	40363.5
876.5127	1326.753	41089.35	40175.7
876.6569	1328.6293	41087.5	40169.1
876.801	1330.5048	41116.2	40198.85
876.9452	1332.3796	40872.5	39958.3
877.0893	1334.2537	40813.15	39874.25
877.2335	1336.127	40607	39690.9
877.3776	1337.9996	40501.4	39588.5
877.5217	1339.8714	40357.55	39444.75
877.6658	1341.7426	40195.55	39239.4
877.8099	1343.6129	40045.8	39131
877.954	1345.4826	39874.8	38957.4
878.0981	1347.3515	39822.45	38906.8
878.2422	1349.2196	39702.75	38786
878.3862	1351.087	39594.55	38681.5
878.5303	1352.9537	39574.25	38659.55
878.6743	1354.8197	39644.15	38729.85
878.8184	1356.6849	39717	38803.85
878.9624	1358.5493	39713.2	38800
879.1064	1360.4131	39599.8	38685.6
879.2504	1362.276	39401	38489.1
879.3944	1364.1383	39095.9	38181.6
879.5384	1365.9998	38789.35	37872.65
879.6823	1367.8606	38391.15	37477.4
879.8263	1369.7206	38062.35	37147.8
879.9702	1371.5799	37789	36870.95
880.1142	1373.4384	37545.25	36631.9
880.2581	1375.2962	37398	36483.45
880.402	1377.1533	37024.95	36110.7
880.5459	1379.0096	36540	35627.55
880.6898	1380.8652	36175.95	35266.05
880.8337	1382.7201	35868.45	34957
880.9776	1384.5742	35497.9	34585.6
881.1215	1386.4275	35186.35	34271.3
881.2653	1388.2802	35021.8	34111.3
881.4092	1390.132	34802.8	33892.7
881.553	1391.9832	34679.75	33768.25
881.6968	1393.8336	34425.5	33513
881.8406	1395.6832	34276.2	33357.9
881.9844	1397.5322	34135.7	33223.55
882.1282	1399.3803	34027.45	33110
882.272	1401.2278	33801.55	32888.55
882.4158	1403.0745	33695.25	32783.75
882.5595	1404.9204	33520.9	32611.35
882.7033	1406.7656	33497.7	32584.55
882.847	1408.6101	33364.4	32453.45
882.9908	1410.4538	33225.7	32312.8
883.1345	1412.2968	33172.95	32262.1
883.2782	1414.139	33012.1	32098
883.4219	1415.9805	33054.85	32143.8
883.5656	1417.8213	32989.7	32056.85
883.7092	1419.6613	33035.5	32122.6
883.8529	1421.5006	33196.95	32285
883.9965	1423.3391	33297.4	32385.75
884.1402	1425.1769	33538.4	32625.7
884.2838	1427.0139	33969.05	33058.5
884.4274	1428.8502	34516.15	33604.75
884.571	1430.6858	35030.2	34121.35
884.7146	1432.5206	35236.5	34323.5
884.8582	1434.3547	35488.8	34579.25
885.0018	1436.188	35487.6	34575.15
885.1453	1438.0206	35394.4	34482.5
885.2889	1439.8524	35082.65	34169.2
885.4324	1441.6835	34927.05	34017.45
885.5759	1443.5139	34784.05	33869.5
885.7194	1445.3435	34608.2	33697.25
885.8629	1447.1724	34520.1	33610
886.0064	1449.0005	34333.4	33423.45
886.1499	1450.8279	34158.2	33245.25
886.2933	1452.6545	34073.85	33163.15
886.4368	1454.4804	34107.65	33196.8
886.5802	1456.3056	33992.2	33075.25
886.7237	1458.13	33812.9	32904.6
886.8671	1459.9536	33623.8	32713.9
887.0105	1461.7766	33197	32288.4
887.1539	1463.5987	32653.9	31745.8
887.2972	1465.4202	32199.35	31285.65
887.4406	1467.2409	31741.9	30830.9
887.584	1469.0608	31447.9	30535.6
887.7273	1470.88	31098.5	30186.25
887.8706	1472.6984	30821.35	29912.1
888.0139	1474.5161	30522.6	29609.15
888.1572	1476.3331	30259.4	29350.35
888.3005	1478.1493	30130.75	29220.85
888.4438	1479.9648	30007.3	29095.85
888.5871	1481.7795	29805.05	28893.45
888.7303	1483.5935	29723.35	28812.35
888.8736	1485.4067	29576.15	28665.8
889.0168	1487.2192	29549.2	28639.8
889.16	1489.031	29432.85	28521.55
889.3032	1490.842	29307.25	28397.45
889.4464	1492.6522	29227.6	28316.55
889.5896	1494.4618	29131.2	28221.75
889.7327	1496.2705	29075.05	28165.7
889.8759	1498.0785	28990.45	28077.75
890.019	1499.8858	28896	27987.4
890.1622	1501.6924	28798.7	27889
890.3053	1503.4981	28727.05	27816.95
890.4484	1505.3032	28653.45	27743.8
890.5914	1507.1075	28534.75	27625.55
890.7345	1508.911	28432.1	27523.75
890.8776	1510.7138	28360.25	27449.85
891.0206	1512.5159	28207.45	27298.15
891.1637	1514.3172	28123.05	27215.9
891.3067	1516.1178	27980.1	27072.75
891.4497	1517.9176	27912.9	27002.15
891.5927	1519.7166	27802.7	26893.6
891.7357	1521.515	27694.2	26779.6
891.8786	1523.3126	27649.1	26740.7
892.0216	1525.1094	27531.95	26621.05
892.1645	1526.9055	27446.9	26538.2
892.3074	1528.7008	27309.35	26401.2
892.4503	1530.4954	27146.05	26233.5
892.5932	1532.2893	27094.45	26187.75
892.7361	1534.0824	26954.75	26040.4
892.879	1535.8747	26913.25	26005.2
893.0218	1537.6663	26823.05	25913.15
893.1647	1539.4572	26724.75	25815.15
893.3075	1541.2473	26651.8	25743.75
893.4503	1543.0367	26524.5	25619.7
893.5931	1544.8253	26419.7	25511.1
893.7359	1546.6132	26417.5	25509.3
893.8787	1548.4003	26270.95	25353.5
894.0214	1550.1867	26252.45	25339.15
894.1642	1551.9723	26217.75	25305.55
894.3069	1553.7572	26134.6	25229.55
894.4496	1555.5414	26052.75	25149.45
894.5923	1557.3247	26026.2	25119.5
894.735	1559.1074	25996.9	25094.35
894.8777	1560.8893	25935.25	25034.1
895.0204	1562.6705	25912.3	25008.3
895.163	1564.4509	25924.5	25021.05
895.3056	1566.2305	25897.7	24997.1
895.4482	1568.0094	25981.2	25081.45
895.5908	1569.7876	26056.35	25155.6
895.7334	1571.565	26044.95	25140.9
895.876	1573.3417	26019.45	25117.4
896.0186	1575.1176	25986.15	25084.75
896.1611	1576.8928	25881.15	24980.1
896.3036	1578.6672	25763.1	24866
896.4461	1580.4409	25512.3	24616.25
896.5886	1582.2138	25337.55	24436.9
896.7311	1583.986	25135.15	24234.45
896.8736	1585.7575	25036.95	24133.25
897.0161	1587.5282	24859.8	23959.85
897.1585	1589.2981	24780.25	23885.05
897.3009	1591.0673	24542.65	23646.1
897.4433	1592.8358	24538.5	23640.35
897.5857	1594.6035	24473.95	23570.9
897.7281	1596.3704	24342.4	23440.4
897.8705	1598.1366	24282.6	23383.8
898.0128	1599.9021	24301.05	23402.95
898.1551	1601.6668	24173.45	23273.05
898.2975	1603.4308	24139.1	23236.8
898.4398	1605.194	24193.8	23290.1
898.5821	1606.9564	24197.75	23302.45
898.7243	1608.7182	24209.4	23311.5
898.8666	1610.4791	24286.75	23394.8
899.0088	1612.2394	24343.25	23452.35
899.1511	1613.9988	24429.8	23537.1
899.2933	1615.7576	24577.85	23682.8
899.4355	1617.5156	24795.95	23888.75
899.5776	1619.2728	25068.85	24169.45
899.7198	1621.0293	25166.05	24267.8
899.862	1622.785	25152.8	24255.85
900.0041	1624.54	24985.55	24091.3
900.1462	1626.2942	24846.25	23951.9
900.2883	1628.0477	24437.2	23539.1
900.4304	1629.8005	24161.35	23261.15
900.5725	1631.5525	23911.55	23017.6
900.7145	1633.3037	23593.1	22698.2
900.8566	1635.0542	23437.65	22541.25
900.9986	1636.804	23207.05	22311.5
901.1406	1638.553	23133.8	22194.15
901.2826	1640.3013	22913.3	22016.9
901.4245	1642.0488	22807.55	21911.45
901.5665	1643.7955	22733.05	21840.95
901.7085	1645.5416	22703.7	21809.2
901.8504	1647.2868	22712.2	21818.9
901.9923	1649.0313	22717.6	21821.75
902.1342	1650.7751	22828.8	21930.45
902.2761	1652.5181	22928.2	22035.6
902.4179	1654.2604	23054.55	22159.25
902.5598	1656.0019	23336.35	22444.55
902.7016	1657.7427	23636.55	22740.95
902.8434	1659.4828	23974.95	23080.75
902.9852	1661.222	24157.45	23257.35
903.127	1662.9606	24159.25	23263.85
903.2687	1664.6984	23953.75	23057.8
903.4105	1666.4354	23651.3	22753.15
903.5522	1668.1717	23127.1	22229.5
903.6939	1669.9072	22572.05	21677.35
903.8356	1671.642	22187.75	21289.5
903.9773	1673.3761	21903.4	21009.55
904.119	1675.1094	21622.05	20726.65
904.2606	1676.8419	21337.6	20441.35
904.4022	1678.5737	21159.65	20264.2
904.5439	1680.3048	21018.2	20122.15
904.6855	1682.0351	20839.75	19942.05
904.827	1683.7646	20676.3	19778.65
904.9686	1685.4934	20565.35	19672.55
905.1101	1687.2215	20470.05	19575.05
905.2517	1688.9488	20361	19465.6
905.3932	1690.6754	20253.1	19358.5
905.5347	1692.4012	20203.3	19305.55
905.6761	1694.1263	20135.95	19241.55
905.8176	1695.8506	20026.3	19134.2
905.9591	1697.5742	19946.4	19053.4
906.1005	1699.297	19868.95	18978.6
906.2419	1701.0191	19751.55	18859.15
906.3833	1702.7404	19661.85	18770.1
906.5246	1704.461	19498.55	18603
906.666	1706.1808	19459.3	18563.1
906.8073	1707.8999	19412.7	18518.4
906.9487	1709.6182	19378.95	18490.4
907.09	1711.3358	19288.8	18398.8
907.2313	1713.0527	19221.85	18333.1
907.3725	1714.7688	19162	18262.95
907.5138	1716.4841	19070.15	18175.95
907.655	1718.1987	19049.9	18154.4
907.7962	1719.9126	18948.55	18057.5
907.9374	1721.6257	18866.2	17972.45
908.0786	1723.338	18842.1	17952.8
908.2198	1725.0496	18712	17821.15
908.3609	1726.7605	18683.65	17790.3
908.502	1728.4706	18612.1	17720.9
908.6431	1730.18	18493.4	17600.7
908.7842	1731.8886	18422.3	17535.4
908.9253	1733.5964	18435.7	17525.15
909.0664	1735.3036	18377	17483.9
909.2074	1737.0099	18329.05	17436.3
909.3484	1738.7156	18283.2	17393.35
909.4894	1740.4204	18167.05	17275.1
909.6304	1742.1246	18155.65	17265.5
909.7714	1743.8279	18083.55	17194
909.9123	1745.5306	18050.1	17161.45
910.0532	1747.2325	17992.2	17103.5
910.1941	1748.9336	17910	17022.05
910.335	1750.634	17846.2	16955.8
910.4759	1752.3336	17804.8	16914.2
910.6168	1754.0325	17796.65	16907.35
910.7576	1755.7307	17718.3	16830.4
910.8984	1757.4281	17718.9	16828.75
911.0392	1759.1247	17686.5	16787.85
911.18	1760.8206	17628.05	16732.3
911.3208	1762.5158	17582.15	16686.4
911.4615	1764.2102	17527.55	16638.2
911.6022	1765.9039	17451.5	16562.65
911.7429	1767.5968	17392.5	16504.9
911.8836	1769.289	17315.1	16426.85
912.0243	1770.9804	17288	16397.65
912.1649	1772.6711	17291	16397.85
912.3056	1774.361	17241.3	16348.25
912.4462	1776.0502	17210.4	16321.9
912.5868	1777.7386	17121.45	16229.75
912.7274	1779.4263	17090.3	16200.9
912.8679	1781.1132	17060	16172.05
913.0084	1782.7994	16981.3	16091.85
913.149	1784.4849	16954.1	16069.25
913.2895	1786.1696	16937	16030.5
913.4299	1787.8535	16817.85	15930.25
913.5704	1789.5367	16779.45	15893.65
913.7108	1791.2192	16782.95	15896.4
913.8513	1792.9009	16710.85	15792.8
913.9917	1794.5818	16714.7	15825.25
914.132	1796.2621	16638.05	15749.6
914.2724	1797.9415	16590.15	15701.65
914.4128	1799.6202	16513.85	15624.8
914.5531	1801.2982	16491.4	15602.25
914.6934	1802.9755	16449.7	15559.75
914.8337	1804.6519	16451.3	15565.1
914.9739	1806.3277	16345.6	15457.6
915.1142	1808.0027	16308.85	15422.55
915.2544	1809.6769	16286.35	15400.8
915.3946	1811.3504	16224.65	15336.7
915.5348	1813.0231	16167.6	15282.25
915.675	1814.6951	16159.3	15273.55
915.8151	1816.3664	16124.2	15233.9
915.9553	1818.0369	16101.6	15214.05
916.0954	1819.7067	16008.25	15121.3
916.2355	1821.3757	15973.8	15083.4
916.3755	1823.044	15938.8	15048.55
916.5156	1824.7115	15904.75	15013.5
916.6556	1826.3783	15839.6	14952.4
916.7956	1828.0443	15791.05	14904.3
916.9356	1829.7096	15776.9	14889.9
917.0756	1831.3741	15758.8	14866.5
917.2155	1833.0379	15718.1	14831.9
917.3555	1834.701	15685.15	14796.1
917.4954	1836.3633	15614.75	14729.4
917.6353	1838.0248	15588.2	14698.7
917.7751	1839.6856	15558.95	14672.2
917.915	1841.3457	15551.75	14665.05
918.0548	1843.005	15501.4	14614.95
918.1946	1844.6636	15456.55	14569.15
918.3344	1846.3214	15380.05	14491.65
918.4742	1847.9785	15393.4	14506.7
918.6139	1849.6349	15351.65	14461
918.7537	1851.2904	15318.2	14422.2
918.8934	1852.9453	15250.35	14363.05
919.0331	1854.5994	15234.9	14342.95
919.1727	1856.2528	15220	14325.75
919.3124	1857.9054	15186.75	14299.1
919.452	1859.5572	15137.1	14248.15
919.5916	1861.2083	15121.25	14234.25
919.7312	1862.8587	15116.85	14228.15
919.8708	1864.5084	15066.75	14174.4
920.0103	1866.1572	15027.9	14138.95
920.1498	1867.8054	14948.8	14057.6
920.2893	1869.4528	14908.1	14019.65
920.4288	1871.0994	14886.55	13999.6
920.5683	1872.7453	14860	13970.35
920.7077	1874.3905	14771.95	13877
920.8471	1876.0349	14739.75	13850.9
920.9865	1877.6786	14736.85	13846.2
921.1259	1879.3215	14737.6	13852
921.2653	1880.9637	14715.8	13828.2
921.4046	1882.6051	14659.9	13772.55
921.5439	1884.2458	14639.65	13750.2
921.6832	1885.8858	14554.4	13666.45
921.8225	1887.525	14514.2	13624.35
921.9617	1889.1634	14476.95	13588.35
922.101	1890.8011	14413	13524.15
922.2402	1892.4381	14382.5	13495.4
922.3794	1894.0743	14369.25	13480.6
922.5185	1895.7098	14298.9	13411.7
922.6577	1897.3446	14287.2	13399
922.7968	1898.9786	14266.75	13374.05
922.9359	1900.6118	14207.95	13321.1
923.075	1902.2443	14141.7	13251.7
923.214	1903.8761	14118.9	13231.35
923.3531	1905.5071	14026.65	13137.9
923.4921	1907.1374	13978.1	13087.8
923.6311	1908.7669	13960.55	13073.95
923.77	1910.3957	13948.85	13062.6
923.909	1912.0237	13846.7	12958.8
924.0479	1913.651	13851.1	12961.6
924.1868	1915.2776	13799.65	12913.9
924.3257	1916.9034	13717.5	12830.9
924.4646	1918.5285	13663.6	12779.3
924.6034	1920.1528	13618.1	12729.6
924.7422	1921.7764	13585.8	12699.3
924.881	1923.3992	13557.35	12672.85
925.0198	1925.0213	13456.8	12568.2
925.1586	1926.6427	13400.95	12516.6
925.2973	1928.2633	13442.3	12485.85
925.436	1929.8832	13365.3	12479.2
925.5747	1931.5023	13307.4	12420.8
925.7134	1933.1207	13280.1	12391.7
925.852	1934.7383	13248.25	12357.95
925.9906	1936.3552	13174.25	12287.35
926.1292	1937.9714	13153.55	12265.7
926.2678	1939.5868	13080.65	12192.35
926.4064	1941.2015	13030.75	12142.15
926.5449	1942.8154	12986.75	12098.7
926.6834	1944.4286	12910.4	12023.2
926.8219	1946.041	12883.8	11978.55
926.9604	1947.6528	12813	11921.25
927.0988	1949.2637	12774.6	11887.65
927.2372	1950.8739	12771.95	11884.55
927.3756	1952.4834	12700.5	11814.15
927.514	1954.0921	12678.4	11791.6
927.6523	1955.7001	12640.45	11749.35
927.7907	1957.3074	12603.4	11717.8
927.929	1958.9139	12532.75	11648.75
928.0673	1960.5197	12498.1	11612.05
928.2055	1962.1247	12440.1	11553.6
928.3438	1963.729	12374.45	11493.55
928.482	1965.3325	12371.95	11464.65
928.6202	1966.9353	12313.45	11430.05
928.7584	1968.5374	12273.85	11387.65
928.8965	1970.1387	12228.15	11343.3
929.0346	1971.7393	12168.35	11282.2
929.1727	1973.3392	12147.4	11261.9
929.3108	1974.9383	12070.55	11186.05
929.4489	1976.5366	12020.1	11137
929.5869	1978.1342	12010.9	11126.55
929.7249	1979.7311	11984.45	11101.5
929.8629	1981.3273	11951.05	11067.5
930.0009	1982.9227	11924	11038.15
930.1388	1984.5173	11868.7	10985
930.2767	1986.1112	11820.6	10936.15
930.4146	1987.7044	11778.1	10895.7
930.5525	1989.2968	11735.65	10851
930.6904	1990.8885	11730.35	10842.15
930.8282	1992.4795	11701.75	10816.35
930.966	1994.0697	11667.75	10783.75
931.1038	1995.6592	11619.3	10736.05
931.2415	1997.2479	11581.4	10698.65
931.3793	1998.8359	11527.9	10646.05
931.517	2000.4232	11494.4	10611.45
931.6547	2002.0097	11454.3	10574.55
931.7923	2003.5955	11401.65	10518.95
931.93	2005.1805	11386.3	10501.4
932.0676	2006.7648	11361.35	10479.8
932.2052	2008.3484	11318.25	10434.15
932.3427	2009.9312	11363.65	10483.25
932.4803	2011.5133	11301.25	10421.95
932.6178	2013.0946	11268.2	10386.95
932.7553	2014.6752	11224.85	10343.95
932.8928	2016.2551	11199.65	10319.25
933.0302	2017.8342	11172.15	10289.85
933.1676	2019.4126	11117.15	10236.35
933.305	2020.9902	11068.25	10187.7
933.4424	2022.5672	11043.55	10160.2
933.5798	2024.1433	11017.15	10128.3
933.7171	2025.7188	10961.8	10081.25
933.8544	2027.2935	10931.2	10050.3
933.9917	2028.8674	10877.9	9998.5
934.129	2030.4406	10876.35	9996.3
934.2662	2032.0131	10793.9	9914.05
934.4034	2033.5849	10768.55	9883.75
934.5406	2035.1559	10771.25	9889.6
934.6778	2036.7261	10755.1	9874.45
934.8149	2038.2957	10726.3	9840.3
934.952	2039.8645	10687.85	9802.75
935.0891	2041.4325	10698.1	9813.45
935.2262	2042.9998	10624.15	9742.55
935.3632	2044.5664	10606.85	9723.6
935.5002	2046.1323	10571.8	9691.8
935.6372	2047.6974	10524.7	9645.35
935.7742	2049.2617	10502.9	9622.4
935.9111	2050.8254	10494.9	9609.3
936.048	2052.3883	10485.85	9600.85
936.1849	2053.9504	10453.1	9568.8
936.3218	2055.5118	10415.65	9532.45
936.4586	2057.0725	10350.75	9464.3
936.5955	2058.6325	10333.1	9448.35
936.7323	2060.1917	10275.4	9394
936.869	2061.7502	10268.45	9385.85
937.0058	2063.3079	10220.45	9340.55
937.1425	2064.8649	10206.15	9320.45
937.2792	2066.4212	10202.55	9321.3
937.4159	2067.9767	10142	9260.85
937.5525	2069.5315	10122.55	9241.25
937.6891	2071.0856	10068.05	9186.25
937.8257	2072.6389	10019.2	9137
937.9623	2074.1915	9992.75	9111.95
938.0989	2075.7433	9924.4	9039.55
938.2354	2077.2945	9916.15	9034.25
938.3719	2078.8448	9877.35	8992.65
938.5084	2080.3945	9861.1	8977.8
938.6448	2081.9434	9817.15	8934.1
938.7812	2083.4916	9791.85	8906.6
938.9176	2085.039	9761.3	8876.95
939.054	2086.5857	9754.5	8869.1
939.1903	2088.1317	9726.85	8840.65
939.3267	2089.677	9723.45	8835.85
939.463	2091.2215	9666.5	8781.05
939.5992	2092.7652	9653.95	8765.55
939.7355	2094.3083	9631.8	8744.7
939.8717	2095.8506	9606.9	8723.95
940.0079	2097.3921	9607.15	8723.55
940.1441	2098.933	9558.2	8672.85
940.2802	2100.4731	9522.45	8641.05
940.4163	2102.0124	9505.4	8614.1
940.5524	2103.5511	9496	8612.35
940.6885	2105.089	9465	8580.4
940.8245	2106.6261	9419.65	8536.8
940.9606	2108.1626	9414.65	8529.55
941.0965	2109.6983	9398.85	8487.15
941.2325	2111.2332	9363.1	8478.85
941.3684	2112.7675	9324.5	8439.55
941.5044	2114.301	9307.9	8422.6
941.6403	2115.8337	9290.15	8405.3
941.7761	2117.3657	9252.9	8366.9
941.912	2118.897	9236.6	8352.2
942.0478	2120.4276	9235.9	8346.1
942.1835	2121.9575	9189.3	8302.3
942.3193	2123.4866	9176.25	8288.5
942.455	2125.0149	9163.75	8277.45
942.5907	2126.5426	9095.4	8213.05
942.7264	2128.0695	9095.3	8207.35
942.8621	2129.5956	9055.2	8174.15
942.9977	2131.1211	9028.95	8142.2
943.1333	2132.6458	9016.95	8133.8
943.2689	2134.1698	9005.1	8120.15
943.4044	2135.693	8951.85	8065.2
943.54	2137.2155	8939.55	8052.15
943.6755	2138.7373	8937.85	8053.1
943.8109	2140.2584	8914.3	8031.45
943.9464	2141.7787	8855.35	7966.55
944.0818	2143.2983	8829.5	7948.25
944.2172	2144.8171	8792.65	7912.3
944.3526	2146.3353	8766.5	7881.9
944.4879	2147.8527	8748	7864.65
944.6232	2149.3693	8720.7	7835.25
944.7585	2150.8853	8690.5	7806.65
944.8938	2152.4005	8669.45	7784.45
945.029	2153.9149	8649.6	7764.4
945.1642	2155.4287	8724.85	7731.2
945.2994	2156.9417	8624.1	7736.8
945.4346	2158.454	8597.3	7712.3
945.5697	2159.9655	8565.55	7681.45
945.7048	2161.4764	8540.4	7657.45
945.8399	2162.9865	8502.6	7620.1
945.9749	2164.4958	8469.5	7586.8
946.1099	2166.0045	8447.75	7562.25
946.2449	2167.5124	8437.65	7554.75
946.3799	2169.0195	8408.95	7524.25
946.5148	2170.526	8408.25	7522.9
946.6498	2172.0317	8362.2	7478.05
946.7846	2173.5367	8351.6	7465.25
946.9195	2175.0409	8311.15	7426.95
947.0543	2176.5445	8310.2	7426.35
947.1891	2178.0473	8273.65	7386.7
947.3239	2179.5494	8236.75	7349.05
947.4587	2181.0507	8224.8	7338.95
947.5934	2182.5513	8197.4	7312.75
947.7281	2184.0512	8192.5	7308.9
947.8628	2185.5504	8140.25	7254.5
947.9974	2187.0488	8084.65	7201.55
948.132	2188.5465	8073.8	7191.6
948.2666	2190.0435	8073.5	7189.5
948.4012	2191.5397	8042.4	7156.45
948.5357	2193.0353	8019.35	7136.1
948.6702	2194.5301	7973.4	7088.05
948.8047	2196.0241	7969.55	7083.2
948.9392	2197.5175	7940.6	7055.7
949.0736	2199.0101	7915.85	7026.1
949.208	2200.502	7855.45	6970.1
949.3424	2201.9931	7812.5	6927.9
949.4767	2203.4835	7806.45	6923.2
949.611	2204.9733	7817.65	6919.15
949.7453	2206.4622	7777.3	6894.6
949.8796	2207.9505	7750.35	6867.35
950.0138	2209.438	7700.7	6820.65
950.148	2210.9248	7689.35	6807.8
950.2822	2212.4109	7670.6	6787.8
950.4164	2213.8962	7649.35	6760.85
950.5505	2215.3809	7627.85	6741.25
950.6846	2216.8648	7614.65	6728.2
950.8186	2218.3479	7598.9	6709.45
950.9527	2219.8304	7576.05	6684.7
951.0867	2221.3121	7534.05	6644.75
951.2207	2222.7931	7490.15	6605.95
951.3546	2224.2733	7483	6595.5
951.4886	2225.7529	7458.45	6573.75
951.6225	2227.2317	7432.75	6545.25
951.7563	2228.7098	7414.1	6531.35
951.8902	2230.1872	7364.75	6482.75
952.024	2231.6638	7367.1	6484.95
952.1578	2233.1397	7349.85	6463.15
952.2916	2234.6149	7325.55	6441.55
952.4253	2236.0894	7297.85	6413
952.559	2237.5632	7307	6421.6
952.6927	2239.0362	7268	6384
952.8263	2240.5085	7248.7	6365.6
952.9599	2241.9801	7215.3	6330.05
953.0935	2243.4509	7204.55	6320.05
953.2271	2244.921	7154	6270.05
953.3606	2246.3904	7125.15	6238.3
953.4941	2247.8591	7101.75	6219.35
953.6276	2249.3271	7093.5	6209.5
953.7611	2250.7943	7059.05	6171.55
953.8945	2252.2608	7035.1	6150.65
954.0279	2253.7266	7052.95	6168.9
954.1612	2255.1917	7022.7	6138.25
954.2946	2256.656	6984.1	6099.9
954.4279	2258.1197	6956.95	6073.6
954.5612	2259.5826	6937.55	6052.8
954.6944	2261.0447	6930.8	6045.45
954.8276	2262.5062	6903	6015.9
954.9608	2263.9669	6891.5	6004.9
955.094	2265.4269	6881.15	5994.9
955.2271	2266.8862	6842.5	5958.5
955.3602	2268.3448	6829.85	5947
955.4933	2269.8026	6810.15	5925.5
955.6264	2271.2598	6786.05	5902.05
955.7594	2272.7162	6780.7	5895.7
955.8924	2274.1719	6756.4	5869
956.0253	2275.6268	6735.55	5849.45
956.1583	2277.0811	6726.8	5840.05
956.2912	2278.5346	6706.45	5823.15
956.4241	2279.9874	6688.55	5804
956.5569	2281.4395	6672.8	5790.9
956.6897	2282.8908	6641.05	5754.25
956.8225	2284.3414	6641.65	5755.35
956.9553	2285.7914	6606.7	5724.75
957.088	2287.2406	6593.5	5704.7
957.2207	2288.689	6588	5702.2
957.3534	2290.1368	6576.1	5690.75
957.486	2291.5838	6526.3	5636.9
957.6186	2293.0302	6533.7	5645.35
957.7512	2294.4758	6477.9	5593.35
957.8838	2295.9206	6467.4	5580.55
958.0163	2297.3648	6461	5577.05
958.1488	2298.8082	6443.75	5557.75
958.2813	2300.251	6424.35	5540.25
958.4137	2301.693	6381.1	5493.45
958.5461	2303.1343	6401.15	5514.15
958.6785	2304.5748	6405.55	5521.25
958.8108	2306.0147	6363	5480.1
958.9432	2307.4538	6340.9	5453.15
959.0754	2308.8922	6304.65	5422.35
959.2077	2310.3299	6299.25	5414.95
959.3399	2311.7669	6268.15	5384.15
959.4721	2313.2031	6259.45	5374.8
959.6043	2314.6387	6232.2	5346.5
959.7365	2316.0735	6208.65	5324.6
959.8686	2317.5076	6205.25	5319.4
960.0006	2318.941	6174.9	5288.35
960.1327	2320.3737	6157.15	5272.9
960.2647	2321.8056	6144.65	5256.8
960.3967	2323.2369	6137.5	5251.95
960.5287	2324.6674	6114.1	5227.8
960.6606	2326.0972	6086.75	5199.3
960.7925	2327.5263	6067.95	5182.25
960.9244	2328.9547	6057.3	5172.85
961.0562	2330.3823	6047.2	5160.65
961.1881	2331.8092	6026.65	5135.6
961.3198	2333.2355	6004.9	5117.75
961.4516	2334.661	6020.9	5135.95
961.5833	2336.0858	5986.1	5100.1
961.715	2337.5098	5966.6	5082.1
961.8467	2338.9332	5957.25	5070.4
961.9783	2340.3558	5929.15	5041.2
962.1099	2341.7778	5916.5	5032.75
962.2415	2343.199	5895.9	5008.9
962.373	2344.6195	5877.05	4992.05
962.5045	2346.0393	5860.45	4974
962.636	2347.4583	5856	4970.4
962.7675	2348.8767	5822.8	4935
962.8989	2350.2943	5798.65	4911.5
963.0303	2351.7113	5830.75	4944.35
963.1617	2353.1275	5798.25	4911.45
963.293	2354.543	5787.8	4893.1
963.4243	2355.9578	5737.1	4851.25
963.5556	2357.3718	5719.4	4836.25
963.6868	2358.7852	5692.85	4805.5
963.818	2360.1978	5685	4800.8
963.9492	2361.6098	5678	4793.7
964.0803	2363.021	5671.45	4782.55
964.2114	2364.4315	5644	4759.55
964.3425	2365.8413	5615.85	4729
964.4736	2367.2504	5602.65	4719.7
964.6046	2368.6587	5567.15	4682.95
964.7356	2370.0664	5537.55	4653.65
964.8666	2371.4733	5539.15	4656.3
964.9975	2372.8795	5523.35	4638.45
965.1284	2374.285	5496.15	4613.85
965.2593	2375.6899	5478.4	4595.3
965.3901	2377.0939	5461.4	4578.05
965.5209	2378.4973	5451.3	4568.15
965.6517	2379.9	5423.2	4540.05
965.7825	2381.3019	5391.8	4507.95
965.9132	2382.7032	5398.15	4513.6
966.0439	2384.1037	5372.65	4491.35
966.1745	2385.5035	5342.6	4459.5
966.3051	2386.9027	5323.9	4441.65
966.4357	2388.3011	5310.55	4425.5
966.5663	2389.6987	5305.5	4424.25
966.6968	2391.0957	5291.25	4409.3
966.8273	2392.492	5278.2	4395.3
966.9578	2393.8876	5243.95	4360.1
967.0882	2395.2824	5215.1	4329.55
967.2186	2396.6765	5208.65	4325.6
967.349	2398.07	5178.75	4293.75
967.4793	2399.4627	5190.2	4304.05
967.6097	2400.8547	5150.7	4267.15
967.7399	2402.246	5147.15	4258.55
967.8702	2403.6366	5117.15	4233.3
968.0004	2405.0265	5078.25	4195.15
968.1306	2406.4156	5094.9	4208.1
968.2607	2407.8041	5076	4190.4
968.3909	2409.1918	5063.85	4176.9
968.521	2410.5789	5039.9	4155.7
968.651	2411.9652	5009.15	4120.35
968.781	2413.3508	5014.7	4130.05
968.911	2414.7358	4993.3	4110.95
969.041	2416.12	4983.15	4096.95
969.1709	2417.5035	4948.15	4065.45
969.3008	2418.8863	4939.25	4055.9
969.4307	2420.2684	4936.25	4053.95
969.5606	2421.6497	4903.15	4017.75
969.6904	2423.0304	4875	3992.45
969.8201	2424.4104	4846.85	3962.9
969.9499	2425.7896	4858.65	3973.05
970.0796	2427.1682	4849.85	3965
970.2093	2428.546	4837.5	3951.45
970.3389	2429.9232	4826.45	3940.9
970.4685	2431.2996	4832.85	3948.15
970.5981	2432.6753	4809	3925.5
970.7277	2434.0503	4784.1	3897.8
970.8572	2435.4246	4751.35	3867.4
970.9867	2436.7982	4762.35	3877
971.1161	2438.1711	4751.1	3867.3
971.2456	2439.5433	4719.1	3835.2
971.375	2440.9148	4729.45	3837.9
971.5043	2442.2856	4684.15	3800.8
971.6336	2443.6557	4679.35	3790.9
971.7629	2445.025	4673.9	3791.25
971.8922	2446.3937	4650.65	3766.45
972.0214	2447.7617	4632.05	3748.85
972.1506	2449.1289	4651.65	3768
972.2798	2450.4955	4609.55	3721.3
972.4089	2451.8613	4616.25	3733.55
972.538	2453.2265	4600.55	3716.4
972.6671	2454.5909	4592.35	3706.55
972.7961	2455.9546	4586.45	3702.15
972.9251	2457.3177	4565.2	3681.15
973.0541	2458.68	4555.6	3671.15
973.1831	2460.0416	4544.5	3661.1
973.312	2461.4025	4534.85	3649.55
973.4408	2462.7627	4529.65	3634.15
973.5697	2464.1222	4515.75	3635.85
973.6985	2465.4811	4480.3	3596.45
973.8273	2466.8392	4477.7	3592.95
973.956	2468.1966	4467.95	3582.4
974.0847	2469.5533	4461.3	3575.4
974.2134	2470.9093	4465.6	3580.65
974.3421	2472.2645	4452.7	3565.35
974.4707	2473.6191	4435.55	3550.25
974.5993	2474.973	4435	3549.7
974.7278	2476.3262	4420.5	3533.65
974.8563	2477.6787	4392.2	3508.15
974.9848	2479.0305	4365.25	3480.9
975.1132	2480.3816	4348.3	3462.3
975.2417	2481.7319	4340.05	3457.45
975.37	2483.0816	4331.4	3446
975.4984	2484.4306	4312.2	3426.4
975.6267	2485.7789	4307.95	3422.9
975.755	2487.1264	4289.65	3404.95
975.8833	2488.4733	4284.45	3403.1
976.0115	2489.8195	4283.55	3382.2
976.1397	2491.165	4246.8	3359.95
976.2678	2492.5097	4252.35	3367.3
976.3959	2493.8538	4206.75	3325.2
976.524	2495.1972	4199.45	3314.5
976.6521	2496.5398	4182.3	3296.4
976.7801	2497.8818	4178.2	3291.4
976.9081	2499.2231	4168.15	3281.85
977.036	2500.5637	4158.65	3272.95
977.164	2501.9035	4144.1	3256.85
977.2918	2503.2427	4140.1	3252
977.4197	2504.5812	4127.8	3243.65
977.5475	2505.919	4119.5	3233.95
977.6753	2507.256	4116.1	3231.1
977.8031	2508.5924	4090.05	3205.6
977.9308	2509.9281	4083.8	3193.25
978.0585	2511.2631	4072.55	3189.35
978.1861	2512.5974	4056.3	3172.9
978.3137	2513.9309	4050.85	3166.3
978.4413	2515.2638	4037.05	3124.8
978.5689	2516.596	4029.2	3145.75
978.6964	2517.9275	4005.35	3119.45
978.8239	2519.2583	3998.7	3111.95
978.9513	2520.5884	3964.05	3078.1
979.0788	2521.9178	3966	3081.9
979.2062	2523.2465	3942.95	3061.9
979.3335	2524.5745	3927.75	3043.5
979.4608	2525.9018	3930.4	3046.1
979.5881	2527.2284	3915.1	3032.25
979.7154	2528.5543	3911.85	3029.3
979.8426	2529.8796	3897.35	3011.95
979.9698	2531.2041	3882.4	2996.75
980.0969	2532.5279	3894.65	3011.5
980.224	2533.851	3877.45	2993.45
980.3511	2535.1735	3878.4	2994.75
980.4781	2536.4952	3848.1	2962.4
980.6052	2537.8163	3853.6	2968.95
980.7321	2539.1366	3833.65	2950.35
980.8591	2540.4562	3845.45	2959.4
980.986	2541.7752	3823.9	2940.5
981.1129	2543.0935	3813.9	2928.7
981.2397	2544.411	3808.3	2922.55
981.3665	2545.7279	3805.45	2921.95
981.4933	2547.0441	3806.4	2922.7
981.62	2548.3596	3788.65	2900.75
981.7467	2549.6744	3785.6	2900.3
981.8734	2550.9885	3782.4	2896.1
982.0001	2552.3019	3759.55	2877.3
982.1267	2553.6146	3753.6	2868.45
982.2532	2554.9266	3742.85	2857.7
982.3798	2556.2379	3725.25	2839.45
982.5063	2557.5485	3715.95	2832.85
982.6327	2558.8585	3713	2821.25
982.7592	2560.1677	3706.4	2818.85
982.8856	2561.4762	3693.15	2809.5
983.0119	2562.7841	3688.95	2801
983.1383	2564.0913	3694.75	2810.7
983.2646	2565.3977	3675.3	2792.55
983.3908	2566.7035	3659.7	2774.15
983.517	2568.0086	3665.75	2778.5
983.6432	2569.313	3673.4	2785.6
983.7694	2570.6167	3653.1	2763.6
983.8955	2571.9197	3649.05	2764.05
984.0216	2573.222	3651.1	2761
984.1476	2574.5236	3635.45	2749.2
984.2737	2575.8246	3621	2734.3
984.3996	2577.1248	3608.65	2721.6
984.5256	2578.4244	3601.55	2717.65
984.6515	2579.7232	3603.4	2718.4
984.7774	2581.0214	3633.25	2716.45
984.9032	2582.3189	3606.35	2723.05
985.029	2583.6157	3597.8	2709.05
985.1548	2584.9118	3586.35	2702.2
985.2806	2586.2072	3575.65	2689.2
985.4063	2587.5019	3570.35	2685.45
985.5319	2588.7959	3569.65	2682.1
985.6576	2590.0893	3543.9	2657.75
985.7832	2591.3819	3552.9	2668.5
985.9087	2592.6739	3535.05	2655.1
986.0343	2593.9652	3536.6	2648.45
986.1597	2595.2557	3530.85	2646.9
986.2852	2596.5456	3511.65	2628.2
986.4106	2597.8348	3507.95	2622.25
986.536	2599.1234	3492.85	2608.2
986.6614	2600.4112	3504.4	2619.2
986.7867	2601.6983	3478.5	2590.4
986.912	2602.9848	3480.55	2595.4
987.0372	2604.2705	3465.6	2574.85
987.1624	2605.5556	3461.7	2576.05
987.2876	2606.84	3441.05	2556.6
987.4128	2608.1237	3436.55	2552.05
987.5379	2609.4067	3415.75	2530
987.6629	2610.689	3421.35	2528.65
987.788	2611.9707	3403.6	2516.8
987.913	2613.2516	3397.4	2507.8
988.0379	2614.5319	3381.9	2496.2
988.1629	2615.8115	3379.7	2494.25
988.2878	2617.0903	3356.95	2470.4
988.4126	2618.3685	3363.95	2479.2
988.5375	2619.6461	3348.35	2464.6
988.6622	2620.9229	3350.7	2465.6
988.787	2622.199	3329.6	2447.35
988.9117	2623.4745	3326.3	2440.85
989.0364	2624.7493	3298.15	2415.9
989.161	2626.0234	3297.8	2412.65
989.2857	2627.2968	3289.45	2405.05
989.4102	2628.5695	3286.25	2399.8
989.5348	2629.8415	3275.45	2390.75
989.6593	2631.1128	3275	2388.45
989.7837	2632.3835	3276.95	2394.4
989.9082	2633.6535	3249.05	2366.1
990.0326	2634.9228	3240.9	2355.5
990.1569	2636.1914	3241.7	2357.45
990.2812	2637.4593	3244.4	2354
990.4055	2638.7265	3227.85	2340.1
990.5298	2639.9931	3222.2	2338.55
990.654	2641.259	3210.6	2324.4
990.7782	2642.5242	3200	2314.75
990.9023	2643.7887	3196.35	2308.8
991.0264	2645.0525	3173.45	2290.1
991.1505	2646.3156	3166.1	2266.5
991.2745	2647.5781	3170	2286.5
991.3985	2648.8398	3150.75	2266.8
991.5225	2650.1009	3151.35	2241.9
991.6464	2651.3613	3142.55	2257.8
991.7703	2652.6211	3129.65	2246
991.8942	2653.8801	3114.8	2232.45
992.018	2655.1385	3130.2	2242.35
992.1418	2656.3961	3122.2	2236.4
992.2655	2657.6531	3112.55	2228
992.3892	2658.9094	3093.8	2210
992.5129	2660.1651	3088.3	2203.35
992.6366	2661.42	3089.05	2203
992.7602	2662.6743	3093.55	2207.1
992.8837	2663.9279	3095.6	2211.85
993.0073	2665.1808	3074.3	2189.8
993.1307	2666.433	3075.65	2191.4
993.2542	2667.6846	3067.3	2184.4
993.3776	2668.9354	3060.2	2173.1
993.501	2670.1856	3062.2	2177.05
993.6244	2671.4351	3053.05	2169.35
993.7477	2672.6839	3044.5	2159
993.8709	2673.9321	3050.45	2168.1
993.9942	2675.1795	3033.55	2148.2
994.1174	2676.4263	3037.15	2155.45
994.2405	2677.6724	3031.15	2147.7
994.3637	2678.9179	3025.65	2139.8
994.4868	2680.1626	3026.25	2141.4
994.6098	2681.4067	3009.7	2125.5
994.7328	2682.6501	3004.55	2119.1
994.8558	2683.8928	3005	2121.75
994.9788	2685.1348	2991.9	2110.05
995.1017	2686.3761	2968.5	2084.9
995.2245	2687.6168	2981.8	2096.4
995.3474	2688.8568	2959.85	2074.7
995.4702	2690.0961	2954	2071.1
995.5929	2691.3348	2938	2053.5
995.7156	2692.5727	2930	2046.25
995.8383	2693.81	2934.6	2051
995.961	2695.0466	2924.6	2042.8
996.0836	2696.2826	2919.3	2033.15
996.2062	2697.5178	2904.35	2017.6
996.3287	2698.7524	2914.05	2028.95
996.4512	2699.9863	2903.65	2015.75
996.5737	2701.2195	2890.65	2006.55
996.6961	2702.452	2894.05	2008.85
996.8185	2703.6839	2902.35	2018.3
996.9408	2704.9151	2883.5	2002.55
997.0631	2706.1456	2880.2	1997.35
997.1854	2707.3755	2884.95	1999.8
997.3077	2708.6046	2891.8	2004.95
997.4299	2709.8331	2887.1	2000.8
997.552	2711.0609	2884.5	1999.75
997.6742	2712.2881	2882.7	1999.55
997.7963	2713.5145	2896.35	2009.85
997.9183	2714.7403	2897.55	2015.75
998.0403	2715.9654	2908.35	2021.6
998.1623	2717.1899	2914.65	2017.55
998.2842	2718.4136	2911.6	2027.85
998.4062	2719.6367	2912.95	2028.35
998.528	2720.8591	2917.05	2027.95
998.6498	2722.0809	2919.7	2035.25
998.7716	2723.3019	2923.6	2036.1
998.8934	2724.5223	2938.9	2054.2
999.0151	2725.7421	2926.5	2041.9
999.1368	2726.9611	2930.2	2042.45
999.2584	2728.1795	2921.05	2033.75
999.38	2729.3972	2899.1	2015.95
999.5016	2730.6142	2889.2	2000.2
999.6231	2731.8306	2861.9	1977
999.7446	2733.0462	2846.95	1963.1
999.8661	2734.2612	2821.7	1933.3
999.9875	2735.4756	2794.4	1909.35
1000.1089	2736.6892	2784.8	1901.2
1000.2302	2737.9022	2756.8	1874.45
1000.3515	2739.1145	2736.45	1854.95
1000.4728	2740.3262	2733.05	1842.3
1000.594	2741.5372	2701.55	1819.55
1000.7152	2742.7475	2687.7	1803.7
1000.8363	2743.9571	2676.05	1791.15
1000.9575	2745.1661	2663.6	1774
1001.0785	2746.3744	2653.75	1770.25
1001.1996	2747.582	2628.5	1746.35
1001.3206	2748.7889	2616.8	1731.2
1001.4415	2749.9952	2604.85	1721.2
1001.5625	2751.2008	2595.15	1710.9
1001.6833	2752.4057	2598.2	1714.3
1001.8042	2753.61	2583.05	1701.25
1001.925	2754.8136	2574.7	1688.55
1002.0458	2756.0165	2576.45	1693.95
1002.1665	2757.2188	2564.3	1682.45
1002.2872	2758.4204	2560	1676.95
1002.4078	2759.6213	2554.4	1669.6
1002.5285	2760.8215	2556.7	1668.35
1002.649	2762.0211	2535.3	1650.75
1002.7696	2763.22	2528.75	1642
1002.8901	2764.4182	2527.55	1645.35
1003.0106	2765.6158	2519.65	1636.45
1003.131	2766.8127	2508.55	1623.65
1003.2514	2768.009	2501.05	1618.85
1003.3717	2769.2045	2492.25	1607.75
1003.492	2770.3994	2488.7	1604.25
1003.6123	2771.5936	2483.75	1601.5
1003.7325	2772.7872	2475.8	1594.2
1003.8527	2773.9801	2471.8	1587.5
1003.9729	2775.1723	2484.15	1585.45
1004.093	2776.3639	2454.6	1572
1004.2131	2777.5548	2459.1	1575.25
1004.3331	2778.745	2448.3	1563.55
1004.4531	2779.9346	2456.45	1574.35
1004.5731	2781.1235	2437	1552.85
1004.693	2782.3117	2458.7	1578
1004.8129	2783.4992	2449.65	1567.9
1004.9328	2784.6861	2443.25	1561.05
1005.0526	2785.8723	2451.55	1568.25
1005.1723	2787.0579	2440.65	1557.7
1005.2921	2788.2428	2446.3	1563.65
1005.4118	2789.427	2454.95	1574.5
1005.5314	2790.6106	2470.7	1588.1
1005.651	2791.7935	2463.4	1580.25
1005.7706	2792.9757	2470.85	1591.85
1005.8902	2794.1573	2478.55	1593.35
1006.0097	2795.3382	2484	1605.5
1006.1291	2796.5184	2494.45	1612.7
1006.2485	2797.698	2503.85	1619.5
1006.3679	2798.8769	2526.9	1644.2
1006.4873	2800.0551	2528.55	1643.65
1006.6066	2801.2327	2541.7	1655.85
1006.7258	2802.4096	2574.4	1692.55
1006.8451	2803.5859	2580.35	1697.4
1006.9642	2804.7615	2604.65	1721.65
1007.0834	2805.9364	2606.4	1725.1
1007.2025	2807.1106	2653.55	1773.35
1007.3216	2808.2842	2681.85	1798.8
1007.4406	2809.4572	2700.9	1818.9
1007.5596	2810.6294	2735.2	1850.85
1007.6785	2811.801	2779.2	1898.05
1007.7975	2812.972	2812.25	1930.2
1007.9163	2814.1423	2853.7	1972.95
1008.0352	2815.3119	2890	2007.35
1008.154	2816.4808	2927.6	2045.25
1008.2727	2817.6491	2978.45	2094.15
1008.3914	2818.8167	3026.75	2144.45
1008.5101	2819.9837	3064.05	2176.4
1008.6288	2821.15	3120.3	2237.8
1008.7474	2822.3157	3148.6	2267.15
1008.8659	2823.4807	3199.95	2317.85
1008.9844	2824.645	3235.6	2351.7
1009.1029	2825.8086	3262.3	2382.75
1009.2214	2826.9716	3297	2414.55
1009.3398	2828.134	3347.05	2465.6
1009.4581	2829.2957	3373.75	2490.75
1009.5764	2830.4567	3402.8	2521.7
1009.6947	2831.617	3430.3	2546.6
1009.813	2832.7767	3437.45	2553.8
1009.9312	2833.9358	3421.15	2540.25
1010.0493	2835.0941	3425	2540.8
1010.1675	2836.2519	3407.6	2525.05
1010.2855	2837.4089	3389.2	2507.05
1010.4036	2838.5653	3371	2490.05
1010.5216	2839.7211	3375.85	2494.6
1010.6396	2840.8761	3377.15	2494.3
1010.7575	2842.0306	3403.15	2522
1010.8754	2843.1843	3449.55	2568.35
1010.9932	2844.3374	3484.45	2602.95
1011.111	2845.4899	3550.2	2666.55
1011.2288	2846.6417	3624.8	2743.35
1011.3465	2847.7928	3689.5	2806.15
1011.4642	2848.9433	3766.9	2886.6
1011.5818	2850.0931	3854.9	2973.45
1011.6995	2851.2422	3928.65	3046.05
1011.817	2852.3907	3994.1	3112.55
1011.9345	2853.5385	4055.8	3170.65
1012.052	2854.6857	4105.6	3216.45
1012.1695	2855.8323	4158.3	3278.15
1012.2869	2856.9781	4195.8	3314.55
1012.4042	2858.1233	4243.85	3363.45
1012.5216	2859.2679	4281.65	3399.4
1012.6389	2860.4118	4341.95	3460.9
1012.7561	2861.555	4378.75	3493.15
1012.8733	2862.6976	4399.8	3517
1012.9905	2863.8395	4414.75	3534.05
1013.1076	2864.9808	4439.15	3556.7
1013.2247	2866.1214	4462.6	3583.65
1013.3417	2867.2614	4468.1	3585.95
1013.4587	2868.4007	4478.05	3594.95
1013.5757	2869.5393	4475.8	3592.35
1013.6926	2870.6773	4502.1	3617.35
1013.8095	2871.8146	4507.15	3624
1013.9263	2872.9513	4489.1	3605
1014.0431	2874.0874	4489.6	3608.7
1014.1599	2875.2227	4483.45	3598.95
1014.2766	2876.3574	4464.55	3580.85
1014.3933	2877.4915	4423.25	3542.9
1014.51	2878.6249	4406.75	3526.65
1014.6266	2879.7577	4373.7	3489.7
1014.7431	2880.8898	4370.9	3477.9
1014.8596	2882.0212	4334.95	3454.15
1014.9761	2883.152	4316	3435.6
1015.0925	2884.2821	4287.9	3407.75
1015.2089	2885.4116	4294.1	3411.5
1015.3253	2886.5405	4288.55	3408.3
1015.4416	2887.6686	4290.35	3404.45
1015.5579	2888.7962	4286.45	3405.95
1015.6741	2889.923	4296.65	3417.15
1015.7903	2891.0493	4304.95	3422.7
1015.9065	2892.1748	4310.35	3429.95
1016.0226	2893.2997	4309.65	3428.55
1016.1387	2894.424	4316.05	3436.4
1016.2547	2895.5476	4358.05	3480.6
1016.3707	2896.6706	4370.85	3490.35
1016.4866	2897.7929	4389.5	3506.25
1016.6025	2898.9145	4421.5	3539.85
1016.7184	2900.0355	4439	3556.05
1016.8342	2901.1559	4468.45	3585.85
1016.95	2902.2756	4503.25	3621.55
1017.0658	2903.3946	4523.9	3642.25
1017.1815	2904.513	4545.05	3661.5
1017.2971	2905.6308	4588.7	3707.6
1017.4127	2906.7479	4602.1	3720.65
1017.5283	2907.8643	4626.05	3743.75
1017.6439	2908.9801	4625.1	3743.35
1017.7594	2910.0953	4645.5	3763.3
1017.8748	2911.2098	4633.3	3750.95
1017.9902	2912.3236	4632.05	3742.35
1018.1056	2913.4368	4613.7	3729.4
1018.2209	2914.5494	4578.55	3696.9
1018.3362	2915.6613	4568.05	3680.65
1018.4515	2916.7725	4530.85	3647.2
1018.5667	2917.8831	4500.35	3620.65
1018.6819	2918.9931	4466.3	3583.95
1018.797	2920.1024	4447.05	3563.4
1018.9121	2921.211	4419.2	3538.45
1019.0271	2922.319	4396.5	3515.55
1019.1421	2923.4264	4355.9	3476.9
1019.2571	2924.5331	4338.7	3459.4
1019.372	2925.6391	4333.4	3452.85
1019.4869	2926.7445	4326.75	3448.35
1019.6017	2927.8493	4315.1	3431.55
1019.7165	2928.9534	4299.85	3419.25
1019.8313	2930.0569	4300.55	3416.35
1019.946	2931.1597	4296.15	3412.65
1020.0606	2932.2619	4271.9	3392.55
1020.1753	2933.3634	4264.25	3382.55
1020.2899	2934.4643	4257	3369.1
1020.4044	2935.5645	4230.1	3344.45
1020.5189	2936.6641	4193.7	3308.85
1020.6334	2937.763	4128.75	3249
1020.7478	2938.8613	4084.85	3204.1
1020.8622	2939.959	4034.9	3149.5
1020.9765	2941.056	3957.9	3077.35
1021.0908	2942.1523	3882.2	3000.45
1021.2051	2943.248	3768.65	2888.55
1021.3193	2944.3431	3682	2802.6
1021.4334	2945.4375	3586.15	2703.85
1021.5476	2946.5313	3468.35	2586.45
1021.6617	2947.6244	3366.7	2485.15
1021.7757	2948.7169	3256.6	2375.55
1021.8897	2949.8087	3166.95	2284.5
1022.0037	2950.8999	3057.8	2176.9
1022.1176	2951.9904	2973.55	2093.4
1022.2315	2953.0803	2915.2	2035.05
1022.3453	2954.1696	2846.85	1964.25
1022.4591	2955.2582	2794.55	1913.5
1022.5728	2956.3462	2743.65	1861.95
1022.6865	2957.4335	2697.65	1817.15
1022.8002	2958.5202	2654.25	1769.55
1022.9138	2959.6062	2627.55	1746.8
1023.0274	2960.6916	2602.65	1720.8
1023.141	2961.7764	2591.3	1711.7
1023.2545	2962.8605	2564.95	1683.35
1023.3679	2963.9439	2552.95	1673.1
1023.4813	2965.0267	2536.1	1654.95
1023.5947	2966.1089	2549.4	1645.35
1023.708	2967.1905	2526.65	1646.15
1023.8213	2968.2714	2505.15	1626.8
1023.9346	2969.3516	2507.95	1626.65
1024.0478	2970.4312	2522.2	1633.1
1024.1609	2971.5102	2496.4	1616.25
1024.274	2972.5885	2500.7	1620.55
1024.3871	2973.6662	2501.85	1616.35
1024.5002	2974.7432	2505.85	1624.45
1024.6132	2975.8196	2490.25	1609.45
1024.7261	2976.8954	2479.85	1599.4
1024.839	2977.9705	2464.65	1586
1024.9519	2979.045	2444.55	1564.75
1025.0647	2980.1188	2427.5	1546.7
1025.1775	2981.192	2402.7	1522.75
1025.2902	2982.2645	2383.3	1500.5
1025.4029	2983.3364	2350.1	1468.35
1025.5156	2984.4077	2326	1445.6
1025.6282	2985.4783	2290	1403.6
1025.7407	2986.5483	2263.55	1382.9
1025.8532	2987.6177	2209.45	1329.5
1025.9657	2988.6864	2182.75	1299.6
1026.0782	2989.7545	2147.45	1265.55
1026.1906	2990.8219	2107.45	1226.55
1026.3029	2991.8887	2078.3	1195.95
1026.4152	2992.9548	2045.6	1164.2
1026.5275	2994.0204	2012.8	1133.05
1026.6397	2995.0852	1982.35	1103.75
1026.7519	2996.1495	1963.95	1084.75
1026.864	2997.2131	1940.55	1061.2
1026.9761	2998.276	1911.15	1030.2
1027.0882	2999.3383	1894.95	1013.8
1027.2002	3000.4	1874.05	993.9
1027.3122	3001.4611	1849.45	968.85
1027.4241	3002.5215	1846	964.85
1027.536	3003.5812	1820.9	940.8
1027.6478	3004.6404	1811.35	930.95
1027.7596	3005.6989	1801.35	920.6
1027.8714	3006.7567	1791.95	910.5
1027.9831	3007.8139	1802.75	900.95
1028.0947	3008.8705	1775.2	894.75
1028.2064	3009.9264	1789.75	890.5
1028.3179	3010.9818	1767.25	886.95
1028.4295	3012.0364	1759.15	878.15
1028.541	3013.0905	1752.5	873.25
1028.6524	3014.1439	1741.95	862.5
1028.7638	3015.1966	1742.35	863.85
1028.8752	3016.2487	1736.95	856.05
1028.9865	3017.3002	1740.45	853.15
1029.0978	3018.3511	1730.9	854.2
1029.209	3019.4013	1728.1	847.9
1029.3202	3020.4509	1732	850.95
1029.4314	3021.4998	1733.6	853.05
1029.5425	3022.5481	1729.9	849.8
1029.6535	3023.5958	1736.75	856.9
1029.7645	3024.6428	1733.2	853.3
1029.8755	3025.6892	1728.2	847.4
1029.9864	3026.735	1725.2	844.55
1030.0973	3027.7802	1735.65	854
1030.2082	3028.8247	1731.85	853.6
1030.319	3029.8685	1732	851.35
1030.4297	3030.9118	1735.45	854.45
1030.5404	3031.9544	1741	860.05
1030.6511	3032.9963	1735.65	855.05
1030.7617	3034.0376	1741.9	861.4
1030.8723	3035.0783	1748.7	866.2
1030.9829	3036.1184	1746.55	863.45
1031.0934	3037.1578	1752.9	873.8
1031.2038	3038.1966	1759.6	878.35
1031.3142	3039.2348	1747.35	866.85
1031.4246	3040.2723	1754.1	864.65
1031.5349	3041.3092	1737.45	858.9
1031.6452	3042.3455	1749.7	869.5
1031.7554	3043.3811	1736.45	854.55
1031.8656	3044.4161	1734.15	851.55
1031.9758	3045.4505	1713.4	834.2
1032.0859	3046.4842	1716.7	834.2
1032.1959	3047.5173	1713.45	835.25
1032.3059	3048.5498	1699.85	820.45
1032.4159	3049.5816	1700.9	821.25
1032.5258	3050.6128	1687.75	807.2
1032.6357	3051.6434	1677.55	796.25
1032.7455	3052.6734	1674.5	795.05
1032.8553	3053.7027	1663.35	781.1
1032.9651	3054.7314	1650.3	771.6
1033.0748	3055.7594	1647.15	766.75
1033.1845	3056.7868	1645.2	763.45
1033.2941	3057.8136	1625.75	745.2
1033.4037	3058.8398	1621.7	743.2
1033.5132	3059.8653	1622.35	743.95
1033.6227	3060.8902	1614.55	737.35
1033.7321	3061.9145	1601.45	721.45
1033.8415	3062.9381	1590.4	710.1
1033.9509	3063.9612	1597.25	701.5
1034.0602	3064.9835	1575.85	695.45
1034.1694	3066.0053	1577.85	695.35
1034.2787	3067.0264	1564.25	685.5
1034.3878	3068.0469	1560.1	677.95
1034.497	3069.0668	1555.8	672.85
1034.6061	3070.086	1542.45	664.35
1034.7151	3071.1046	1535.3	652.7
1034.8241	3072.1226	1526.35	645.55
1034.9331	3073.1399	1511.7	633.8
1035.042	3074.1567	1502.95	624.35
1035.1508	3075.1727	1496.35	614.9
1035.2597	3076.1882	1485.35	605.25
1035.3684	3077.203	1470.4	590.95
1035.4772	3078.2173	1464	584.15
1035.5859	3079.2308	1452.45	569.95
1035.6945	3080.2438	1442.4	558.95
1035.8031	3081.2561	1433.25	552.55
1035.9117	3082.2678	1424.3	546.05
1036.0202	3083.2789	1417	536.9
1036.1286	3084.2893	1408.05	528.45
1036.2371	3085.2991	1407.75	528.15
1036.3454	3086.3083	1404.5	520.45
1036.4538	3087.3169	1389.25	509.2
1036.562	3088.3248	1378.45	495.45
1036.6703	3089.3321	1376.45	497.5
1036.7785	3090.3388	1369.45	490.05
1036.8866	3091.3449	1368.8	488.6
1036.9948	3092.3503	1366.7	482.75
1037.1028	3093.3551	1352.5	473.7
1037.2108	3094.3593	1358.75	479.8
1037.3188	3095.3629	1350.45	470.75
1037.4267	3096.3658	1345.15	466.05
1037.5346	3097.3681	1335	454.4
1037.6425	3098.3698	1337.4	456.6
1037.7503	3099.3708	1328.8	441.8
1037.858	3100.3713	1329.85	452.45
1037.9657	3101.3711	1327.4	446.95
1038.0734	3102.3702	1452.05	437.15
1038.181	3103.3688	1327.25	445.8
1038.2886	3104.3667	1315.05	436.85
1038.3961	3105.364	1311.85	432.9
1038.5036	3106.3607	1310.4	428.8
1038.611	3107.3568	1303.75	424.55
1038.7184	3108.3522	1299.4	420.5
1038.8257	3109.347	1300.85	420.7
1038.933	3110.3412	1298.85	414.5
1039.0403	3111.3348	1291.4	413.4
1039.1475	3112.3277	1284.95	405.2
1039.2547	3113.32	1286.65	408.3
1039.3618	3114.3117	1285.55	407.3
1039.4689	3115.3028	1284.25	404.05
1039.5759	3116.2932	1281.85	398
1039.6829	3117.2831	1280.45	396.15
1039.7898	3118.2723	1273.65	394.25
1039.8967	3119.2608	1274.9	394.25
1040.0035	3120.2488	1266.45	385.7
1040.1103	3121.2361	1267.85	387.9
1040.2171	3122.2229	1265.1	386.1
1040.3238	3123.209	1261.2	380.9
1040.4305	3124.1944	1261.15	383.8
1040.5371	3125.1793	1260.2	378.85
1040.6437	3126.1635	1258.1	380.3
1040.7502	3127.1471	1249.7	372.45
1040.8567	3128.1301	1248.15	369.2
1040.9631	3129.1125	1243.3	363.75
1041.0695	3130.0942	1253.35	371.9
1041.1759	3131.0753	1249.35	362.4
1041.2822	3132.0558	1250.45	370.1
1041.3884	3133.0357	1243.65	363.5
1041.4946	3134.015	1238.65	358.5
1041.6008	3134.9936	1235.15	353.85
1041.7069	3135.9716	1258.95	359.8
1041.813	3136.949	1234.55	354.7
1041.919	3137.9258	1252.4	353.75
1042.025	3138.902	1231.05	345.75
1042.1309	3139.8775	1219	340.5
1042.2368	3140.8524	1221.4	341.15
1042.3427	3141.8267	1224.8	343
1042.4485	3142.8004	1216.75	335.3
1042.5542	3143.7735	1227.3	339.65
1042.6599	3144.7459	1220.5	341.25
1042.7656	3145.7178	1215.35	336.4
1042.8712	3146.689	1212.6	335.2
1042.9768	3147.6596	1208.95	326.6
1043.0823	3148.6295	1205.5	326.35
1043.1878	3149.5989	1201.4	321.55
1043.2932	3150.5676	1201.55	323.65
1043.3986	3151.5357	1203.35	326.2
1043.5039	3152.5032	1201.85	322
1043.6092	3153.4701	1195.45	317.8
1043.7145	3154.4364	1196.65	316.45
1043.8197	3155.402	1189.4	310
1043.9248	3156.367	1193.85	312.9
1044.03	3157.3315	1231.95	309.1
1044.135	3158.2952	1191.45	310.45
1044.24	3159.2584	1184.45	303.4
1044.345	3160.221	1186.8	306.95
1044.4499	3161.1829	1183.3	302.45
1044.5548	3162.1442	1177.4	297.6
1044.6596	3163.105	1175.5	297.95
1044.7644	3164.065	1177.2	299.2
1044.8692	3165.0245	1173.7	291.05
1044.9739	3165.9834	1171.55	296.1
1045.0785	3166.9416	1164.85	284.4
1045.1831	3167.8993	1168.55	287.95
1045.2877	3168.8563	1165.35	284.65
1045.3922	3169.8127	1162.95	284.7
1045.4966	3170.7684	1168.25	289.45
1045.6011	3171.7236	1165.2	285.65
1045.7054	3172.6782	1167.95	288.15
1045.8098	3173.6321	1162.2	280.9
1045.914	3174.5854	1160.2	276.2
1046.0183	3175.5381	1158.45	278.5
1046.1224	3176.4902	1157.85	280.2
1046.2266	3177.4417	1154.5	272.95
1046.3307	3178.3926	1145.05	268.15
1046.4347	3179.3428	1148.3	270.35
1046.5387	3180.2924	1147.45	268.4
1046.6427	3181.2415	1144.15	264.15
1046.7466	3182.1899	1143.5	261.95
1046.8504	3183.1377	1147.05	267.5
1046.9542	3184.0848	1140.45	258
1047.058	3185.0314	1141.4	261.75
1047.1617	3185.9773	1137.35	256.55
1047.2654	3186.9227	1138.4	256.7
1047.369	3187.8674	1136.6	257.4
1047.4726	3188.8115	1135.25	251.3
1047.5761	3189.755	1131.15	252.15
1047.6796	3190.6979	1129.6	251.45
1047.783	3191.6402	1130.65	249.55
1047.8864	3192.5818	1130.5	252.2
1047.9898	3193.5229	1134.65	249.6
1048.0931	3194.4633	1130.85	253.6
1048.1963	3195.4031	1123.8	245.95
1048.2995	3196.3423	1124.2	244.65
1048.4027	3197.2809	1120.55	241.5
1048.5058	3198.2189	1124.25	246.45
1048.6089	3199.1563	1126.8	240.35
1048.7119	3200.0931	1119.45	243.25
1048.8148	3201.0292	1116.1	237.6
1048.9178	3201.9648	1115.6	236.7
1049.0206	3202.8997	1118.1	236.35
1049.1235	3203.834	1115.6	238.3
1049.2262	3204.7677	1111.05	232.5
1049.329	3205.7008	1111.9	230.5
1049.4317	3206.6333	1111.05	233.3
1049.5343	3207.5652	1107.8	226.25
1049.6369	3208.4964	1105.85	227.15
1049.7394	3209.4271	1103.05	224.65
1049.8419	3210.3571	1106.2	227.6
1049.9444	3211.2865	1107	225.4
1050.0468	3212.2154	1104.6	226.45
1050.1491	3213.1436	1106.4	223.65
1050.2514	3214.0712	1108.5	223.35
1050.3537	3214.9982	1099.9	220.1
1050.4559	3215.9246	1106.45	227.15
1050.5581	3216.8503	1097.75	219.85
1050.6602	3217.7755	1097.75	216.15
1050.7623	3218.7001	1092.65	214.25
1050.8643	3219.624	1096.55	218.35
1050.9663	3220.5473	1099.9	220.65
1051.0682	3221.4701	1090.95	211.85
1051.1701	3222.3922	1093.15	211.45
1051.2719	3223.3137	1096.45	217.5
1051.3737	3224.2346	1087.35	208
1051.4754	3225.1549	1087.25	207.55
1051.5771	3226.0746	1091.55	213.65
1051.6788	3226.9937	1088.8	208.9
1051.7804	3227.9121	1085.45	208.55
1051.8819	3228.83	1083	203.2
1051.9834	3229.7473	1085.35	206.7
1052.0849	3230.6639	1078.75	199.4
1052.1863	3231.5799	1080.3	202.25
1052.2876	3232.4954	1079.45	198.7
1052.3889	3233.4102	1072.65	194.65
1052.4902	3234.3244	1081.5	202.4
1052.5914	3235.238	1079.05	202.45
1052.6926	3236.151	1097.45	192.2
1052.7937	3237.0634	1072.95	193.65
1052.8948	3237.9752	1072.55	194.55
1052.9958	3238.8864	1068.1	187.5
1053.0968	3239.797	1069.5	190.1
1053.1977	3240.7069	1066.4	185.7
1053.2986	3241.6163	1067.75	187.6
1053.3994	3242.5251	1065.45	187.5
1053.5002	3243.4332	1061.6	184.55
1053.6009	3244.3408	1068.05	190.85
1053.7016	3245.2477	1060.9	183.2
1053.8022	3246.154	1061.75	180.95
1053.9028	3247.0598	1064.6	186.15
1054.0034	3247.9649	1059.05	178.4
1054.1039	3248.8694	1061.65	181.65
1054.2043	3249.7733	1057.3	178.25
1054.3047	3250.6766	1054.3	175.05
1054.4051	3251.5793	1056.95	178.05
1054.5054	3252.4814	1052.85	174.7
1054.6056	3253.3829	1050.35	170.25
1054.7058	3254.2838	1052.6	174.35
1054.806	3255.1841	1049.7	172.25
1054.9061	3256.0838	1044.4	165.45
1055.0061	3256.9829	1045.2	168.15
1055.1062	3257.8814	1050.15	167.2
1055.2061	3258.7792	1042.7	164.6
1055.306	3259.6765	1043.15	165.2
1055.4059	3260.5731	1036.35	159.2
1055.5057	3261.4692	1037.75	158
1055.6055	3262.3647	1038.8	160.4
1055.7052	3263.2595	1034.4	155.95
1055.8049	3264.1538	1030.1	150.8
1055.9045	3265.0474	1031.3	152
1056.0041	3265.9404	1026.6	148.4
1056.1036	3266.8329	1028.1	150.15
1056.2031	3267.7247	1029.1	140.5
1056.3025	3268.616	1017.3	140.65
1056.4019	3269.5066	1018.35	138.85
1056.5013	3270.3966	1016.05	134.9
1056.6005	3271.286	1006	130.1
