Software Version:	3.9.2.0
Unit SN:	10000200
Spectrometer SN:	6960
Date:	3/26/2024 1:31:34 PM
Data Line Index:	25
Spectral Points:	2048
Integration time (ms):	125
Averages:	20
Delay (ms):	30000
Sequence Number:	1
Processing:	dark subtract
Laser Power (mW):	305
Laser Current (mA):	819
Laser Diode Temp (C):	25
Laser Case Temp (C):	26.9
System Temp (C):	26.9
Spectrometer Temp (C):	24.7
CCD Temp (C):	0.005
Secondary Temp (C):	20.008
Heatsink Temp (C):	22.393
CCDPCB Temp (C):	36.262
SecondaryPCB Temp (C):	34.073

Wavelength	RamanShift	Raw Counts	Dark Subtracted
787.061	30.1047	543.45	133.5
787.2016	32.3739	548.5	137.75
787.3422	34.6426	556.85	145.05
787.4828	36.9109	567.45	152.75
787.6235	39.1787	581.5	163.9
787.7642	41.4461	598.55	175.95
787.9049	43.7131	613.25	189
788.0456	45.9796	628.35	198.85
788.1863	48.2456	642.05	209.05
788.3271	50.5112	658.45	222.3
788.4679	52.7764	674.75	237.35
788.6087	55.0411	690.65	248.3
788.7496	57.3054	708.25	261.8
788.8904	59.5692	726.05	276.5
789.0313	61.8326	757.75	304.55
789.1722	64.0955	778.4	321
789.3132	66.3579	814.3	353.2
789.4541	68.6199	838.65	375.25
789.5951	70.8815	903.75	434.25
789.7361	73.1426	1033.3	562.3
789.8771	75.4032	1374.1	897.9
790.0181	77.6634	2206.2	1723.35
790.1592	79.9231	4236	3746.3
790.3003	82.1824	8807.15	8301
790.4414	84.4412	17319.2	16790.75
790.5825	86.6995	30789	30229.4
790.7237	88.9574	42500.75	41911.35
790.8648	91.2148	50177.75	49570.55
791.006	93.4717	52311.1	51685.8
791.1472	95.7282	53234	52600.15
791.2885	97.9842	53597.4	52955.4
791.4297	100.2398	53320.75	52681.45
791.571	102.4949	53065	52420.9
791.7123	104.7495	52829.5	52183.45
791.8536	107.0036	52276.8	51628.55
791.9949	109.2573	52515.5	51872.5
792.1363	111.5105	51873.4	51226.15
792.2777	113.7632	51833.15	51185.75
792.4191	116.0154	51856.9	51191.9
792.5605	118.2672	52069.2	51414.05
792.7019	120.5185	51923.6	51267.3
792.8434	122.7693	51830.6	51172.25
792.9849	125.0197	51218.5	50559.5
793.1264	127.2696	52129.1	51465.35
793.2679	129.519	51902.35	51233.95
793.4094	131.7679	52227.3	51560.6
793.551	134.0163	51083.55	50405.4
793.6926	136.2642	51409.45	50730.1
793.8342	138.5117	51905.3	51215.95
793.9758	140.7587	51563.6	50878.7
794.1175	143.0052	51450.5	50762.75
794.2591	145.2512	50802.7	50114.95
794.4008	147.4967	51377.15	50692.55
794.5425	149.7417	51098.25	50408.95
794.6842	151.9863	51025.95	50334.15
794.826	154.2304	50578.7	49882.6
794.9677	156.4739	50820.2	50117.25
795.1095	158.717	51156.3	50454.1
795.2513	160.9596	50768.15	50059.65
795.3931	163.2017	50146.95	49441.7
795.535	165.4433	50638	49924.95
795.6768	167.6844	50180.35	49468.15
795.8187	169.925	50393.8	49678.85
795.9606	172.1651	49991	49276.45
796.1025	174.4047	49954.05	49235.4
796.2445	176.6439	49867.9	49152.85
796.3864	178.8825	49738.05	49012.65
796.5284	181.1206	50037.15	49306.4
796.6704	183.3582	49905.05	49172.95
796.8124	185.5954	49573.75	48841.35
796.9544	187.832	49668.6	48929.45
797.0965	190.0681	49360.75	48622.9
797.2386	192.3037	49972.45	49227.2
797.3806	194.5388	50523.05	49777.7
797.5228	196.7734	49150.95	48400.65
797.6649	199.0075	50402.15	49648.5
797.807	201.2411	49987	49228.65
797.9492	203.4742	50696.6	49938.05
798.0914	205.7068	50601.55	49842.85
798.2336	207.9389	50558.85	49801.5
798.3758	210.1704	50531.2	49767.2
798.518	212.4015	51079.35	50315.35
798.6603	214.632	50471.55	49709.75
798.8025	216.862	51155.8	50401.6
798.9448	219.0915	50912.2	50163.5
799.0871	221.3205	50785.8	50036.6
799.2294	223.549	51357.65	50614.55
799.3718	225.777	51349	50604.95
799.5141	228.0044	51630.3	50881.2
799.6565	230.2314	51450.5	50706.45
799.7989	232.4578	51482.15	50739.55
799.9413	234.6837	51580.3	50828.65
800.0837	236.909	52666.35	51917
800.2262	239.1339	51187.35	50408.55
800.3687	241.3582	51793.85	51027.25
800.5111	243.582	51760.9	50966.7
800.6536	245.8053	51738.5	50954.95
800.7961	248.0281	51723.45	50945.6
800.9387	250.2503	51927.95	51148.15
801.0812	252.472	51494.6	50708.45
801.2238	254.6932	51855.7	51067.4
801.3664	256.9139	51699.45	50911.25
801.509	259.134	52719.1	51925.9
801.6516	261.3536	51656.45	50863.1
801.7942	263.5727	52430.35	51635.25
801.9369	265.7912	52155	51364.2
802.0795	268.0092	52403.55	51612.5
802.2222	270.2267	52591.25	51794.25
802.3649	272.4436	52113.7	51316.8
802.5076	274.6601	52561.45	51756.55
802.6504	276.8759	52737.35	51940.3
802.7931	279.0913	52419.5	51617.8
802.9359	281.3061	52473.15	51667.35
803.0787	283.5204	52492.65	51683.5
803.2215	285.7341	52415.95	51603.15
803.3643	287.9473	52943.95	52124.65
803.5071	290.16	52568.15	51750.6
803.6499	292.3721	52833.95	52027.5
803.7928	294.5837	52478.15	51667.8
803.9357	296.7947	52263.35	51452.8
804.0786	299.0052	53066.9	52254.35
804.2215	301.2152	52677.75	51866.3
804.3644	303.4246	52907.55	52099.8
804.5074	305.6334	52797.65	51989.45
804.6503	307.8418	52020.7	51206
804.7933	310.0495	51989.05	51173.75
804.9363	312.2568	51751	50934.7
805.0793	314.4635	51575.35	50759.2
805.2223	316.6696	51722.75	50902
805.3653	318.8752	51923.4	51095.7
805.5084	321.0802	50880.1	50056.7
805.6514	323.2847	51299.15	50479.3
805.7945	325.4887	51311.7	50488.2
805.9376	327.692	51034.4	50210.6
806.0807	329.8949	51258.45	50433.75
806.2238	332.0972	50961.15	50135.55
806.367	334.2989	51049.7	50219.1
806.5101	336.5001	51272.25	50443
806.6533	338.7007	50492.35	49657.5
806.7965	340.9008	50777.3	49945.15
806.9397	343.1003	50774.7	49940.2
807.0829	345.2992	51022.15	50187.45
807.2261	347.4976	50567.35	49732.75
807.3693	349.6955	50705.6	49867.2
807.5126	351.8927	50460.6	49621.15
807.6559	354.0895	50699.1	49847.35
807.7991	356.2856	50618.7	49772.7
807.9424	358.4812	50876.45	50031.4
808.0857	360.6763	50399	49552.15
808.2291	362.8707	50743.8	49899.75
808.3724	365.0646	50487.7	49644.95
808.5158	367.258	50476.85	49627.7
808.6591	369.4508	50214	49360.9
808.8025	371.643	50702.55	49847.65
808.9459	373.8346	50522.8	49670.05
809.0893	376.0257	50519.55	49659.3
809.2327	378.2162	50398.7	49541.95
809.3762	380.4062	50040.05	49181.2
809.5196	382.5956	50239.1	49380.2
809.6631	384.7844	50177.25	49319.85
809.8066	386.9726	50215.7	49352.55
809.9501	389.1603	50223.25	49362.1
810.0936	391.3474	49785.25	48891.5
810.2371	393.5339	50150.2	49287.3
810.3806	395.7199	49587.7	48733.35
810.5241	397.9052	49671	48815.25
810.6677	400.09	49773.6	48926.8
810.8113	402.2743	50013.2	49162.6
810.9548	404.4579	49816.8	48972.65
811.0984	406.641	49864.2	49012.45
811.2421	408.8235	50113.5	49261.8
811.3857	411.0054	50193.45	49342.9
811.5293	413.1868	50292.85	49438.35
811.673	415.3675	50222.5	49367.65
811.8166	417.5477	50273.9	49416.2
811.9603	419.7273	50182.05	49321.1
812.104	421.9064	50048.5	49182.55
812.2477	424.0848	50147.8	49286.7
812.3914	426.2627	50215.15	49353.1
812.5351	428.4399	49653.45	48784.45
812.6788	430.6166	49234.15	48363.3
812.8226	432.7928	49440.65	48572.6
812.9663	434.9683	48951.85	48083.8
813.1101	437.1432	48869.65	48004.6
813.2539	439.3176	49007.35	48145.15
813.3977	441.4914	48458.2	47595.55
813.5415	443.6645	48574.85	47709.1
813.6853	445.8371	48524.55	47653.4
813.8291	448.0091	48247.85	47377.7
813.973	450.1806	48094.45	47226.75
814.1168	452.3514	48128.4	47260.75
814.2607	454.5216	47953.5	47077.85
814.4046	456.6913	48064.45	47192.45
814.5485	458.8603	48140.4	47267.65
814.6924	461.0288	47865.35	47002.4
814.8363	463.1967	48084	47220.6
814.9802	465.3639	48145.75	47277.15
815.1241	467.5306	47570.75	46700.25
815.2681	469.6967	47821.45	46954.25
815.412	471.8622	47900.05	47031.1
815.556	474.0271	47784.8	46912.25
815.7	476.1914	47807.8	46929.75
815.844	478.3551	47792.6	46916.45
815.988	480.5182	48135.9	47266.2
816.132	482.6807	47777.6	46907.7
816.276	484.8426	47934.35	47070.75
816.4201	487.0039	48459.4	47590.9
816.5641	489.1647	48578.3	47704.95
816.7082	491.3248	48261.7	47386.95
816.8522	493.4843	48741.5	47872.8
816.9963	495.6432	48690.7	47817.6
817.1404	497.8015	48119.5	47237.35
817.2845	499.9592	48351.15	47469.85
817.4286	502.1163	48223.4	47339.85
817.5727	504.2728	48047.55	47170.85
817.7168	506.4287	47956.4	47087.2
817.861	508.5839	47478.35	46605.3
818.0051	510.7386	47543.65	46668.15
818.1493	512.8927	47622.85	46734.6
818.2935	515.0461	47486.7	46609.3
818.4377	517.199	47716.85	46834.1
818.5818	519.3512	47630.55	46747.6
818.726	521.5029	47606.65	46720
818.8703	523.6539	47773.45	46890.1
819.0145	525.8043	47444.35	46560.95
819.1587	527.9541	47730	46841.95
819.303	530.1033	47563.5	46682.25
819.4472	532.2519	47348.1	46461.85
819.5915	534.3999	47491	46601.55
819.7357	536.5472	47714.6	46831.7
819.88	538.694	47393.5	46511.8
820.0243	540.8401	47804.45	46917.15
820.1686	542.9856	47868.45	46973.15
820.3129	545.1305	47915.2	47017.1
820.4572	547.2748	47674.65	46773.7
820.6016	549.4185	47639.4	46734.6
820.7459	551.5615	47687.4	46789.6
820.8902	553.704	47575.2	46678.05
821.0346	555.8458	47412.8	46519.55
821.1789	557.987	47595.7	46702.35
821.3233	560.1276	47756.25	46861.5
821.4677	562.2675	47791.95	46893.75
821.6121	564.4069	48025.5	47129
821.7565	566.5456	48297.6	47403.45
821.9009	568.6837	48013.55	47118.7
822.0453	570.8212	47901.45	47008.1
822.1897	572.958	47226.8	46328.9
822.3342	575.0942	47205.8	46313.55
822.4786	577.2299	46719.4	45831.25
822.6231	579.3648	46596.25	45714.8
822.7675	581.4992	46381.7	45510.3
822.912	583.6329	46392.45	45516.7
823.0565	585.766	46442	45560.95
823.201	587.8985	46575.75	45690.25
823.3454	590.0304	46106	45205.85
823.4899	592.1616	46361.8	45465.3
823.6345	594.2922	46128.85	45230.1
823.779	596.4222	45794.5	44895.65
823.9235	598.5515	45700.25	44796.25
824.068	600.6802	45704.6	44804.75
824.2126	602.8083	45297.7	44403.25
824.3571	604.9358	45304.4	44404.75
824.5017	607.0626	45432.2	44532.8
824.6462	609.1888	45109.55	44202.05
824.7908	611.3144	45434.7	44525.15
824.9354	613.4393	45262.95	44354
825.08	615.5636	45200.4	44290.2
825.2246	617.6873	45359.2	44453.6
825.3692	619.8103	45151.9	44247.6
825.5138	621.9327	45177.65	44274.75
825.6584	624.0544	45089.35	44192.7
825.803	626.1756	44879.05	43978.5
825.9477	628.2961	44785.15	43881.1
826.0923	630.4159	44537.15	43633.55
826.237	632.5351	44531.2	43625.15
826.3816	634.6537	44808.8	43902.6
826.5263	636.7716	44472.55	43564.1
826.6709	638.8889	44551	43638.85
826.8156	641.0056	44519.45	43606.95
826.9603	643.1216	44512.45	43599.45
827.105	645.237	44554.65	43646.85
827.2497	647.3518	44298.6	43394.8
827.3944	649.4659	44342	43442.7
827.5391	651.5793	44255.5	43351.8
827.6838	653.6922	44180.1	43276.6
827.8285	655.8043	43953.05	43046.5
827.9733	657.9159	44304.25	43397.4
828.118	660.0268	43669.5	42762.45
828.2627	662.137	43865.6	42956.6
828.4075	664.2466	43924.8	43010.85
828.5522	666.3556	43808.55	42896.9
828.697	668.4639	43768.85	42860.9
828.8418	670.5716	43660.4	42757.4
828.9865	672.6786	43754.3	42842.15
829.1313	674.785	43477.95	42566.5
829.2761	676.8907	43440.95	42532
829.4209	678.9958	43498.4	42592.7
829.5657	681.1002	43452.35	42541.8
829.7105	683.204	43174.4	42260.05
829.8553	685.3072	43134.25	42218.45
830.0001	687.4097	43097.85	42186.75
830.1449	689.5115	43085.8	42172.15
830.2898	691.6127	43143.45	42235.85
830.4346	693.7132	42929	42020.95
830.5794	695.8131	43024.3	42096.9
830.7243	697.9123	43046.85	42132.15
830.8691	700.0109	43042.95	42123.95
831.014	702.1089	42853	41937.6
831.1588	704.2061	42860.45	41946.05
831.3037	706.3028	42888.55	41971.3
831.4486	708.3987	42912.75	41995
831.5935	710.4941	42813.1	41898.2
831.7383	712.5887	42894.15	41980.45
831.8832	714.6827	42885.2	41967.95
832.0281	716.7761	42989.55	42077.3
832.173	718.8688	43020.4	42108.8
832.3179	720.9608	42944.4	42020.15
832.4628	723.0522	43102.65	42179.15
832.6077	725.1429	42945.95	42026.2
832.7527	727.233	43181.15	42263.45
832.8976	729.3224	42826	41909.85
833.0425	731.4112	42841.4	41924.95
833.1874	733.4993	42665.45	41745.2
833.3324	735.5867	42462.2	41540.95
833.4773	737.6735	42269.2	41348.5
833.6222	739.7596	41995.55	41075.3
833.7672	741.845	41931.15	41012.75
833.9122	743.9298	41897.5	40973.9
834.0571	746.014	41738.5	40816.55
834.2021	748.0974	41658.55	40729.2
834.347	750.1802	41706.5	40783.45
834.492	752.2624	41445.5	40522.05
834.637	754.3439	41361.2	40435.7
834.782	756.4247	41366.35	40431.8
834.9269	758.5048	41310.35	40386.9
835.0719	760.5843	41433.25	40511.65
835.2169	762.6631	41587.55	40660.35
835.3619	764.7413	41793.05	40870.65
835.5069	766.8188	42235.55	41311.35
835.6519	768.8956	42383.75	41458.15
835.7969	770.9718	42572.35	41645.25
835.9419	773.0473	42397.3	41473.15
836.0869	775.1221	42169.7	41244.85
836.232	777.1962	41904.8	40982.25
836.377	779.2697	41687.3	40763.3
836.522	781.3426	41669.05	40723.5
836.667	783.4147	41695.4	40769.55
836.8121	785.4862	41667.8	40740.95
836.9571	787.557	41523.15	40594.65
837.1021	789.6271	41293.05	40365.25
837.2472	791.6966	40789.6	39863.1
837.3922	793.7654	40306.2	39382.45
837.5373	795.8335	40108	39183
837.6823	797.901	39857.1	38931.05
837.8274	799.9678	39672.6	38740.5
837.9724	802.0339	39574.1	38650.45
838.1175	804.0993	39551.55	38609.95
838.2626	806.1641	39386.6	38455.9
838.4076	808.2282	39283	38355
838.5527	810.2916	39224.1	38293.85
838.6978	812.3544	39182.7	38258.35
838.8428	814.4164	38967.2	38040
838.9879	816.4778	39064.2	38134.45
839.133	818.5385	38925.55	37995.7
839.2781	820.5986	38948.3	38017.45
839.4232	822.658	39094.3	38162.65
839.5682	824.7166	39123.65	38191.85
839.7133	826.7747	39431.25	38500.4
839.8584	828.832	39642.85	38713.1
840.0035	830.8886	39726.5	38795.25
840.1486	832.9446	39840.45	38910.3
840.2937	834.9999	39536.1	38607.55
840.4388	837.0545	39361.45	38427.5
840.5839	839.1085	39194.55	38261
840.729	841.1618	38950.95	38019.45
840.8741	843.2143	38733.05	37803.2
841.0192	845.2662	38504.6	37573.8
841.1643	847.3175	38425.5	37497.15
841.3095	849.368	38208.35	37275.9
841.4546	851.4179	38168.2	37236.8
841.5997	853.467	37960.85	37028.75
841.7448	855.5155	37911.5	36981.45
841.8899	857.5633	37768.85	36837
842.0351	859.6105	37578.85	36646.9
842.1802	861.6569	37533.5	36601.25
842.3253	863.7027	37412.8	36479.1
842.4704	865.7478	37383.05	36449.3
842.6156	867.7922	37311.35	36378.65
842.7607	869.8359	37204	36270.3
842.9058	871.8789	37151.85	36216.45
843.0509	873.9212	37214.6	36251.25
843.1961	875.9629	37153.4	36221.55
843.3412	878.0039	37239.85	36305.9
843.4863	880.0441	37151.3	36216.95
843.6315	882.0837	37160.25	36229.85
843.7766	884.1226	37142.85	36209.4
843.9218	886.1609	37101	36169.1
844.0669	888.1984	37135.4	36204.6
844.212	890.2352	37239.9	36306
844.3572	892.2714	37085.2	36146.7
844.5023	894.3069	37056.55	36119.15
844.6475	896.3416	36796.75	35863.9
844.7926	898.3757	36655.75	35720.2
844.9377	900.4091	36606.45	35673.4
845.0829	902.4418	36560.75	35621.4
845.228	904.4739	36438.15	35503.45
845.3732	906.5052	36470.9	35534.5
845.5183	908.5358	36328.25	35391.6
845.6635	910.5658	36201.75	35264.6
845.8086	912.595	36001.1	35064.25
845.9538	914.6236	35793.75	34857.8
846.0989	916.6515	35709.15	34773.05
846.2441	918.6786	35546.65	34609.75
846.3892	920.7051	35505.5	34566.35
846.5344	922.7309	35494.05	34559.6
846.6795	924.756	35406.35	34470.3
846.8246	926.7804	35392.25	34454.6
846.9698	928.8041	35133.05	34198.45
847.1149	930.8272	35175.8	34238
847.2601	932.8495	34963.95	34028.45
847.4052	934.8711	34982.25	34045.85
847.5504	936.892	34826.25	33887.05
847.6955	938.9123	34718	33778.4
847.8407	940.9318	34630.6	33693.6
847.9858	942.9506	34543	33607.25
848.131	944.9688	34388.85	33453.2
848.2761	946.9862	34283.4	33347.35
848.4213	949.003	34015.5	33077.45
848.5664	951.019	33952.2	33017.45
848.7115	953.0344	33831.2	32895.8
848.8567	955.0491	33738.5	32799.9
849.0018	957.063	33759.35	32824.05
849.147	959.0763	33844	32899.95
849.2921	961.0888	33715.4	32779.1
849.4373	963.1007	33714.05	32780.4
849.5824	965.1119	33668.25	32738.8
849.7275	967.1223	33618.1	32690.95
849.8727	969.1321	33526.2	32599.1
850.0178	971.1412	33491.6	32560.2
850.1629	973.1495	33363.8	32432.2
850.3081	975.1572	33332.8	32378.1
850.4532	977.1641	33293.95	32356.85
850.5983	979.1704	33166.85	32230.3
850.7435	981.1759	33040.65	32099.35
850.8886	983.1808	33008	32066.9
851.0337	985.1849	32980.4	32032.85
851.1788	987.1884	32902.9	31966.55
851.324	989.1911	32952.65	32016.9
851.4691	991.1932	32882.5	31948.1
851.6142	993.1945	32764.45	31830.55
851.7593	995.1951	32601.25	31663.8
851.9045	997.1951	32557.9	31615.9
852.0496	999.1943	32416.85	31478.3
852.1947	1001.1928	32322.55	31386.5
852.3398	1003.1906	32170.25	31233.45
852.4849	1005.1877	32215.7	31276.35
852.63	1007.1841	32144.15	31209.5
852.7751	1009.1798	32053.6	31118.05
852.9202	1011.1748	31895.1	30955.05
853.0653	1013.1691	31701.5	30764.15
853.2104	1015.1627	31492.05	30553.6
853.3555	1017.1556	31197.4	30262.35
853.5006	1019.1477	31072.8	30139.9
853.6457	1021.1392	30796.25	29867.75
853.7908	1023.1299	30693.2	29765.2
853.9359	1025.12	30639.7	29715.2
854.081	1027.1093	30561.9	29648.1
854.2261	1029.0979	30541.45	29627.15
854.3712	1031.0859	30482.2	29564.45
854.5163	1033.0731	30429.5	29503.2
854.6613	1035.0596	30280.9	29353.1
854.8064	1037.0454	30053.65	29121.4
854.9515	1039.0304	29941.2	29009.8
855.0965	1041.0148	29783.5	28850.65
855.2416	1042.9985	29626.3	28690.9
855.3867	1044.9814	29625.1	28693.65
855.5317	1046.9636	29428.3	28489.7
855.6768	1048.9452	29338.85	28406.55
855.8219	1050.926	29295.95	28361.5
855.9669	1052.9061	29185.35	28250.2
856.112	1054.8855	29183.8	28248.25
856.257	1056.8642	29139.05	28205.5
856.4021	1058.8421	29141.85	28203.25
856.5471	1060.8194	29057.45	28121.6
856.6921	1062.7959	29003.55	28070.55
856.8372	1064.7717	28989.25	28053.85
856.9822	1066.7469	28971.55	28030.4
857.1272	1068.7213	29004.05	28067.95
857.2723	1070.695	28969.7	28034.5
857.4173	1072.6679	28858.7	27921.8
857.5623	1074.6402	28808.05	27873.95
857.7073	1076.6117	28764.55	27823.85
857.8523	1078.5826	28650.45	27715.7
857.9973	1080.5527	28500.25	27561.6
858.1423	1082.5221	28377.1	27442.45
858.2873	1084.4908	28280.9	27349.05
858.4323	1086.4587	28255.35	27318.75
858.5773	1088.426	28226.6	27292.3
858.7223	1090.3925	28087.35	27149.9
858.8673	1092.3584	28096.95	27161.8
859.0123	1094.3235	27931.85	26999.1
859.1573	1096.2879	27925.2	26993.3
859.3022	1098.2515	27946.95	27013.4
859.4472	1100.2145	28031.4	27102.35
859.5922	1102.1767	28067.5	27133.45
859.7371	1104.1382	28106	27171.9
859.8821	1106.099	28190.6	27255.95
860.027	1108.0591	28258.45	27325.65
860.172	1110.0185	28256.55	27320.3
860.3169	1111.9771	28316.45	27382.65
860.4619	1113.9351	28162.65	27227.95
860.6068	1115.8923	27997.75	27063.4
860.7517	1117.8488	27825.25	26889.6
860.8967	1119.8045	27608.3	26675.8
861.0416	1121.7596	27455.9	26521.1
861.1865	1123.7139	27284.3	26352.05
861.3314	1125.6675	27233.4	26298.75
861.4763	1127.6204	27282.05	26347.9
861.6212	1129.5726	27144.3	26208.4
861.7661	1131.524	27100.4	26166.25
861.911	1133.4748	26962.3	26028.6
862.0559	1135.4248	26758	25824.6
862.2008	1137.3741	26640	25707.5
862.3457	1139.3226	26481.15	25549.45
862.4905	1141.2705	26441.2	25507.8
862.6354	1143.2176	26263.6	25324.45
862.7803	1145.164	26231.25	25294.75
862.9251	1147.1097	26110.85	25175.65
863.07	1149.0546	26048.15	25114.8
863.2148	1150.9989	25956.3	25022.5
863.3597	1152.9424	25856.8	24921.45
863.5045	1154.8852	25736	24803.65
863.6493	1156.8272	25673.25	24740.9
863.7942	1158.7686	25679	24738.1
863.939	1160.7092	25573.7	24638.05
864.0838	1162.6491	25511.35	24576.8
864.2286	1164.5883	25580.55	24647.6
864.3734	1166.5267	25572.65	24635.15
864.5182	1168.4644	25609.25	24674.2
864.663	1170.4014	25695.15	24762.55
864.8078	1172.3377	25837.95	24907.15
864.9526	1174.2732	25954.5	25026.25
865.0974	1176.2081	26152.05	25221.45
865.2421	1178.1421	26417.5	25481.95
865.3869	1180.0755	26691.05	25760.95
865.5317	1182.0082	26786.05	25855.5
865.6764	1183.9401	26841.8	25912.3
865.8212	1185.8713	26707.95	25781.1
865.9659	1187.8017	26467.9	25544.15
866.1106	1189.7315	26204.55	25289
866.2554	1191.6605	25826.15	24909.65
866.4001	1193.5888	25526.15	24601.95
866.5448	1195.5163	25449.75	24524.15
866.6895	1197.4432	25292.75	24365.55
866.8342	1199.3693	25200.2	24271.8
866.9789	1201.2947	25069.2	24135.2
867.1236	1203.2193	24974.5	24040.1
867.2683	1205.1432	24985.55	24052.95
867.413	1207.0664	24869.85	23939.2
867.5576	1208.9889	24743.4	23809.6
867.7023	1210.9106	24680.4	23749.8
867.847	1212.8316	24626.3	23699.15
867.9916	1214.7519	24583.55	23643.4
868.1363	1216.6715	24515.4	23585.2
868.2809	1218.5903	24539.45	23611.3
868.4255	1220.5084	24553.45	23624.5
868.5701	1222.4257	24602.65	23673.05
868.7148	1224.3424	24483.3	23556.65
868.8594	1226.2583	24524.4	23593.4
869.004	1228.1735	24570.75	23641.5
869.1486	1230.0879	24551.2	23619.8
869.2932	1232.0016	24610.85	23682.35
869.4377	1233.9146	24630.25	23700.3
869.5823	1235.8269	24591.45	23662.45
869.7269	1237.7384	24562.65	23634.25
869.8715	1239.6492	24386.55	23457.9
870.016	1241.5592	24292.65	23362
870.1606	1243.4686	24269.05	23340.4
870.3051	1245.3772	24338.2	23411.75
870.4496	1247.285	24391.45	23461.85
870.5941	1249.1922	24423.95	23493.2
870.7387	1251.0986	24502.85	23574.7
870.8832	1253.0042	24461.85	23534.35
871.0277	1254.9092	24506.15	23575.25
871.1722	1256.8134	24515.95	23590.5
871.3167	1258.7169	24553.7	23626.7
871.4611	1260.6196	24567.95	23640.1
871.6056	1262.5216	24716.95	23785.65
871.7501	1264.4229	24787.4	23861.2
871.8945	1266.3234	24874.75	23947.3
872.039	1268.2232	24952.25	24021.8
872.1834	1270.1223	24930.75	24003.95
872.3278	1272.0207	24890.2	23962.3
872.4723	1273.9183	24828.2	23896.15
872.6167	1275.8151	24724	23797.75
872.7611	1277.7113	24695.5	23767.1
872.9055	1279.6067	24643.05	23719.9
873.0499	1281.5014	24745.25	23812.65
873.1943	1283.3953	24948.45	24016.95
873.3386	1285.2885	25228.85	24299.85
873.483	1287.181	25557.65	24630.3
873.6274	1289.0727	25869.05	24943.15
873.7717	1290.9637	26006.9	25076.75
873.9161	1292.854	26187.2	25259.2
874.0604	1294.7435	26066.45	25137.75
874.2047	1296.6323	26017.2	25088.9
874.349	1298.5204	25875.95	24944.05
874.4933	1300.4077	25665.6	24737.25
874.6376	1302.2943	25514.6	24589.7
874.7819	1304.1802	25316.4	24390.05
874.9262	1306.0653	24930.55	24002.55
875.0705	1307.9497	24614.6	23687.4
875.2147	1309.8333	24326.3	23399.85
875.359	1311.7162	24087.2	23157.2
875.5032	1313.5984	23955.05	23025.45
875.6475	1315.4798	23799.1	22849.4
875.7917	1317.3605	23760.9	22814.65
875.9359	1319.2405	23681.65	22751.85
876.0801	1321.1197	23509.2	22578.4
876.2243	1322.9982	23234.85	22300.4
876.3685	1324.876	23074.3	22149.8
876.5127	1326.753	22816.75	21889.4
876.6569	1328.6293	22660	21730.9
876.801	1330.5048	22584.3	21654.3
876.9452	1332.3796	22411.55	21483.5
877.0893	1334.2537	22358	21406.65
877.2335	1336.127	22197	21269.9
877.3776	1337.9996	22156.1	21230.3
877.5217	1339.8714	22125.35	21197.25
877.6658	1341.7426	22086.95	21116.95
877.8099	1343.6129	22013.9	21084.8
877.954	1345.4826	21978.9	21051.6
878.0981	1347.3515	21994	21062.1
878.2422	1349.2196	21947.45	21018.7
878.3862	1351.087	22004.3	21077.7
878.5303	1352.9537	21961.2	21033.75
878.6743	1354.8197	21988.05	21058.95
878.8184	1356.6849	22054.75	21126.3
878.9624	1358.5493	22118.55	21190.75
879.1064	1360.4131	22162.2	21236.4
879.2504	1362.276	22255.1	21329.9
879.3944	1364.1383	22200.1	21273.1
879.5384	1365.9998	22044.85	21112.25
879.6823	1367.8606	21787.95	20861.35
879.8263	1369.7206	21573.45	20644.85
879.9702	1371.5799	21307.1	20376.65
880.1142	1373.4384	21083	20154.9
880.2581	1375.2962	20936.05	20007.05
880.402	1377.1533	20620.1	19693.65
880.5459	1379.0096	20368.4	19445.2
880.6898	1380.8652	20128.8	19206.1
880.8337	1382.7201	19897.2	18974.8
880.9776	1384.5742	19670.8	18744.85
881.1215	1386.4275	19494.25	18568.35
881.2653	1388.2802	19384.9	18456.6
881.4092	1390.132	19228.75	18306.35
881.553	1391.9832	19220.05	18290.15
881.6968	1393.8336	19051.65	18123.25
881.8406	1395.6832	18978.8	18048
881.9844	1397.5322	18902.55	17974.95
882.1282	1399.3803	18858.7	17927.35
882.272	1401.2278	18721.95	17798
882.4158	1403.0745	18686.6	17760
882.5595	1404.9204	18580.8	17657.15
882.7033	1406.7656	18542.75	17615.35
882.847	1408.6101	18527.8	17599.6
882.9908	1410.4538	18489.6	17564.45
883.1345	1412.2968	18486.65	17560
883.2782	1414.139	18418.25	17493.2
883.4219	1415.9805	18430.35	17505.7
883.5656	1417.8213	18433.65	17488
883.7092	1419.6613	18445.2	17522.35
883.8529	1421.5006	18480.95	17556.85
883.9965	1423.3391	18574.3	17650.95
884.1402	1425.1769	18696.45	17769.15
884.2838	1427.0139	18924.4	17998.55
884.4274	1428.8502	19234.7	18308.45
884.571	1430.6858	19498.3	18575.85
884.7146	1432.5206	19672.1	18746.85
884.8582	1434.3547	19794.75	18868.15
885.0018	1436.188	19802.15	18878.85
885.1453	1438.0206	19723.05	18799.85
885.2889	1439.8524	19552.25	18626.9
885.4324	1441.6835	19455.85	18531.55
885.5759	1443.5139	19346.45	18416.8
885.7194	1445.3435	19270.95	18349.35
885.8629	1447.1724	19284.15	18362.35
886.0064	1449.0005	19167.05	18245.65
886.1499	1450.8279	19078.1	18155.05
886.2933	1452.6545	19093.2	18171.1
886.4368	1454.4804	19111.55	18191.15
886.5802	1456.3056	19087.25	18157.65
886.7237	1458.13	18974.35	18053.35
886.8671	1459.9536	18910.35	17989.15
887.0105	1461.7766	18729.45	17806.5
887.1539	1463.5987	18473.5	17549.5
887.2972	1465.4202	18245.2	17321.15
887.4406	1467.2409	17976.55	17054.3
887.584	1469.0608	17851.55	16931.15
887.7273	1470.88	17648.65	16724.25
887.8706	1472.6984	17465.1	16542.55
888.0139	1474.5161	17287.6	16363.15
888.1572	1476.3331	17165.2	16244.95
888.3005	1478.1493	17085.65	16159.8
888.4438	1479.9648	17048.25	16124.2
888.5871	1481.7795	16953.95	16030.75
888.7303	1483.5935	16882.15	15958.95
888.8736	1485.4067	16829.75	15905.45
889.0168	1487.2192	16799.1	15876.7
889.16	1489.031	16780.65	15856.8
889.3032	1490.842	16737.1	15813.1
889.4464	1492.6522	16662.35	15742.35
889.5896	1494.4618	16597.15	15675.95
889.7327	1496.2705	16574.95	15655
889.8759	1498.0785	16511.45	15589.85
890.019	1499.8858	16481.5	15559.4
890.1622	1501.6924	16412.15	15490.35
890.3053	1503.4981	16380.45	15461.7
890.4484	1505.3032	16315.95	15394.3
890.5914	1507.1075	16240.45	15318.5
890.7345	1508.911	16191.2	15269.45
890.8776	1510.7138	16162.35	15242.45
891.0206	1512.5159	16085.8	15163.95
891.1637	1514.3172	16008.15	15088
891.3067	1516.1178	15942.15	15023
891.4497	1517.9176	15902.3	14981.6
891.5927	1519.7166	15857.15	14939.05
891.7357	1521.515	15805.45	14879.65
891.8786	1523.3126	15767.3	14848.3
892.0216	1525.1094	15700.8	14779.7
892.1645	1526.9055	15667.25	14749.45
892.3074	1528.7008	15620	14701.5
892.4503	1530.4954	15500.5	14576.1
892.5932	1532.2893	15522.05	14605.55
892.7361	1534.0824	15438.7	14519.9
892.879	1535.8747	15425.7	14510
893.0218	1537.6663	15363.9	14448.9
893.1647	1539.4572	15297.8	14381.15
893.3075	1541.2473	15318.2	14400.9
893.4503	1543.0367	15259.3	14345.3
893.5931	1544.8253	15200.65	14281.15
893.7359	1546.6132	15214.1	14293.8
893.8787	1548.4003	15194.25	14270.5
894.0214	1550.1867	15177.35	14255.15
894.1642	1551.9723	15167.15	14250.1
894.3069	1553.7572	15223.75	14305.65
894.4496	1555.5414	15224.2	14311.45
894.5923	1557.3247	15242.1	14327.05
894.735	1559.1074	15331.95	14422.3
894.8777	1560.8893	15389.7	14477.5
895.0204	1562.6705	15443.5	14531.95
895.163	1564.4509	15535.55	14625.1
895.3056	1566.2305	15542	14633.4
895.4482	1568.0094	15586.5	14677.75
895.5908	1569.7876	15559.35	14651
895.7334	1571.565	15507.65	14593.35
895.876	1573.3417	15488.3	14576.25
896.0186	1575.1176	15461.6	14550.45
896.1611	1576.8928	15417.35	14508.7
896.3036	1578.6672	15365.15	14460.5
896.4461	1580.4409	15369.2	14467.85
896.5886	1582.2138	15316.85	14411.8
896.7311	1583.986	15324.35	14417.15
896.8736	1585.7575	15375.45	14468.95
897.0161	1587.5282	15375.55	14472.3
897.1585	1589.2981	15424.2	14521.15
897.3009	1591.0673	15406.1	14502.75
897.4433	1592.8358	15482.95	14578.8
897.5857	1594.6035	15502.85	14595
897.7281	1596.3704	15495.2	14587.2
897.8705	1598.1366	15518.05	14614.75
898.0128	1599.9021	15517.15	14611.3
898.1551	1601.6668	15535.6	14626.9
898.2975	1603.4308	15564.6	14657.6
898.4398	1605.194	15628.5	14716.45
898.5821	1606.9564	15709	14807.6
898.7243	1608.7182	15842.6	14940.3
898.8666	1610.4791	16010.55	15114.55
899.0088	1612.2394	16157	15260.7
899.1511	1613.9988	16306.7	15407.1
899.2933	1615.7576	16511.65	15610.05
899.4355	1617.5156	16610.25	15697.8
899.5776	1619.2728	16665.3	15757.25
899.7198	1621.0293	16584.75	15679.1
899.862	1622.785	16430.35	15526.85
900.0041	1624.54	16185.6	15282.85
900.1462	1626.2942	15947.75	15048
900.2883	1628.0477	15637.4	14731.6
900.4304	1629.8005	15394.95	14490.55
900.5725	1631.5525	15163.7	14264.65
900.7145	1633.3037	14952.2	14049.8
900.8566	1635.0542	14804.5	13904.95
900.9986	1636.804	14646.9	13748.2
901.1406	1638.553	14548.9	13595.45
901.2826	1640.3013	14434.9	13534.45
901.4245	1642.0488	14377.15	13474.1
901.5665	1643.7955	14358.1	13460.8
901.7085	1645.5416	14370.65	13468.1
901.8504	1647.2868	14393.55	13496.4
901.9923	1649.0313	14431.9	13531.8
902.1342	1650.7751	14495.75	13590.65
902.2761	1652.5181	14534.95	13637.35
902.4179	1654.2604	14598.8	13699.45
902.5598	1656.0019	14699.9	13799.95
902.7016	1657.7427	14838.7	13937.05
902.8434	1659.4828	14952.7	14051.75
902.9852	1661.222	15030.75	14128.65
903.127	1662.9606	15004.65	14102.25
903.2687	1664.6984	14860.7	13956.65
903.4105	1666.4354	14597.75	13693.9
903.5522	1668.1717	14229.85	13325.2
903.6939	1669.9072	13861.25	12958.7
903.8356	1671.642	13543.9	12638.05
903.9773	1673.3761	13321.15	12420.35
904.119	1675.1094	13087.75	12185.7
904.2606	1676.8419	12911.4	12013.75
904.4022	1678.5737	12745.35	11843.25
904.5439	1680.3048	12651.2	11750.95
904.6855	1682.0351	12540.8	11640.7
904.827	1683.7646	12446.05	11543.7
904.9686	1685.4934	12349.35	11446.15
905.1101	1687.2215	12263.75	11363.95
905.2517	1688.9488	12197.75	11299.35
905.3932	1690.6754	12133.25	11233.75
905.5347	1692.4012	12094.2	11194.1
905.6761	1694.1263	12020.4	11119.35
905.8176	1695.8506	11990.8	11091.25
905.9591	1697.5742	11967.85	11067.75
906.1005	1699.297	11861.5	10962.15
906.2419	1701.0191	11792.85	10894.15
906.3833	1702.7404	11733.4	10834.2
906.5246	1704.461	11674.2	10777.65
906.666	1706.1808	11650.55	10750.25
906.8073	1707.8999	11616.65	10718.2
906.9487	1709.6182	11585.1	10688.65
907.09	1711.3358	11539.65	10645.1
907.2313	1713.0527	11489.3	10594.8
907.3725	1714.7688	11442.1	10539.6
907.5138	1716.4841	11401.1	10502.9
907.655	1718.1987	11385.95	10482.8
907.7962	1719.9126	11320.75	10427.1
907.9374	1721.6257	11289.4	10394.5
908.0786	1723.338	11282.7	10386
908.2198	1725.0496	11226.7	10328.45
908.3609	1726.7605	11181.5	10284.55
908.502	1728.4706	11160.5	10262.55
908.6431	1730.18	11098.85	10201.8
908.7842	1731.8886	11097.75	10203.15
908.9253	1733.5964	11036.35	10134.75
909.0664	1735.3036	11021.4	10124.4
909.2074	1737.0099	10981.55	10085.95
909.3484	1738.7156	10945.85	10051.25
909.4894	1740.4204	10891.75	9994.3
909.6304	1742.1246	10886.7	9992.2
909.7714	1743.8279	10858.7	9963.6
909.9123	1745.5306	10841.6	9946.7
910.0532	1747.2325	10783.9	9886.7
910.1941	1748.9336	10745.9	9850.15
910.335	1750.634	10710.45	9812.85
910.4759	1752.3336	10686.25	9791.4
910.6168	1754.0325	10665.95	9773.3
910.7576	1755.7307	10649.65	9756.75
910.8984	1757.4281	10634.55	9739.2
911.0392	1759.1247	10640.6	9736.15
911.18	1760.8206	10625.85	9723.1
911.3208	1762.5158	10605.4	9704.1
911.4615	1764.2102	10562.55	9667.9
911.6022	1765.9039	10509.7	9614.35
911.7429	1767.5968	10477.7	9584.85
911.8836	1769.289	10459.05	9567.25
912.0243	1770.9804	10428.55	9532
912.1649	1772.6711	10425.85	9528.45
912.3056	1774.361	10394.65	9496.45
912.4462	1776.0502	10391.75	9497.15
912.5868	1777.7386	10342.95	9443.5
912.7274	1779.4263	10342.8	9446.9
912.8679	1781.1132	10311.1	9416.55
913.0084	1782.7994	10261.15	9368.35
913.149	1784.4849	10280.3	9387.95
913.2895	1786.1696	10251.65	9351.35
913.4299	1787.8535	10210.9	9318.45
913.5704	1789.5367	10173.25	9282.3
913.7108	1791.2192	10188.85	9295.45
913.8513	1792.9009	10164.15	9242.7
913.9917	1794.5818	10109.95	9212.8
914.132	1796.2621	10079.15	9184.4
914.2724	1797.9415	10048.3	9154.75
914.4128	1799.6202	10044	9149.05
914.5531	1801.2982	10023.65	9130
914.6934	1802.9755	9994.75	9097.35
914.8337	1804.6519	9980	9084.65
914.9739	1806.3277	9933.95	9039.5
915.1142	1808.0027	9900.65	9010.55
915.2544	1809.6769	9913.6	9021.3
915.3946	1811.3504	9872.55	8981.75
915.5348	1813.0231	9844.95	8954.4
915.675	1814.6951	9814.9	8919.8
915.8151	1816.3664	9838.45	8941.15
915.9553	1818.0369	9827.75	8933.6
916.0954	1819.7067	9762.55	8869
916.2355	1821.3757	9762.35	8865.6
916.3755	1823.044	9751.1	8855.95
916.5156	1824.7115	9737.05	8841.3
916.6556	1826.3783	9683.1	8790.3
916.7956	1828.0443	9652.45	8759.15
916.9356	1829.7096	9657.9	8760.15
917.0756	1831.3741	9640.2	8743.15
917.2155	1833.0379	9610.1	8717.4
917.3555	1834.701	9575.75	8682.95
917.4954	1836.3633	9586.65	8693
917.6353	1838.0248	9557.05	8663.35
917.7751	1839.6856	9523.45	8629
917.915	1841.3457	9544	8649.3
918.0548	1843.005	9500.95	8606.5
918.1946	1844.6636	9508.2	8614.8
918.3344	1846.3214	9436.4	8541.65
918.4742	1847.9785	9462.85	8570.05
918.6139	1849.6349	9458.2	8562.45
918.7537	1851.2904	9427.9	8521.65
918.8934	1852.9453	9404.2	8504.9
919.0331	1854.5994	9367.2	8468.05
919.1727	1856.2528	9380.45	8481.85
919.3124	1857.9054	9337.9	8443.25
919.452	1859.5572	9327.7	8435.9
919.5916	1861.2083	9310.9	8415.45
919.7312	1862.8587	9304.15	8410.05
919.8708	1864.5084	9292.05	8395.5
920.0103	1866.1572	9251.3	8356.8
920.1498	1867.8054	9220.75	8324.6
920.2893	1869.4528	9194.95	8301.15
920.4288	1871.0994	9180	8283
920.5683	1872.7453	9183.55	8287.55
920.7077	1874.3905	9135.25	8233.25
920.8471	1876.0349	9112.3	8218.3
920.9865	1877.6786	9134.45	8237.7
921.1259	1879.3215	9108.95	8216.85
921.2653	1880.9637	9088.75	8197.05
921.4046	1882.6051	9050.3	8156.8
921.5439	1884.2458	9045	8147.95
921.6832	1885.8858	9009.7	8115.75
921.8225	1887.525	9012.4	8116.6
921.9617	1889.1634	8971.05	8075.05
922.101	1890.8011	8962.8	8067.95
922.2402	1892.4381	8929.75	8033
922.3794	1894.0743	8925.85	8030.05
922.5185	1895.7098	8912.15	8018.85
922.6577	1897.3446	8888.95	7993.45
922.7968	1898.9786	8855.95	7956.85
922.9359	1900.6118	8846.15	7952.4
923.075	1902.2443	8786.7	7893.15
923.214	1903.8761	8780.3	7887.5
923.3531	1905.5071	8718.75	7823.8
923.4921	1907.1374	8707.9	7813.2
923.6311	1908.7669	8704.45	7809.95
923.77	1910.3957	8695.65	7801.5
923.909	1912.0237	8645.95	7751.45
924.0479	1913.651	8631.1	7736.05
924.1868	1915.2776	8602.7	7710.2
924.3257	1916.9034	8587.25	7693.8
924.4646	1918.5285	8565.2	7673.5
924.6034	1920.1528	8505.9	7612.35
924.7422	1921.7764	8510.75	7618.15
924.881	1923.3992	8456.8	7564.85
925.0198	1925.0213	8440	7545.75
925.1586	1926.6427	8394.4	7503.3
925.2973	1928.2633	8429.7	7467
925.436	1929.8832	8388.8	7492.5
925.5747	1931.5023	8323.55	7429.15
925.7134	1933.1207	8305.1	7409.9
925.852	1934.7383	8306.35	7412.05
925.9906	1936.3552	8267.3	7376
926.1292	1937.9714	8240.65	7348.1
926.2678	1939.5868	8198.3	7303.5
926.4064	1941.2015	8183.65	7287.5
926.5449	1942.8154	8172.8	7277.8
926.6834	1944.4286	8136.6	7242.8
926.8219	1946.041	8131.4	7213.7
926.9604	1947.6528	8091.85	7194.1
927.0988	1949.2637	8062.65	7168.25
927.2372	1950.8739	8019.35	7125.3
927.3756	1952.4834	8001.65	7109.05
927.514	1954.0921	8009.55	7116.1
927.6523	1955.7001	7995.7	7098.05
927.7907	1957.3074	7957	7066.4
927.929	1958.9139	7920	7027.6
928.0673	1960.5197	7901.55	7010.05
928.2055	1962.1247	7870.75	6981.2
928.3438	1963.729	7836.95	6948
928.482	1965.3325	7837.2	6924.5
928.6202	1966.9353	7798.65	6909.25
928.7584	1968.5374	7789.2	6896.9
928.8965	1970.1387	7770.25	6878.4
929.0346	1971.7393	7734.25	6843.4
929.1727	1973.3392	7706.6	6816.5
929.3108	1974.9383	7662.1	6772.95
929.4489	1976.5366	7640.55	6751.05
929.5869	1978.1342	7632.8	6741.2
929.7249	1979.7311	7634.75	6742.05
929.8629	1981.3273	7597.2	6704.7
930.0009	1982.9227	7584.3	6692.5
930.1388	1984.5173	7558.05	6669.65
930.2767	1986.1112	7518.5	6628.9
930.4146	1987.7044	7499.35	6611.2
930.5525	1989.2968	7480.25	6590.05
930.6904	1990.8885	7509.1	6617.35
930.8282	1992.4795	7481.5	6592.9
930.966	1994.0697	7430.3	6543.85
931.1038	1995.6592	7430.6	6540.95
931.2415	1997.2479	7396.65	6507.15
931.3793	1998.8359	7394.1	6505.85
931.517	2000.4232	7348.35	6461.65
931.6547	2002.0097	7335.6	6449.8
931.7923	2003.5955	7302.5	6414.2
931.93	2005.1805	7292.05	6403.8
932.0676	2006.7648	7281.3	6395.2
932.2052	2008.3484	7269.2	6382.35
932.3427	2009.9312	7249.4	6362.5
932.4803	2011.5133	7230.75	6346.3
932.6178	2013.0946	7219.65	6334.6
932.7553	2014.6752	7185	6295.95
932.8928	2016.2551	7168.3	6278.8
933.0302	2017.8342	7134.25	6246.65
933.1676	2019.4126	7117.65	6232.35
933.305	2020.9902	7093.4	6209.6
933.4424	2022.5672	7083.55	6197.1
933.5798	2024.1433	7077.7	6185.95
933.7171	2025.7188	7046.3	6162.85
933.8544	2027.2935	7034.05	6150.15
933.9917	2028.8674	7000.75	6115.45
934.129	2030.4406	6988.65	6106.05
934.2662	2032.0131	6935.15	6050.3
934.4034	2033.5849	6968.35	6077.05
934.5406	2035.1559	6938.95	6054.7
934.6778	2036.7261	6923.95	6038.25
934.8149	2038.2957	6924.35	6038.75
934.952	2039.8645	6895.25	6006.95
935.0891	2041.4325	6886.5	5994.35
935.2262	2042.9998	6859.05	5971.5
935.3632	2044.5664	6833	5945.65
935.5002	2046.1323	6825.65	5939.15
935.6372	2047.6974	6777.95	5893.55
935.7742	2049.2617	6781.2	5895.5
935.9111	2050.8254	6782.1	5892.45
936.048	2052.3883	6770.15	5880.6
936.1849	2053.9504	6755.05	5865.9
936.3218	2055.5118	6737.3	5849.9
936.4586	2057.0725	6724.4	5834.45
936.5955	2058.6325	6692.5	5805.35
936.7323	2060.1917	6664.05	5779.6
936.869	2061.7502	6641.1	5752.7
937.0058	2063.3079	6624.05	5740.15
937.1425	2064.8649	6620.3	5730.3
937.2792	2066.4212	6624.3	5736.95
937.4159	2067.9767	6597.55	5710.85
937.5525	2069.5315	6560.1	5672.7
937.6891	2071.0856	6541.3	5654.45
937.8257	2072.6389	6522.5	5634.2
937.9623	2074.1915	6501.6	5619
938.0989	2075.7433	6475.1	5584.8
938.2354	2077.2945	6468.25	5581.75
938.3719	2078.8448	6447.1	5560.4
938.5084	2080.3945	6433.7	5545.4
938.6448	2081.9434	6407.2	5519.15
938.7812	2083.4916	6407.7	5519.75
938.9176	2085.039	6390.15	5498.95
939.054	2086.5857	6384.55	5491.25
939.1903	2088.1317	6367.8	5474.85
939.3267	2089.677	6336.5	5444.85
939.463	2091.2215	6318.05	5426.6
939.5992	2092.7652	6326.5	5433.2
939.7355	2094.3083	6298.15	5406.8
939.8717	2095.8506	6289.35	5399.2
940.0079	2097.3921	6298.7	5411.15
940.1441	2098.933	6270.6	5380.1
940.2802	2100.4731	6261.8	5373.7
940.4163	2102.0124	6256.2	5358.3
940.5524	2103.5511	6239	5348.7
940.6885	2105.089	6218.05	5327.1
940.8245	2106.6261	6211.6	5322.8
940.9606	2108.1626	6190	5299.85
941.0965	2109.6983	6187.8	5268.65
941.2325	2111.2332	6144.7	5253.85
941.3684	2112.7675	6141.8	5250.55
941.5044	2114.301	6114.2	5223.15
941.6403	2115.8337	6155.1	5264.1
941.7761	2117.3657	6110.6	5219.4
941.912	2118.897	6111.15	5219.05
942.0478	2120.4276	6085.45	5189.75
942.1835	2121.9575	6054.25	5160.9
942.3193	2123.4866	6050.7	5157.3
942.455	2125.0149	6033.45	5140.15
942.5907	2126.5426	6011.85	5125.6
942.7264	2128.0695	6002.05	5111.4
942.8621	2129.5956	5984.1	5099.5
942.9977	2131.1211	5953.35	5061.05
943.1333	2132.6458	5963.9	5074.25
943.2689	2134.1698	5958.45	5068.05
943.4044	2135.693	5927.2	5033.8
943.54	2137.2155	5929.2	5035.6
943.6755	2138.7373	5911.35	5021
943.8109	2140.2584	5907.9	5021.25
943.9464	2141.7787	5876.4	4986
944.0818	2143.2983	5840.8	4956.05
944.2172	2144.8171	5824.15	4940.1
944.3526	2146.3353	5815.8	4926.1
944.4879	2147.8527	5796.75	4908.1
944.6232	2149.3693	5798.1	4908.8
944.7585	2150.8853	5780.65	4889.2
944.8938	2152.4005	5750.55	4858.15
945.029	2153.9149	5736	4843.1
945.1642	2155.4287	5824.2	4825.85
945.2994	2156.9417	5710.8	4819.1
945.4346	2158.454	5714.05	4824.3
945.5697	2159.9655	5678.1	4790.05
945.7048	2161.4764	5673.3	4785.75
945.8399	2162.9865	5654.75	4766.35
945.9749	2164.4958	5656.55	4767.2
946.1099	2166.0045	5629.65	4737.55
946.2449	2167.5124	5629.85	4740.35
946.3799	2169.0195	5600.7	4711.25
946.5148	2170.526	5615	4723.45
946.6498	2172.0317	5586.75	4697.1
946.7846	2173.5367	5583.6	4692.15
946.9195	2175.0409	5590.05	4701.55
947.0543	2176.5445	5567.55	4679.2
947.1891	2178.0473	5542.35	4651.2
947.3239	2179.5494	5519	4622.9
947.4587	2181.0507	5511.2	4621.3
947.5934	2182.5513	5487.3	4594.4
947.7281	2184.0512	5490.05	4599.55
947.8628	2185.5504	5469.8	4580
947.9974	2187.0488	5435.4	4547.35
948.132	2188.5465	5411.8	4523.8
948.2666	2190.0435	5391.25	4503.45
948.4012	2191.5397	5403.65	4512
948.5357	2193.0353	5373.45	4482.85
948.6702	2194.5301	5364	4470.05
948.8047	2196.0241	5346.8	4452.7
948.9392	2197.5175	5323.95	4431.6
949.0736	2199.0101	5320.3	4427.85
949.208	2200.502	5304.1	4412.85
949.3424	2201.9931	5270	4379.45
949.4767	2203.4835	5254.55	4366.45
949.611	2204.9733	5259.6	4354.75
949.7453	2206.4622	5243.8	4355.45
949.8796	2207.9505	5225.5	4335.3
950.0138	2209.438	5185.9	4299.6
950.148	2210.9248	5172.45	4283.45
950.2822	2212.4109	5184.9	4294.75
950.4164	2213.8962	5178.3	4284.4
950.5505	2215.3809	5153.4	4259.85
950.6846	2216.8648	5143.6	4249.95
950.8186	2218.3479	5123.4	4225.35
950.9527	2219.8304	5112.6	4216.15
951.0867	2221.3121	5120.05	4223.45
951.2207	2222.7931	5082.6	4191.45
951.3546	2224.2733	5056.85	4165.15
951.4886	2225.7529	5042.3	4150.75
951.6225	2227.2317	5032.1	4140.5
951.7563	2228.7098	5015.8	4128.2
951.8902	2230.1872	4982.65	4093.65
952.024	2231.6638	4994.25	4105.6
952.1578	2233.1397	4979.1	4087.4
952.2916	2234.6149	4962.75	4073.45
952.4253	2236.0894	4949.05	4058.95
952.559	2237.5632	4931.65	4040.9
952.6927	2239.0362	4922.75	4032.15
952.8263	2240.5085	4925.1	4034.3
952.9599	2241.9801	4890.1	3997.75
953.0935	2243.4509	4876.1	3985.2
953.2271	2244.921	4873.2	3981.85
953.3606	2246.3904	4854.9	3960.7
953.4941	2247.8591	4834	3938.7
953.6276	2249.3271	4824.05	3931.85
953.7611	2250.7943	4820.15	3927.4
953.8945	2252.2608	4815.6	3924.25
954.0279	2253.7266	4794	3902.15
954.1612	2255.1917	4777.6	3886.7
954.2946	2256.656	4756.2	3866.8
954.4279	2258.1197	4756.9	3868.55
954.5612	2259.5826	4731.95	3840.95
954.6944	2261.0447	4743.6	3850.15
954.8276	2262.5062	4705.85	3813.1
954.9608	2263.9669	4706.95	3811.6
955.094	2265.4269	4705.05	3814.8
955.2271	2266.8862	4692.6	3802.15
955.3602	2268.3448	4661.6	3773.1
955.4933	2269.8026	4658.15	3766.15
955.6264	2271.2598	4657.15	3767.9
955.7594	2272.7162	4630.4	3740.7
955.8924	2274.1719	4626.15	3735.3
956.0253	2275.6268	4617.75	3725.45
956.1583	2277.0811	4617	3723.25
956.2912	2278.5346	4601.25	3710.9
956.4241	2279.9874	4598.2	3709.35
956.5569	2281.4395	4582.2	3694.15
956.6897	2282.8908	4581.1	3688.2
956.8225	2284.3414	4563.85	3673.6
956.9553	2285.7914	4550	3657.25
957.088	2287.2406	4547.4	3654
957.2207	2288.689	4549.05	3655.5
957.3534	2290.1368	4522.6	3625.9
957.486	2291.5838	4511.25	3612.6
957.6186	2293.0302	4516.05	3619.5
957.7512	2294.4758	4472.8	3580.95
957.8838	2295.9206	4478.8	3585.25
958.0163	2297.3648	4457.3	3566.4
958.1488	2298.8082	4461	3569.25
958.2813	2300.251	4450.4	3557.55
958.4137	2301.693	4440.3	3543.85
958.5461	2303.1343	4431.85	3540.05
958.6785	2304.5748	4402.75	3511.2
958.8108	2306.0147	4401.85	3511.2
958.9432	2307.4538	4378.05	3488.65
959.0754	2308.8922	4377.5	3490.85
959.2077	2310.3299	4366.4	3479.15
959.3399	2311.7669	4352.75	3463
959.4721	2313.2031	4330.7	3438.35
959.6043	2314.6387	4324	3433.75
959.7365	2316.0735	4312.45	3421.95
959.8686	2317.5076	4298.45	3406.15
960.0006	2318.941	4291.8	3399.5
960.1327	2320.3737	4305.85	3412.7
960.2647	2321.8056	4290.85	3396.75
960.3967	2323.2369	4265.65	3374
960.5287	2324.6674	4246	3352.35
960.6606	2326.0972	4242.55	3348.8
960.7925	2327.5263	4237.8	3346.8
960.9244	2328.9547	4219.15	3325.7
961.0562	2330.3823	4221.4	3327.3
961.1881	2331.8092	4223.2	3328
961.3198	2333.2355	4190.35	3298.1
961.4516	2334.661	4189.6	3294.15
961.5833	2336.0858	4177	3283.4
961.715	2337.5098	4182.05	3289.15
961.8467	2338.9332	4173.6	3280.7
961.9783	2340.3558	4144.9	3249.55
962.1099	2341.7778	4125.55	3235.8
962.2415	2343.199	4116.95	3223.55
962.373	2344.6195	4111.45	3218.9
962.5045	2346.0393	4096	3207.85
962.636	2347.4583	4087.35	3196.15
962.7675	2348.8767	4082.3	3188.15
962.8989	2350.2943	4078.15	3183.6
963.0303	2351.7113	4075.9	3179
963.1617	2353.1275	4058.45	3163.9
963.293	2354.543	4074.8	3156
963.4243	2355.9578	4036.55	3142.3
963.5556	2357.3718	4028.2	3138.4
963.6868	2358.7852	3997.15	3104.25
963.818	2360.1978	4008.65	3117.7
963.9492	2361.6098	4000.45	3107.25
964.0803	2363.021	3986.05	3091.25
964.2114	2364.4315	3973.25	3080
964.3425	2365.8413	3964.2	3069.1
964.4736	2367.2504	3955.4	3066.25
964.6046	2368.6587	3933.1	3044.1
964.7356	2370.0664	3922.35	3033.65
964.8666	2371.4733	3916.45	3023.4
964.9975	2372.8795	3900.75	3012.1
965.1284	2374.285	3887.95	2997.5
965.2593	2375.6899	3866.15	2975.55
965.3901	2377.0939	3859.05	2968.2
965.5209	2378.4973	3851	2960.75
965.6517	2379.9	3833	2942.7
965.7825	2381.3019	3827.15	2937.7
965.9132	2382.7032	3826.3	2935.6
966.0439	2384.1037	3812.05	2924.15
966.1745	2385.5035	3816.65	2926.85
966.3051	2386.9027	3815.05	2926.45
966.4357	2388.3011	3804.3	2911.75
966.5663	2389.6987	3775.45	2886
966.6968	2391.0957	3767.15	2877.25
966.8273	2392.492	3755.9	2866.05
966.9578	2393.8876	3733.85	2841.45
967.0882	2395.2824	3728.4	2839.7
967.2186	2396.6765	3714.4	2824
967.349	2398.07	3703.4	2811.95
967.4793	2399.4627	3683	2788.9
967.6097	2400.8547	3683.55	2793.65
967.7399	2402.246	3682	2785.1
967.8702	2403.6366	3658.85	2766.2
968.0004	2405.0265	3644.45	2753.3
968.1306	2406.4156	3648.25	2752.3
968.2607	2407.8041	3633.65	2740.6
968.3909	2409.1918	3624.55	2730.65
968.521	2410.5789	3602.2	2710.4
968.651	2411.9652	3594.5	2698.35
968.781	2413.3508	3607.8	2716.8
968.911	2414.7358	3585.3	2694
969.041	2416.12	3555.65	2663.65
969.1709	2417.5035	3572.35	2682.3
969.3008	2418.8863	3549.6	2658.5
969.4307	2420.2684	3536.05	2642.95
969.5606	2421.6497	3532.35	2639.4
969.6904	2423.0304	3523.45	2630.95
969.8201	2424.4104	3494.85	2603.45
969.9499	2425.7896	3498.7	2606
970.0796	2427.1682	3483.15	2591.3
970.2093	2428.546	3491.1	2599.95
970.3389	2429.9232	3466.8	2572.75
970.4685	2431.2996	3464.9	2573.4
970.5981	2432.6753	3474.85	2582.7
970.7277	2434.0503	3453.3	2561.8
970.8572	2435.4246	3434.85	2542.65
970.9867	2436.7982	3441	2545.05
971.1161	2438.1711	3433.05	2542.7
971.2456	2439.5433	3427.45	2533.35
971.375	2440.9148	3414.4	2515.45
971.5043	2442.2856	3392.8	2502.8
971.6336	2443.6557	3376	2484.05
971.7629	2445.025	3375.45	2483.2
971.8922	2446.3937	3363.85	2470.85
972.0214	2447.7617	3351.25	2458.25
972.1506	2449.1289	3353.25	2460.75
972.2798	2450.4955	3352.85	2456.1
972.4089	2451.8613	3341.4	2451.8
972.538	2453.2265	3326.95	2434.65
972.6671	2454.5909	3325.95	2432.55
972.7961	2455.9546	3324.6	2433.4
972.9251	2457.3177	3310.35	2421.35
973.0541	2458.68	3300.95	2408.05
973.1831	2460.0416	3303.45	2410.1
973.312	2461.4025	3288.05	2395.9
973.4408	2462.7627	3298.75	2394.85
973.5697	2464.1222	3274.75	2385.9
973.6985	2465.4811	3259.95	2369.55
973.8273	2466.8392	3268.3	2377.55
973.956	2468.1966	3268.2	2374.65
974.0847	2469.5533	3260.35	2367.55
974.2134	2470.9093	3252.2	2360.65
974.3421	2472.2645	3229.9	2341.1
974.4707	2473.6191	3225.8	2335.2
974.5993	2474.973	3221	2329.95
974.7278	2476.3262	3212.75	2318.4
974.8563	2477.6787	3217.3	2326.95
974.9848	2479.0305	3187.15	2297.5
975.1132	2480.3816	3181.25	2289.85
975.2417	2481.7319	3172.75	2280.85
975.37	2483.0816	3164.6	2273.7
975.4984	2484.4306	3155.55	2262.5
975.6267	2485.7789	3151.15	2261
975.755	2487.1264	3140.45	2249.5
975.8833	2488.4733	3120.75	2229.95
976.0115	2489.8195	3134.35	2226.7
976.1397	2491.165	3100.45	2205.2
976.2678	2492.5097	3101.55	2209.5
976.3959	2493.8538	3098.55	2209.1
976.524	2495.1972	3086.45	2194.9
976.6521	2496.5398	3076.1	2183.7
976.7801	2497.8818	3063.55	2170.55
976.9081	2499.2231	3063.45	2169.95
977.036	2500.5637	3067.55	2175.95
977.164	2501.9035	3048.95	2156.75
977.2918	2503.2427	3046.75	2150.5
977.4197	2504.5812	3024.95	2134
977.5475	2505.919	3022.2	2128.15
977.6753	2507.256	3018.85	2128.75
977.8031	2508.5924	3015.95	2124.7
977.9308	2509.9281	3019.6	2119.55
978.0585	2511.2631	2987.05	2095.4
978.1861	2512.5974	2994.25	2104.5
978.3137	2513.9309	2989.35	2098.05
978.4413	2515.2638	3005.3	2085
978.5689	2516.596	2966.6	2077.35
978.6964	2517.9275	2951.1	2059.45
978.8239	2519.2583	2950.35	2057.9
978.9513	2520.5884	2943.3	2050.55
979.0788	2521.9178	2932.65	2042.3
979.2062	2523.2465	2929.5	2038.3
979.3335	2524.5745	2918.15	2028.8
979.4608	2525.9018	2920.35	2029.25
979.5881	2527.2284	2900.5	2009.6
979.7154	2528.5543	2912.65	2023.15
979.8426	2529.8796	2898.85	2007.15
979.9698	2531.2041	2886.95	1996.5
980.0969	2532.5279	2891.8	2001.1
980.224	2533.851	2904.1	2012.95
980.3511	2535.1735	2871.25	1979.5
980.4781	2536.4952	2878.3	1987.35
980.6052	2537.8163	2866.35	1974.2
980.7321	2539.1366	2857.7	1966.05
980.8591	2540.4562	2856.9	1963.85
980.986	2541.7752	2852.6	1962.05
981.1129	2543.0935	2841.4	1949.4
981.2397	2544.411	2856.65	1962.65
981.3665	2545.7279	2835.1	1942.85
981.4933	2547.0441	2836.15	1945.15
981.62	2548.3596	2836.55	1940.75
981.7467	2549.6744	2826.15	1934.05
981.8734	2550.9885	2823.05	1928.65
982.0001	2552.3019	2805.75	1914.8
982.1267	2553.6146	2816.95	1927.5
982.2532	2554.9266	2814.2	1925.25
982.3798	2556.2379	2782.7	1889.7
982.5063	2557.5485	2795	1905.5
982.6327	2558.8585	2791	1890.85
982.7592	2560.1677	2797	1899.2
982.8856	2561.4762	2787	1894.45
983.0119	2562.7841	2772.8	1877.15
983.1383	2564.0913	2778.95	1887.85
983.2646	2565.3977	2767.45	1876.6
983.3908	2566.7035	2764.1	1872.5
983.517	2568.0086	2758.25	1862.5
983.6432	2569.313	2760.9	1870.2
983.7694	2570.6167	2750.45	1853.95
983.8955	2571.9197	2741.55	1846.2
984.0216	2573.222	2744.95	1849
984.1476	2574.5236	2731.05	1840.25
984.2737	2575.8246	2725.4	1830.65
984.3996	2577.1248	2718.25	1825.1
984.5256	2578.4244	2720.3	1827.55
984.6515	2579.7232	2734.5	1842.25
984.7774	2581.0214	2746.35	1824.25
984.9032	2582.3189	2705.45	1814.85
985.029	2583.6157	2713.2	1818.35
985.1548	2584.9118	2691.35	1798.1
985.2806	2586.2072	2688.4	1795.95
985.4063	2587.5019	2686.25	1795.5
985.5319	2588.7959	2691.45	1799.2
985.6576	2590.0893	2677.75	1784.15
985.7832	2591.3819	2667.7	1776.4
985.9087	2592.6739	2666.95	1777
986.0343	2593.9652	2669.95	1776.5
986.1597	2595.2557	2655.2	1764.9
986.2852	2596.5456	2660.85	1769.55
986.4106	2597.8348	2650	1758.6
986.536	2599.1234	2635.1	1745.1
986.6614	2600.4112	2637.95	1746.3
986.7867	2601.6983	2641.55	1747.95
986.912	2602.9848	2628.55	1735.3
987.0372	2604.2705	2623.3	1723.65
987.1624	2605.5556	2626	1736
987.2876	2606.84	2611.8	1722.1
987.4128	2608.1237	2591.7	1700.2
987.5379	2609.4067	2592.4	1702.6
987.6629	2610.689	2595.05	1697.1
987.788	2611.9707	2582.1	1688.3
987.913	2613.2516	2570.15	1674.5
988.0379	2614.5319	2561.55	1670.8
988.1629	2615.8115	2557.95	1667.3
988.2878	2617.0903	2552.8	1661.4
988.4126	2618.3685	2541.85	1651.25
988.5375	2619.6461	2532.3	1645.15
988.6622	2620.9229	2521.8	1632.15
988.787	2622.199	2522.75	1631.9
988.9117	2623.4745	2515.65	1625.85
989.0364	2624.7493	2513.2	1623
989.161	2626.0234	2512.3	1622.6
989.2857	2627.2968	2497.15	1606.45
989.4102	2628.5695	2502.75	1610.9
989.5348	2629.8415	2488.55	1598.05
989.6593	2631.1128	2485.05	1592.95
989.7837	2632.3835	2464.9	1576.15
989.9082	2633.6535	2469.5	1578
990.0326	2634.9228	2461.7	1573.1
990.1569	2636.1914	2458	1567.75
990.2812	2637.4593	2462.75	1570.6
990.4055	2638.7265	2451.3	1559.85
990.5298	2639.9931	2441.95	1550.75
990.654	2641.259	2446.1	1554.85
990.7782	2642.5242	2431.85	1541.85
990.9023	2643.7887	2431.8	1541.65
991.0264	2645.0525	2424.75	1534.3
991.1505	2646.3156	2432.4	1527.9
991.2745	2647.5781	2411.8	1522.25
991.3985	2648.8398	2410.35	1521.6
991.5225	2650.1009	2422.8	1507.1
991.6464	2651.3613	2390.65	1501.15
991.7703	2652.6211	2391.15	1500.05
991.8942	2653.8801	2377.8	1490.55
992.018	2655.1385	2380.25	1486.7
992.1418	2656.3961	2384.65	1494.15
992.2655	2657.6531	2381.4	1490.7
992.3892	2658.9094	2381.6	1489.55
992.5129	2660.1651	2368.6	1475.3
992.6366	2661.42	2357.25	1467.55
992.7602	2662.6743	2352.9	1461.25
992.8837	2663.9279	2347.4	1460.35
993.0073	2665.1808	2358.45	1466.45
993.1307	2666.433	2355.6	1465.45
993.2542	2667.6846	2353.55	1463.95
993.3776	2668.9354	2346.55	1453.25
993.501	2670.1856	2349.7	1459.45
993.6244	2671.4351	2340.55	1450.85
993.7477	2672.6839	2343.8	1453.55
993.8709	2673.9321	2333.8	1445.7
993.9942	2675.1795	2338.15	1447.6
994.1174	2676.4263	2325.2	1436.95
994.2405	2677.6724	2317.25	1429.85
994.3637	2678.9179	2315.9	1425.6
994.4868	2680.1626	2317.65	1428.8
994.6098	2681.4067	2308.85	1418.5
994.7328	2682.6501	2314.7	1425.1
994.8558	2683.8928	2299.05	1410.5
994.9788	2685.1348	2290.75	1400.6
995.1017	2686.3761	2285.45	1396.05
995.2245	2687.6168	2277.7	1387
995.3474	2688.8568	2281.65	1392.3
995.4702	2690.0961	2269.95	1382.65
995.5929	2691.3348	2263.45	1374.3
995.7156	2692.5727	2271.45	1382.6
995.8383	2693.81	2256.05	1365.65
995.961	2695.0466	2255.4	1366.85
996.0836	2696.2826	2252.75	1362.85
996.2062	2697.5178	2244.7	1352.6
996.3287	2698.7524	2237.55	1347.65
996.4512	2699.9863	2248.6	1356.55
996.5737	2701.2195	2239.5	1351.7
996.6961	2702.452	2228.8	1338.05
996.8185	2703.6839	2232.65	1341.05
996.9408	2704.9151	2218.45	1329.8
997.0631	2706.1456	2226.35	1337
997.1854	2707.3755	2231.35	1340.05
997.3077	2708.6046	2216.9	1326.6
997.4299	2709.8331	2223.15	1331.6
997.552	2711.0609	2232.55	1344.05
997.6742	2712.2881	2224.05	1336.2
997.7963	2713.5145	2215.25	1323.65
997.9183	2714.7403	2214.4	1326.25
998.0403	2715.9654	2231.95	1340.2
998.1623	2717.1899	2244.6	1341
998.2842	2718.4136	2227.2	1338
998.4062	2719.6367	2240.15	1350.35
998.528	2720.8591	2246.8	1350.8
998.6498	2722.0809	2246.65	1356.7
998.7716	2723.3019	2244.95	1351.5
998.8934	2724.5223	2223.95	1333.6
999.0151	2725.7421	2223.55	1332.5
999.1368	2726.9611	2235.45	1344.9
999.2584	2728.1795	2224.9	1329.65
999.38	2729.3972	2212	1323.85
999.5016	2730.6142	2215.6	1319.95
999.6231	2731.8306	2202.25	1311.8
999.7446	2733.0462	2191	1299.4
999.8661	2734.2612	2176.2	1283.8
999.9875	2735.4756	2160.8	1269.85
1000.1089	2736.6892	2151.8	1261.1
1000.2302	2737.9022	2136.65	1249.05
1000.3515	2739.1145	2129.35	1241.55
1000.4728	2740.3262	2120.85	1225.55
1000.594	2741.5372	2103.5	1215.35
1000.7152	2742.7475	2092.8	1204.25
1000.8363	2743.9571	2096	1206
1000.9575	2745.1661	2081.95	1188.75
1001.0785	2746.3744	2076.55	1186.85
1001.1996	2747.582	2062.7	1175.3
1001.3206	2748.7889	2053.7	1164.3
1001.4415	2749.9952	2048.05	1158.1
1001.5625	2751.2008	2035.4	1145.7
1001.6833	2752.4057	2032.75	1141.85
1001.8042	2753.61	2027.45	1134.8
1001.925	2754.8136	2021.85	1131.4
1002.0458	2756.0165	2012.05	1124.3
1002.1665	2757.2188	2004	1117.8
1002.2872	2758.4204	2006.6	1119.25
1002.4078	2759.6213	2009.1	1116.95
1002.5285	2760.8215	2016.5	1124.6
1002.649	2762.0211	2002.45	1111.8
1002.7696	2763.22	1996.7	1105.8
1002.8901	2764.4182	1990.55	1101.05
1003.0106	2765.6158	1994.25	1103.5
1003.131	2766.8127	1987.7	1100.85
1003.2514	2768.009	1976.55	1087.8
1003.3717	2769.2045	1972.55	1083.95
1003.492	2770.3994	1967.85	1076.85
1003.6123	2771.5936	1968.45	1078.9
1003.7325	2772.7872	1957.75	1072.55
1003.8527	2773.9801	1950.3	1058.25
1003.9729	2775.1723	1974.85	1067.9
1004.093	2776.3639	1948.65	1061.8
1004.2131	2777.5548	1941.35	1051.2
1004.3331	2778.745	1938.45	1050.15
1004.4531	2779.9346	1925.7	1038.7
1004.5731	2781.1235	1936.1	1047.2
1004.693	2782.3117	1934.3	1048.8
1004.8129	2783.4992	1935.75	1049.9
1004.9328	2784.6861	1934.5	1048.3
1005.0526	2785.8723	1931.4	1041.85
1005.1723	2787.0579	1924.4	1035.15
1005.2921	2788.2428	1928.15	1037.9
1005.4118	2789.427	1927.95	1039.05
1005.5314	2790.6106	1926	1036.75
1005.651	2791.7935	1931.3	1044.15
1005.7706	2792.9757	1917.2	1029.7
1005.8902	2794.1573	1925.15	1039.6
1006.0097	2795.3382	1932.3	1044.95
1006.1291	2796.5184	1925.8	1039.75
1006.2485	2797.698	1922.95	1032.75
1006.3679	2798.8769	1932.25	1044.45
1006.4873	2800.0551	1932.3	1042.85
1006.6066	2801.2327	1944.5	1054.4
1006.7258	2802.4096	1939.4	1051.35
1006.8451	2803.5859	1955.8	1069.7
1006.9642	2804.7615	1947.15	1058.25
1007.0834	2805.9364	1959.05	1073.25
1007.2025	2807.1106	1967.35	1080.65
1007.3216	2808.2842	1987.8	1101.75
1007.4406	2809.4572	1998.55	1110
1007.5596	2810.6294	2014.25	1126.6
1007.6785	2811.801	2037.15	1150.65
1007.7975	2812.972	2046.25	1158.9
1007.9163	2814.1423	2063.6	1174.65
1008.0352	2815.3119	2088.6	1200.45
1008.154	2816.4808	2107.75	1221.95
1008.2727	2817.6491	2139.85	1252.1
1008.3914	2818.8167	2167.9	1280.55
1008.5101	2819.9837	2199.65	1307.7
1008.6288	2821.15	2218.6	1331.35
1008.7474	2822.3157	2256.1	1370.4
1008.8659	2823.4807	2284.35	1398.85
1008.9844	2824.645	2328.15	1440.55
1009.1029	2825.8086	2350.45	1462.7
1009.2214	2826.9716	2383.2	1496.5
1009.3398	2828.134	2403.1	1514.5
1009.4581	2829.2957	2433.25	1546.3
1009.5764	2830.4567	2456.45	1569.65
1009.6947	2831.617	2464.2	1575.95
1009.813	2832.7767	2464.35	1577.65
1009.9312	2833.9358	2461.8	1574.7
1010.0493	2835.0941	2465.6	1577.3
1010.1675	2836.2519	2457.4	1571.85
1010.2855	2837.4089	2427.45	1538.5
1010.4036	2838.5653	2419.5	1530.2
1010.5216	2839.7211	2419.65	1533.3
1010.6396	2840.8761	2418.7	1529.05
1010.7575	2842.0306	2409.55	1522.7
1010.8754	2843.1843	2418.1	1532.8
1010.9932	2844.3374	2444	1556.85
1011.111	2845.4899	2462.5	1575.5
1011.2288	2846.6417	2487.1	1600.8
1011.3465	2847.7928	2517.75	1631.75
1011.4642	2848.9433	2555.1	1667.15
1011.5818	2850.0931	2588.8	1701.8
1011.6995	2851.2422	2636.05	1746.05
1011.817	2852.3907	2654.9	1766.25
1011.9345	2853.5385	2675.9	1786.55
1012.052	2854.6857	2716.55	1821.3
1012.1695	2855.8323	2726.9	1841.2
1012.2869	2856.9781	2762.2	1876.15
1012.4042	2858.1233	2782.35	1894.85
1012.5216	2859.2679	2809.45	1923.45
1012.6389	2860.4118	2844.05	1957.75
1012.7561	2861.555	2858.8	1968.35
1012.8733	2862.6976	2888.35	1999.6
1012.9905	2863.8395	2899.95	2011.1
1013.1076	2864.9808	2916.05	2029.95
1013.2247	2866.1214	2937.1	2052.45
1013.3417	2867.2614	2942.85	2055.25
1013.4587	2868.4007	2943.3	2053.85
1013.5757	2869.5393	2956.15	2067.9
1013.6926	2870.6773	2967.65	2079.35
1013.8095	2871.8146	2969.55	2079.65
1013.9263	2872.9513	2975.55	2085.15
1014.0431	2874.0874	2946.3	2059.35
1014.1599	2875.2227	2946.35	2060.75
1014.2766	2876.3574	2930.35	2045.85
1014.3933	2877.4915	2920.55	2033.45
1014.51	2878.6249	2891.9	2007.2
1014.6266	2879.7577	2879.15	1989
1014.7431	2880.8898	2870.75	1974.3
1014.8596	2882.0212	2857.45	1970.5
1014.9761	2883.152	2854.55	1965.65
1015.0925	2884.2821	2841.2	1955.45
1015.2089	2885.4116	2811.7	1925.25
1015.3253	2886.5405	2821.55	1938.05
1015.4416	2887.6686	2826.25	1938.65
1015.5579	2888.7962	2827.45	1941.35
1015.6741	2889.923	2829.15	1943.1
1015.7903	2891.0493	2832.3	1947.55
1015.9065	2892.1748	2838.75	1952.15
1016.0226	2893.2997	2842.7	1955.1
1016.1387	2894.424	2846.5	1960.6
1016.2547	2895.5476	2847.9	1961.65
1016.3707	2896.6706	2862.75	1977.7
1016.4866	2897.7929	2865.95	1978.25
1016.6025	2898.9145	2879	1991.75
1016.7184	2900.0355	2890.95	2004.5
1016.8342	2901.1559	2904.1	2017.75
1016.95	2902.2756	2921.7	2036.25
1017.0658	2903.3946	2936.45	2052.15
1017.1815	2904.513	2947.7	2059.3
1017.2971	2905.6308	2970.45	2083.85
1017.4127	2906.7479	2966.6	2080.5
1017.5283	2907.8643	2991.8	2104.25
1017.6439	2908.9801	2998.25	2110.8
1017.7594	2910.0953	2990.1	2103.35
1017.8748	2911.2098	2989.25	2099.75
1017.9902	2912.3236	2997.05	2103.45
1018.1056	2913.4368	2988.95	2099.65
1018.2209	2914.5494	2954.2	2067.1
1018.3362	2915.6613	2948.25	2057.5
1018.4515	2916.7725	2920.35	2030.95
1018.5667	2917.8831	2897.25	2011.9
1018.6819	2918.9931	2886.2	2000.1
1018.797	2920.1024	2866.1	1979.7
1018.9121	2921.211	2841.75	1956.1
1019.0271	2922.319	2831.05	1942.3
1019.1421	2923.4264	2820.75	1937.15
1019.2571	2924.5331	2827.8	1941.15
1019.372	2925.6391	2815.65	1929.9
1019.4869	2926.7445	2814.75	1930.65
1019.6017	2927.8493	2813.1	1925.4
1019.7165	2928.9534	2808.15	1924.6
1019.8313	2930.0569	2821.65	1934.1
1019.946	2931.1597	2808.2	1921.3
1020.0606	2932.2619	2819.75	1933.6
1020.1753	2933.3634	2811.2	1925.05
1020.2899	2934.4643	2823.85	1931
1020.4044	2935.5645	2808.35	1918.45
1020.5189	2936.6641	2803.7	1912.8
1020.6334	2937.763	2774.95	1890.35
1020.7478	2938.8613	2753.7	1868.05
1020.8622	2939.959	2733.2	1843.1
1020.9765	2941.056	2689.15	1804.95
1021.0908	2942.1523	2652.25	1762.75
1021.2051	2943.248	2608.75	1721.4
1021.3193	2944.3431	2552.7	1667.4
1021.4334	2945.4375	2484.6	1598.75
1021.5476	2946.5313	2436.2	1553.5
1021.6617	2947.6244	2379.8	1494.15
1021.7757	2948.7169	2318.6	1433.5
1021.8897	2949.8087	2263.15	1377.5
1022.0037	2950.8999	2220.15	1333.25
1022.1176	2951.9904	2164.95	1282.75
1022.2315	2953.0803	2132	1245.4
1022.3453	2954.1696	2086.25	1201.7
1022.4591	2955.2582	2056.15	1168.65
1022.5728	2956.3462	2026.6	1140.9
1022.6865	2957.4335	2003.8	1117.35
1022.8002	2958.5202	1984.85	1098.8
1022.9138	2959.6062	1960.35	1075.05
1023.0274	2960.6916	1957.2	1072.95
1023.141	2961.7764	1934.9	1048.6
1023.2545	2962.8605	1923.45	1036.9
1023.3679	2963.9439	1918.75	1033.95
1023.4813	2965.0267	1902.05	1017.3
1023.5947	2966.1089	1929.85	1020.35
1023.708	2967.1905	1889.75	1004.3
1023.8213	2968.2714	1897.5	1013.25
1023.9346	2969.3516	1902.15	1016.7
1024.0478	2970.4312	1896.9	1005.3
1024.1609	2971.5102	1885.9	1000.35
1024.274	2972.5885	1892.05	1006.15
1024.3871	2973.6662	1894.7	1003.7
1024.5002	2974.7432	1889.7	1004.2
1024.6132	2975.8196	1896.7	1011.05
1024.7261	2976.8954	1883.1	998.7
1024.839	2977.9705	1883.1	996.7
1024.9519	2979.045	1873.2	988.65
1025.0647	2980.1188	1858.8	974.4
1025.1775	2981.192	1841.2	956.3
1025.2902	2982.2645	1837.55	952.5
1025.4029	2983.3364	1811.6	926.45
1025.5156	2984.4077	1804.95	920.65
1025.6282	2985.4783	1791.65	901.4
1025.7407	2986.5483	1770.4	886.75
1025.8532	2987.6177	1747.8	863.75
1025.9657	2988.6864	1727.45	842.3
1026.0782	2989.7545	1713.95	826.55
1026.1906	2990.8219	1686.4	803.5
1026.3029	2991.8887	1676.7	789.1
1026.4152	2992.9548	1647.5	760.9
1026.5275	2994.0204	1637.75	754.65
1026.6397	2995.0852	1604.95	721.3
1026.7519	2996.1495	1594.7	707.9
1026.864	2997.2131	1576.55	690.45
1026.9761	2998.276	1559.7	677.2
1027.0882	2999.3383	1544.55	659.15
1027.2002	3000.4	1539.55	652.95
1027.3122	3001.4611	1520.25	635.65
1027.4241	3002.5215	1501.7	617.3
1027.536	3003.5812	1495	609.7
1027.6478	3004.6404	1483.55	596.8
1027.7596	3005.6989	1482.75	595.35
1027.8714	3006.7567	1473.65	588.25
1027.9831	3007.8139	1485.05	582.05
1028.0947	3008.8705	1454.9	568.95
1028.2064	3009.9264	1465.6	563.3
1028.3179	3010.9818	1448.9	563.7
1028.4295	3012.0364	1441.35	556.05
1028.541	3013.0905	1442.15	558.7
1028.6524	3014.1439	1434.15	548.85
1028.7638	3015.1966	1426.05	541.4
1028.8752	3016.2487	1431.75	546.55
1028.9865	3017.3002	1429.95	542.05
1029.0978	3018.3511	1417.35	532.35
1029.209	3019.4013	1419.25	532.45
1029.3202	3020.4509	1414.1	530.15
1029.4314	3021.4998	1410.6	523.4
1029.5425	3022.5481	1399.95	513.9
1029.6535	3023.5958	1407.05	521.9
1029.7645	3024.6428	1409.95	524.9
1029.8755	3025.6892	1404.55	518.55
1029.9864	3026.735	1397.75	511.1
1030.0973	3027.7802	1402.25	514.2
1030.2082	3028.8247	1392.25	507.45
1030.319	3029.8685	1394.2	509.5
1030.4297	3030.9118	1402.6	519.05
1030.5404	3031.9544	1394.05	512.35
1030.6511	3032.9963	1395.85	510.8
1030.7617	3034.0376	1391.7	507
1030.8723	3035.0783	1396.9	511
1030.9829	3036.1184	1394.5	507.95
1031.0934	3037.1578	1400.8	518.1
1031.2038	3038.1966	1397.7	510.5
1031.3142	3039.2348	1398.8	513.7
1031.4246	3040.2723	1400.95	507.55
1031.5349	3041.3092	1392.75	508.15
1031.6452	3042.3455	1389.5	505.7
1031.7554	3043.3811	1390.35	505.6
1031.8656	3044.4161	1388.45	504.05
1031.9758	3045.4505	1385.35	500.55
1032.0859	3046.4842	1380.3	493.6
1032.1959	3047.5173	1376.6	494.35
1032.3059	3048.5498	1380.65	496.25
1032.4159	3049.5816	1378.7	494.25
1032.5258	3050.6128	1368.85	482.6
1032.6357	3051.6434	1366.95	479.35
1032.7455	3052.6734	1366.5	482.3
1032.8553	3053.7027	1371.9	487.7
1032.9651	3054.7314	1361.75	478.9
1033.0748	3055.7594	1363.7	478.45
1033.1845	3056.7868	1359.7	476.35
1033.2941	3057.8136	1350.45	467.05
1033.4037	3058.8398	1348.55	463.4
1033.5132	3059.8653	1346.45	462.55
1033.6227	3060.8902	1339	454.3
1033.7321	3061.9145	1340.9	457.45
1033.8415	3062.9381	1334.05	449.3
1033.9509	3063.9612	1352.95	454.35
1034.0602	3064.9835	1335.35	450.05
1034.1694	3066.0053	1337.6	453.1
1034.2787	3067.0264	1328.15	443.5
1034.3878	3068.0469	1328.1	441.35
1034.497	3069.0668	1320.5	433.55
1034.6061	3070.086	1317.45	433.95
1034.7151	3071.1046	1320.1	432.75
1034.8241	3072.1226	1310.6	425.15
1034.9331	3073.1399	1302.85	420.25
1035.042	3074.1567	1305.9	421.25
1035.1508	3075.1727	1291.7	408.15
1035.2597	3076.1882	1290.75	406.95
1035.3684	3077.203	1281.7	397.4
1035.4772	3078.2173	1272.1	386.8
1035.5859	3079.2308	1278.5	392.35
1035.6945	3080.2438	1274.55	386.95
1035.8031	3081.2561	1273.5	389.35
1035.9117	3082.2678	1259.35	373.95
1036.0202	3083.2789	1256.3	373.2
1036.1286	3084.2893	1250.4	365.15
1036.2371	3085.2991	1255.7	372.05
1036.3454	3086.3083	1243.35	353.25
1036.4538	3087.3169	1246.7	360.55
1036.562	3088.3248	1240.2	355.3
1036.6703	3089.3321	1242.35	355.8
1036.7785	3090.3388	1234.8	353.35
1036.8866	3091.3449	1231.7	346.8
1036.9948	3092.3503	1233	343.8
1037.1028	3093.3551	1219.7	336.2
1037.2108	3094.3593	1217.95	333.65
1037.3188	3095.3629	1213.75	328
1037.4267	3096.3658	1212.7	327.7
1037.5346	3097.3681	1213.9	329.35
1037.6425	3098.3698	1208	323.5
1037.7503	3099.3708	1210.8	325.35
1037.858	3100.3713	1208.4	324.3
1037.9657	3101.3711	1202.4	319.6
1038.0734	3102.3702	1336.25	313.35
1038.181	3103.3688	1200.85	312.9
1038.2886	3104.3667	1193.4	311.2
1038.3961	3105.364	1193.6	310
1038.5036	3106.3607	1189.5	304
1038.611	3107.3568	1191.55	306.8
1038.7184	3108.3522	1175.25	292
1038.8257	3109.347	1184.75	298.4
1038.933	3110.3412	1180	292.4
1039.0403	3111.3348	1172.85	289.05
1039.1475	3112.3277	1175.55	292.2
1039.2547	3113.32	1174.3	293.45
1039.3618	3114.3117	1171.6	286.7
1039.4689	3115.3028	1169.7	285.15
1039.5759	3116.2932	1167.1	284.25
1039.6829	3117.2831	1165.65	276.8
1039.7898	3118.2723	1163.45	281.25
1039.8967	3119.2608	1160.95	275.25
1040.0035	3120.2488	1158.1	272.9
1040.1103	3121.2361	1159.4	274.65
1040.2171	3122.2229	1155.5	272.2
1040.3238	3123.209	1157.55	272.2
1040.4305	3124.1944	1152.85	268.15
1040.5371	3125.1793	1153.1	267.05
1040.6437	3126.1635	1153.85	270.95
1040.7502	3127.1471	1143.85	262.25
1040.8567	3128.1301	1144.55	260.85
1040.9631	3129.1125	1144.9	262.05
1041.0695	3130.0942	1144	261.45
1041.1759	3131.0753	1150.3	258.95
1041.2822	3132.0558	1139.2	253.1
1041.3884	3133.0357	1142.6	256.4
1041.4946	3134.015	1134.6	249.6
1041.6008	3134.9936	1132.6	247.35
1041.7069	3135.9716	1151.65	246.55
1041.813	3136.949	1131.45	248.7
1041.919	3137.9258	1144.95	243.15
1042.025	3138.902	1131.65	242
1042.1309	3139.8775	1126.85	242.1
1042.2368	3140.8524	1128.5	243.65
1042.3427	3141.8267	1131.75	246.15
1042.4485	3142.8004	1124.35	238.6
1042.5542	3143.7735	1131.7	241.4
1042.6599	3144.7459	1123.15	238.2
1042.7656	3145.7178	1118.2	231.85
1042.8712	3146.689	1119.65	237.8
1042.9768	3147.6596	1116.95	232.3
1043.0823	3148.6295	1122.6	239.2
1043.1878	3149.5989	1111.8	227.85
1043.2932	3150.5676	1115.75	231.7
1043.3986	3151.5357	1112.05	230.15
1043.5039	3152.5032	1107.5	223.6
1043.6092	3153.4701	1106.35	222.15
1043.7145	3154.4364	1110.15	223.85
1043.8197	3155.402	1105.95	222.1
1043.9248	3156.367	1107.5	221.05
1044.03	3157.3315	1128.1	218.65
1044.135	3158.2952	1105.2	221.05
1044.24	3159.2584	1101.8	216.45
1044.345	3160.221	1101.35	218.1
1044.4499	3161.1829	1103.75	221.85
1044.5548	3162.1442	1096.8	215.05
1044.6596	3163.105	1092	208.15
1044.7644	3164.065	1090.2	206.7
1044.8692	3165.0245	1094.65	206.05
1044.9739	3165.9834	1090.9	207.05
1045.0785	3166.9416	1089.25	203.9
1045.1831	3167.8993	1092.35	206.05
1045.2877	3168.8563	1091.05	208.2
1045.3922	3169.8127	1091.95	207.45
1045.4966	3170.7684	1093.45	210.2
1045.6011	3171.7236	1085.75	200.9
1045.7054	3172.6782	1083.8	199.5
1045.8098	3173.6321	1084.1	199.25
1045.914	3174.5854	1088.95	201.2
1046.0183	3175.5381	1084.5	201
1046.1224	3176.4902	1081.6	199.7
1046.2266	3177.4417	1079.85	198.8
1046.3307	3178.3926	1080.7	196.95
1046.4347	3179.3428	1072.7	190.15
1046.5387	3180.2924	1071.25	188.8
1046.6427	3181.2415	1073.65	190.15
1046.7466	3182.1899	1079.35	192.25
1046.8504	3183.1377	1070.35	187.4
1046.9542	3184.0848	1076.9	190
1047.058	3185.0314	1066.5	181.8
1047.1617	3185.9773	1066.5	181.35
1047.2654	3186.9227	1074.9	187.6
1047.369	3187.8674	1062.85	178.65
1047.4726	3188.8115	1068	181
1047.5761	3189.755	1069.8	186.25
1047.6796	3190.6979	1060.8	179.75
1047.783	3191.6402	1061.75	177.85
1047.8864	3192.5818	1065.4	182
1047.9898	3193.5229	1069.9	180.25
1048.0931	3194.4633	1060.3	176.4
1048.1963	3195.4031	1060.35	175.85
1048.2995	3196.3423	1057.25	173.8
1048.4027	3197.2809	1056.05	172.8
1048.5058	3198.2189	1058.4	174.7
1048.6089	3199.1563	1065.7	175.8
1048.7119	3200.0931	1055.85	174.2
1048.8148	3201.0292	1053.25	171.75
1048.9178	3201.9648	1053.6	169.3
1049.0206	3202.8997	1053.45	167.8
1049.1235	3203.834	1053.25	168.45
1049.2262	3204.7677	1048.7	164.9
1049.329	3205.7008	1051.55	166.4
1049.4317	3206.6333	1044.2	161.75
1049.5343	3207.5652	1053.15	168.3
1049.6369	3208.4964	1050.9	166.1
1049.7394	3209.4271	1039.55	157.7
1049.8419	3210.3571	1040.15	157.55
1049.9444	3211.2865	1043.8	161.6
1050.0468	3212.2154	1040.05	155.7
1050.1491	3213.1436	1044.05	158.35
1050.2514	3214.0712	1053.35	163.85
1050.3537	3214.9982	1040.65	158
1050.4559	3215.9246	1040.55	155.95
1050.5581	3216.8503	1037.6	157.95
1050.6602	3217.7755	1037.35	153.55
1050.7623	3218.7001	1041.65	158.5
1050.8643	3219.624	1036.75	154.9
1050.9663	3220.5473	1037.8	153.1
1051.0682	3221.4701	1035	152.05
1051.1701	3222.3922	1036.05	150.35
1051.2719	3223.3137	1033.5	152.05
1051.3737	3224.2346	1035.8	153
1051.4754	3225.1549	1031.3	147.85
1051.5771	3226.0746	1032.4	151.3
1051.6788	3226.9937	1033.5	147.45
1051.7804	3227.9121	1028.8	146.1
1051.8819	3228.83	1026.4	143.95
1051.9834	3229.7473	1025.3	142.55
1052.0849	3230.6639	1027.8	145.05
1052.1863	3231.5799	1029.3	145.3
1052.2876	3232.4954	1025.95	143.1
1052.3889	3233.4102	1020.9	138.35
1052.4902	3234.3244	1020.8	137.3
1052.5914	3235.238	1022.9	138
1052.6926	3236.151	1045.5	135.9
1052.7937	3237.0634	1019.85	137.4
1052.8948	3237.9752	1022.2	140.3
1052.9958	3238.8864	1020.25	136.2
1053.0968	3239.797	1022.3	140.8
1053.1977	3240.7069	1014.8	129.95
1053.2986	3241.6163	1021.95	138.35
1053.3994	3242.5251	1016.35	132.2
1053.5002	3243.4332	1015.85	132.55
1053.6009	3244.3408	1015.3	131.7
1053.7016	3245.2477	1013.15	130.75
1053.8022	3246.154	1012.9	129.2
1053.9028	3247.0598	1013.45	128.65
1054.0034	3247.9649	1011.4	127.75
1054.1039	3248.8694	1009.1	126.7
1054.2043	3249.7733	1006	122.6
1054.3047	3250.6766	1007.65	124.25
1054.4051	3251.5793	1010.1	125.9
1054.5054	3252.4814	1007.75	124.7
1054.6056	3253.3829	1008.3	125.25
1054.7058	3254.2838	1002.4	119.3
1054.806	3255.1841	1004.35	121.25
1054.9061	3256.0838	1002.35	120.75
1055.0061	3256.9829	998.75	116.35
1055.1062	3257.8814	1001.45	118.2
1055.2061	3258.7792	1001.2	114.5
1055.306	3259.6765	998.15	114.1
1055.4059	3260.5731	998.6	115.7
1055.5057	3261.4692	999.9	114.35
1055.6055	3262.3647	1000.45	115.2
1055.7052	3263.2595	991.75	107.95
1055.8049	3264.1538	993.65	109.3
1055.9045	3265.0474	992.65	110.7
1056.0041	3265.9404	988.8	106.35
1056.1036	3266.8329	982.3	99.95
1056.2031	3267.7247	993.45	101.25
1056.3025	3268.616	983.9	101.15
1056.4019	3269.5066	980.75	97.65
1056.5013	3270.3966	978.4	93.75
1056.6005	3271.286	973	92.45
