Software Version:	3.9.2.0
Unit SN:	10000200
Spectrometer SN:	6960
Date:	3/26/2024 1:59:24 PM
Data Line Index:	25
Spectral Points:	2048
Integration time (ms):	125
Averages:	20
Delay (ms):	30000
Sequence Number:	1
Processing:	dark subtract
Laser Power (mW):	305
Laser Current (mA):	820
Laser Diode Temp (C):	25.1
Laser Case Temp (C):	27.4
System Temp (C):	27.3
Spectrometer Temp (C):	25.2
CCD Temp (C):	0
Secondary Temp (C):	20.017
Heatsink Temp (C):	22.776
CCDPCB Temp (C):	36.885
SecondaryPCB Temp (C):	34.373

Wavelength	RamanShift	Raw Counts	Dark Subtracted
787.061	30.1047	600.45	190.75
787.2016	32.3739	605.65	198.85
787.3422	34.6426	622.3	215.2
787.4828	36.9109	633.5	222.35
787.6235	39.1787	652	237.3
787.7642	41.4461	675.6	255.8
787.9049	43.7131	697.2	275.3
788.0456	45.9796	714.05	287.75
788.1863	48.2456	738.7	306.85
788.3271	50.5112	758.1	322.25
788.4679	52.7764	780.8	343.3
788.6087	55.0411	808.1	368.4
788.7496	57.3054	828.25	384.1
788.8904	59.5692	854.95	405.5
789.0313	61.8326	887.25	435
789.1722	64.0955	920.65	463.55
789.3132	66.3579	964.45	503.5
789.4541	68.6199	1011.55	548.65
789.5951	70.8815	1089.6	622.85
789.7361	73.1426	1253.6	781
789.8771	75.4032	1688.35	1211.9
790.0181	77.6634	2725.35	2241.8
790.1592	79.9231	5343.8	4849.55
790.3003	82.1824	11347.95	10832.65
790.4414	84.4412	23758.1	23206.45
790.5825	86.6995	45548.05	44942.75
790.7237	88.9574	57482.45	56834.6
790.8648	91.2148	61468.6	60784.75
791.006	93.4717	62257	61552.35
791.1472	95.7282	62584.4	61865.3
791.2885	97.9842	62733.9	62008.25
791.4297	100.2398	62664.9	61936.65
791.571	102.4949	62642.55	61913.5
791.7123	104.7495	62590.8	61860.8
791.8536	107.0036	62475.35	61743.5
791.9949	109.2573	62540.1	61806.35
792.1363	111.5105	62403.45	61668.8
792.2777	113.7632	62361.85	61622.5
792.4191	116.0154	62390.4	61641.65
792.5605	118.2672	62461.95	61714
792.7019	120.5185	62443.3	61701.3
792.8434	122.7693	62430.7	61687.55
792.9849	125.0197	62237.4	61485.35
793.1264	127.2696	62513.9	61763
793.2679	129.519	62439.45	61684.65
793.4094	131.7679	62562.75	61806.65
793.551	134.0163	62231.05	61469.6
793.6926	136.2642	62339.85	61575.3
793.8342	138.5117	62522.4	61751.75
793.9758	140.7587	62438.05	61669.45
794.1175	143.0052	62410.4	61636.4
794.2591	145.2512	62219.5	61448.45
794.4008	147.4967	62434.95	61663.4
794.5425	149.7417	62357.1	61585.55
794.6842	151.9863	62327.95	61549.2
794.826	154.2304	62215.25	61432.65
794.9677	156.4739	62284.6	61496.3
795.1095	158.717	62406.9	61623.4
795.2513	160.9596	62283.05	61488.15
795.3931	163.2017	62112.3	61318.4
795.535	165.4433	62267.8	61472.6
795.6768	167.6844	62132.6	61339.25
795.8187	169.925	62194.15	61395.9
795.9606	172.1651	62052.15	61252.05
796.1025	174.4047	62099.55	61300.15
796.2445	176.6439	62073.75	61273.05
796.3864	178.8825	61978.65	61169.3
796.5284	181.1206	62101.6	61287.35
796.6704	183.3582	62043.2	61222.9
796.8124	185.5954	61964.95	61144.9
796.9544	187.832	61987.7	61168.2
797.0965	190.0681	61850.3	61028.85
797.2386	192.3037	62069.85	61244.95
797.3806	194.5388	62282.85	61450.3
797.5228	196.7734	61762.75	60926.15
797.6649	199.0075	62238.5	61396.25
797.807	201.2411	62086.8	61241.3
797.9492	203.4742	62306.8	61465
798.0914	205.7068	62250	61405.55
798.2336	207.9389	62242.05	61403.3
798.3758	210.1704	62208.65	61362.2
798.518	212.4015	62379.75	61531.2
798.6603	214.632	62197.65	61349.3
798.8025	216.862	62434.7	61591.2
798.9448	219.0915	62329.65	61495.95
799.0871	221.3205	62332.1	61500.35
799.2294	223.549	62511.4	61684.3
799.3718	225.777	62494.15	61669.2
799.5141	228.0044	62618.25	61789.3
799.6565	230.2314	62563.15	61739.95
799.7989	232.4578	62586.95	61767.8
799.9413	234.6837	62653.2	61825.65
800.0837	236.909	62936.75	62100.8
800.2262	239.1339	62488.3	61629.45
800.3687	241.3582	62690.6	61840.3
800.5111	243.582	62665.95	61787.55
800.6536	245.8053	62619.65	61754.95
800.7961	248.0281	62605.2	61748.75
800.9387	250.2503	62674.85	61809.85
801.0812	252.472	62519.65	61653.65
801.2238	254.6932	62594.75	61726.3
801.3664	256.9139	62511.85	61640.7
801.509	259.134	62812.9	61936.8
801.6516	261.3536	62479.05	61603.6
801.7942	263.5727	62651.3	61772.05
801.9369	265.7912	62548.6	61668.05
802.0795	268.0092	62603.35	61728.3
802.2222	270.2267	62633.55	61755.2
802.3649	272.4436	62481.9	61607.85
802.5076	274.6601	62634.25	61749.45
802.6504	276.8759	62694.2	61815.45
802.7931	279.0913	62571.25	61689.8
802.9359	281.3061	62615.65	61736.8
803.0787	283.5204	62606.35	61719.25
803.2215	285.7341	62589.15	61701.65
803.3643	287.9473	62746.3	61847.15
803.5071	290.16	62666.75	61775.45
803.6499	292.3721	62762.35	61873.35
803.7928	294.5837	62661.25	61765.7
803.9357	296.7947	62587.75	61700.05
804.0786	299.0052	62809.05	61918.45
804.2215	301.2152	62703.9	61808.85
804.3644	303.4246	62769.85	61885
804.5074	305.6334	62745	61861.7
804.6503	307.8418	62516.45	61628.3
804.7933	310.0495	62507.9	61618.1
804.9363	312.2568	62463	61566.8
805.0793	314.4635	62421.85	61522.75
805.2223	316.6696	62533.15	61636.45
805.3653	318.8752	62583.7	61675.2
805.5084	321.0802	62255.95	61355.35
805.6514	323.2847	62400.65	61496.75
805.7945	325.4887	62376.5	61476.3
805.9376	327.692	62293.65	61395.05
806.0807	329.8949	62370.6	61472.15
806.2238	332.0972	62269.5	61366.8
806.367	334.2989	62311.4	61405.35
806.5101	336.5001	62393.05	61486.25
806.6533	338.7007	62148.1	61240.5
806.7965	340.9008	62275.65	61369.65
806.9397	343.1003	62281.1	61370.65
807.0829	345.2992	62344.5	61435.4
807.2261	347.4976	62233.8	61321.55
807.3693	349.6955	62276.85	61360.75
807.5126	351.8927	62188.4	61269.75
807.6559	354.0895	62291.15	61363.25
807.7991	356.2856	62280.6	61362.85
807.9424	358.4812	62376.1	61457.2
808.0857	360.6763	62180.6	61261.5
808.2291	362.8707	62353.35	61435.3
808.3724	365.0646	62254.75	61339.75
808.5158	367.258	62231.95	61314.45
808.6591	369.4508	62120.6	61197
808.8025	371.643	62292.25	61369.6
808.9459	373.8346	62205.65	61283.65
809.0893	376.0257	62186	61255.2
809.2327	378.2162	62136.85	61209.05
809.3762	380.4062	61994.6	61064.5
809.5196	382.5956	62119.25	61186.6
809.6631	384.7844	62112.95	61186.45
809.8066	386.9726	62163.85	61234.1
809.9501	389.1603	62140.45	61209.45
810.0936	391.3474	61995.55	61024.85
810.2371	393.5339	62104.75	61172.85
810.3806	395.7199	61922.55	60996.9
810.5241	397.9052	61954.2	61030.95
810.6677	400.09	61994.85	61071.1
810.8113	402.2743	62100.15	61177.55
810.9548	404.4579	61946.7	61027.15
811.0984	406.641	61960.65	61043
811.2421	408.8235	62045.35	61127.1
811.3857	411.0054	62079.3	61158.6
811.5293	413.1868	62147.4	61223.85
811.673	415.3675	62126.75	61198.7
811.8166	417.5477	62108.6	61181.5
811.9603	419.7273	62137.3	61214.1
812.104	421.9064	62089.75	61159.65
812.2477	424.0848	62102	61171.2
812.3914	426.2627	62164.25	61235.4
812.5351	428.4399	61965.15	61031.15
812.6788	430.6166	61818.7	60882.4
812.8226	432.7928	61946.45	61004.95
812.9663	434.9683	61780.25	60847.8
813.1101	437.1432	61732.6	60796.2
813.2539	439.3176	61841.45	60916.15
813.3977	441.4914	61625.8	60695.1
813.5415	443.6645	61671.1	60739.9
813.6853	445.8371	61679	60743.3
813.8291	448.0091	61541.45	60611.1
813.973	450.1806	61477.8	60539.65
814.1168	452.3514	61498.4	60568.8
814.2607	454.5216	61382.95	60441.85
814.4046	456.6913	61472.4	60541.8
814.5485	458.8603	61499.35	60569.9
814.6924	461.0288	61381.4	60455.8
814.8363	463.1967	61536.95	60613.65
814.9802	465.3639	61509.25	60578.9
815.1241	467.5306	61254.5	60323.55
815.2681	469.6967	61409.15	60480.15
815.412	471.8622	61503.45	60578.15
815.556	474.0271	61420.85	60491.3
815.7	476.1914	61437.65	60496.9
815.844	478.3551	61438.8	60504.85
815.988	480.5182	61621.1	60691.25
816.132	482.6807	61397.6	60478.85
816.276	484.8426	61414.3	60502.85
816.4201	487.0039	61609.45	60686.1
816.5641	489.1647	61649.25	60719.6
816.7082	491.3248	61480.35	60544.75
816.8522	493.4843	61713.65	60788.65
816.9963	495.6432	61721.2	60796.6
817.1404	497.8015	61444.85	60504.65
817.2845	499.9592	61621.75	60673.4
817.4286	502.1163	61606.5	60663.25
817.5727	504.2728	61565.35	60632.95
817.7168	506.4287	61526.5	60605.95
817.861	508.5839	61343.05	60420.6
818.0051	510.7386	61403.35	60474.15
818.1493	512.8927	61407.95	60466.5
818.2935	515.0461	61355.65	60415.35
818.4377	517.199	61444.15	60502.9
818.5818	519.3512	61343.95	60402.45
818.726	521.5029	61324.8	60385.05
818.8703	523.6539	61349.85	60412.25
819.0145	525.8043	61185.95	60246.75
819.1587	527.9541	61360.2	60414.55
819.303	530.1033	61333.95	60397.55
819.4472	532.2519	61234.8	60295.45
819.5915	534.3999	61361.6	60418
819.7357	536.5472	61449.75	60510.15
819.88	538.694	61279.45	60343.4
820.0243	540.8401	61481.75	60539.75
820.1686	542.9856	61511.75	60561.8
820.3129	545.1305	61628.15	60670.3
820.4572	547.2748	61450.7	60485.5
820.6016	549.4185	61393.7	60428.05
820.7459	551.5615	61464.9	60503.8
820.8902	553.704	61409.5	60446.45
821.0346	555.8458	61304.2	60347.7
821.1789	557.987	61313.5	60363.3
821.3233	560.1276	61373.25	60416.1
821.4677	562.2675	61321.35	60366.45
821.6121	564.4069	61339.6	60383.95
821.7565	566.5456	61425.5	60476.1
821.9009	568.6837	61238.7	60290.65
822.0453	570.8212	61298.85	60351.55
822.1897	572.958	61028.55	60081.25
822.3342	575.0942	61190.3	60243.6
822.4786	577.2299	61007.3	60069.4
822.6231	579.3648	60960.05	60034.85
822.7675	581.4992	60934.85	60022.35
822.912	583.6329	60918.1	59998.95
823.0565	585.766	60938.25	60013.5
823.201	587.8985	60981	60052.5
823.3454	590.0304	60769.9	59817.75
823.4899	592.1616	60934.95	59977.3
823.6345	594.2922	60845.1	59894.35
823.779	596.4222	60702	59746.55
823.9235	598.5515	60692.1	59736.15
824.068	600.6802	60752.3	59797.7
824.2126	602.8083	60523.35	59574.45
824.3571	604.9358	60495.3	59542.45
824.5017	607.0626	60660.75	59703.7
824.6462	609.1888	60414.1	59449.45
824.7908	611.3144	60548.5	59581.75
824.9354	613.4393	60427.65	59464.05
825.08	615.5636	60301.75	59337.1
825.2246	617.6873	60387.65	59426.85
825.3692	619.8103	60251.7	59290.15
825.5138	621.9327	60404.1	59446.45
825.6584	624.0544	60388.05	59439.3
825.803	626.1756	60269.1	59316.7
825.9477	628.2961	60286	59332.25
826.0923	630.4159	60188.45	59231.25
826.237	632.5351	60159.55	59200.4
826.3816	634.6537	60373.3	59414.85
826.5263	636.7716	60085.2	59120.45
826.6709	638.8889	60178.65	59209.4
826.8156	641.0056	60157.05	59189.25
826.9603	643.1216	60161.95	59197.65
827.105	645.237	60228.5	59265.75
827.2497	647.3518	60066	59113.1
827.3944	649.4659	60123.95	59171.7
827.5391	651.5793	60121.45	59173.6
827.6838	653.6922	60119.35	59167.1
827.8285	655.8043	59926.2	58974.9
827.9733	657.9159	60192.45	59238.6
828.118	660.0268	59707.35	58753.75
828.2627	662.137	59980.1	59019.95
828.4075	664.2466	60015.05	59045.15
828.5522	666.3556	59888.7	58923.05
828.697	668.4639	59953.8	58989.95
828.8418	670.5716	59834.65	58880.75
828.9865	672.6786	59933.9	58974.75
829.1313	674.785	59768.55	58803.35
829.2761	676.8907	59801.05	58839.3
829.4209	678.9958	59860.4	58907.9
829.5657	681.1002	59887.6	58926.65
829.7105	683.204	59682.8	58714.4
829.8553	685.3072	59597.05	58629.5
830.0001	687.4097	59671.35	58704.15
830.1449	689.5115	59608.05	58640.4
830.2898	691.6127	59711.35	58753.05
830.4346	693.7132	59557.7	58601.7
830.5794	695.8131	59549.2	58568.6
830.7243	697.9123	59617.95	58648.3
830.8691	700.0109	59629.95	58656.8
831.014	702.1089	59356.9	58387.15
831.1588	704.2061	59440.9	58477.65
831.3037	706.3028	59456.95	58491.7
831.4486	708.3987	59500.1	58533.1
831.5935	710.4941	59383.1	58422.35
831.7383	712.5887	59540	58578.35
831.8832	714.6827	59437	58472.45
832.0281	716.7761	59611.35	58653.75
832.173	718.8688	59727.65	58762.45
832.3179	720.9608	59595.65	58622.2
832.4628	723.0522	59626	58646.5
832.6077	725.1429	59403.55	58432.6
832.7527	727.233	59716.75	58749.3
832.8976	729.3224	58951.2	57985.45
833.0425	731.4112	59216.55	58248.15
833.1874	733.4993	59206.25	58238.7
833.3324	735.5867	59154.4	58188.25
833.4773	737.6735	58879.3	57910.15
833.6222	739.7596	58638.6	57667.45
833.7672	741.845	58633.65	57665.7
833.9122	743.9298	58971.5	58006.2
834.0571	746.014	58579.1	57610.4
834.2021	748.0974	58328.35	57350.8
834.347	750.1802	58776.15	57804.2
834.492	752.2624	58139.4	57170.15
834.637	754.3439	58216.9	57243
834.782	756.4247	58393.75	57409.2
834.9269	758.5048	58149.1	57176.7
835.0719	760.5843	58300.3	57327.4
835.2169	762.6631	58483.65	57509.8
835.3619	764.7413	58451.6	57481.6
835.5069	766.8188	58615.15	57640.25
835.6519	768.8956	58869.1	57893.5
835.7969	770.9718	58886.15	57914.35
835.9419	773.0473	58724.15	57754
836.0869	775.1221	58283.45	57310.7
836.232	777.1962	58184.9	57211.7
836.377	779.2697	57751.85	56773.1
836.522	781.3426	57986.85	56993.3
836.667	783.4147	58100.7	57128.6
836.8121	785.4862	58127.6	57158.25
836.9571	787.557	57794.15	56814.2
837.1021	789.6271	58015.1	57036.3
837.2472	791.6966	57564.2	56588.3
837.3922	793.7654	57064.7	56089.5
837.5373	795.8335	57019.55	56049.25
837.6823	797.901	57050.5	56075.55
837.8274	799.9678	56822.55	55847.6
837.9724	802.0339	56757.7	55781.15
838.1175	804.0993	56770.4	55784.85
838.2626	806.1641	56594.4	55614.55
838.4076	808.2282	56510.3	55536.45
838.5527	810.2916	56389.4	55415.7
838.6978	812.3544	56578.3	55607.85
838.8428	814.4164	56128.75	55156.4
838.9879	816.4778	56260.6	55282.8
839.133	818.5385	56218.95	55241.1
839.2781	820.5986	56203.7	55222.7
839.4232	822.658	56271.8	55291.95
839.5682	824.7166	56309.25	55334.3
839.7133	826.7747	56069.95	55091.7
839.8584	828.832	56254	55273.25
840.0035	830.8886	56450.05	55467.6
840.1486	832.9446	56431.65	55448.95
840.2937	834.9999	55852.55	54878.3
840.4388	837.0545	56131.4	55151.35
840.5839	839.1085	56184.2	55207.55
840.729	841.1618	56064.9	55083.8
840.8741	843.2143	55607.15	54628.6
841.0192	845.2662	55525.1	54547.1
841.1643	847.3175	55661	54686.1
841.3095	849.368	55107.9	54134.6
841.4546	851.4179	55488.1	54509.65
841.5997	853.467	55039	54060.55
841.7448	855.5155	55206	54224.8
841.8899	857.5633	54860	53887.85
842.0351	859.6105	54636.95	53658.85
842.1802	861.6569	54811.6	53832.7
842.3253	863.7027	54335.15	53353.85
842.4704	865.7478	54489.95	53505.75
842.6156	867.7922	54359.3	53379.35
842.7607	869.8359	54560.85	53576.9
842.9058	871.8789	54086	53108
843.0509	873.9212	54398.1	53385.45
843.1961	875.9629	54418.85	53436.9
843.3412	878.0039	54435.45	53456.65
843.4863	880.0441	54254.85	53281.8
843.6315	882.0837	54236.7	53258.2
843.7766	884.1226	54214.15	53233
843.9218	886.1609	54076.3	53101.6
844.0669	888.1984	53827.2	52850.35
844.212	890.2352	54234.3	53257.95
844.3572	892.2714	53690.4	52708.35
844.5023	894.3069	53848.45	52864.55
844.6475	896.3416	53521.7	52546.4
844.7926	898.3757	53445.75	52466.15
844.9377	900.4091	52948.75	51965.55
845.0829	902.4418	53534.15	52551.6
845.228	904.4739	53093.7	52108.35
845.3732	906.5052	53190.9	52209.5
845.5183	908.5358	52877.75	51895.25
845.6635	910.5658	52629.7	51644.8
845.8086	912.595	52557.85	51575.65
845.9538	914.6236	52043.25	51065.5
846.0989	916.6515	52657.75	51678.75
846.2441	918.6786	51884.1	50899.8
846.3892	920.7051	52095.4	51111.9
846.5344	922.7309	52034.85	51052.2
846.6795	924.756	52048.75	51069.95
846.8246	926.7804	51860.85	50880.7
846.9698	928.8041	51309.05	50326.45
847.1149	930.8272	51606.6	50625.7
847.2601	932.8495	51502.3	50520.85
847.4052	934.8711	51088.65	50106.85
847.5504	936.892	50840.95	49861.55
847.6955	938.9123	50886.7	49903.95
847.8407	940.9318	50583	49604.6
847.9858	942.9506	50485.95	49501.55
848.131	944.9688	50380.5	49402
848.2761	946.9862	49911.95	48930.2
848.4213	949.003	49923.05	48939
848.5664	951.019	49495.5	48511.2
848.7115	953.0344	49601.75	48620.1
848.8567	955.0491	49470.15	48491.05
849.0018	957.063	49588.65	48607.75
849.147	959.0763	49701.85	48717.5
849.2921	961.0888	49372.1	48391.4
849.4373	963.1007	49521.7	48545.9
849.5824	965.1119	49474.45	48504.6
849.7275	967.1223	49301.3	48340.8
849.8727	969.1321	49442.35	48481.15
850.0178	971.1412	49105.3	48140.7
850.1629	973.1495	48874.4	47896.05
850.3081	975.1572	48976.05	47963.7
850.4532	977.1641	48914.3	47933.65
850.5983	979.1704	48778.85	47798.45
850.7435	981.1759	48692.95	47707.75
850.8886	983.1808	48589.35	47609.3
851.0337	985.1849	48529.9	47537.1
851.1788	987.1884	48570.1	47589.9
851.324	989.1911	48768.9	47791.55
851.4691	991.1932	48360.95	47380.7
851.6142	993.1945	48385.4	47411.3
851.7593	995.1951	48329.1	47355.75
851.9045	997.1951	48119.4	47132.75
852.0496	999.1943	47891.15	46911.5
852.1947	1001.1928	47645.45	46668.2
852.3398	1003.1906	47612.9	46633.2
852.4849	1005.1877	47393.95	46417.25
852.63	1007.1841	47187	46207.6
852.7751	1009.1798	47071.8	46096.3
852.9202	1011.1748	46904.5	45925.25
853.0653	1013.1691	46684.25	45709.15
853.2104	1015.1627	46162.3	45190.2
853.3555	1017.1556	45878.3	44908.05
853.5006	1019.1477	45839.2	44867.95
853.6457	1021.1392	45439.5	44475.35
853.7908	1023.1299	45237.05	44270.85
853.9359	1025.12	45206.25	44245.75
854.081	1027.1093	44954.45	44010.15
854.2261	1029.0979	44905.75	43964.9
854.3712	1031.0859	44865.15	43917.4
854.5163	1033.0731	44599.6	43640.2
854.6613	1035.0596	44568	43602.35
854.8064	1037.0454	44306.1	43339.85
854.9515	1039.0304	44063.75	43089.4
855.0965	1041.0148	43707.6	42739.1
855.2416	1042.9985	43565.85	42593.45
855.3867	1044.9814	43606.85	42633.25
855.5317	1046.9636	43271.15	42299.65
855.6768	1048.9452	43178.35	42208.5
855.8219	1050.926	43101.25	42133.3
855.9669	1052.9061	42941.6	41968.6
856.112	1054.8855	42868.6	41894.55
856.257	1056.8642	42809.9	41834.65
856.4021	1058.8421	42764.6	41788.75
856.5471	1060.8194	42664.8	41688.2
856.6921	1062.7959	42569.35	41595.6
856.8372	1064.7717	42558.25	41584.65
856.9822	1066.7469	42471.7	41495.8
857.1272	1068.7213	42333.95	41359.75
857.2723	1070.695	42255.8	41284.8
857.4173	1072.6679	42012.8	41041.25
857.5623	1074.6402	41960.5	40990.05
857.7073	1076.6117	41846.35	40869.75
857.8523	1078.5826	41805.05	40831
857.9973	1080.5527	41672.25	40693.45
858.1423	1082.5221	41563.3	40593.85
858.2873	1084.4908	41614.35	40641.75
858.4323	1086.4587	41618.8	40646.65
858.5773	1088.426	41661.45	40687.75
858.7223	1090.3925	41466.3	40491.4
858.8673	1092.3584	41366.4	40392.75
859.0123	1094.3235	41099.25	40129.6
859.1573	1096.2879	40899.15	39930.45
859.3022	1098.2515	40908.55	39936.6
859.4472	1100.2145	40920.15	39946.3
859.5922	1102.1767	40808.2	39837.4
859.7371	1104.1382	40893.1	39926.05
859.8821	1106.099	40998.75	40024.5
860.027	1108.0591	40960.1	39989.5
860.172	1110.0185	40969.55	39997.45
860.3169	1111.9771	41027.45	40060.5
860.4619	1113.9351	40644.6	39671.7
860.6068	1115.8923	40328.5	39357.15
860.7517	1117.8488	40030.2	39056.25
860.8967	1119.8045	39627.3	38656.95
861.0416	1121.7596	39534.85	38570.6
861.1865	1123.7139	39347.05	38379.85
861.3314	1125.6675	39291.4	38322.25
861.4763	1127.6204	39277.05	38306.7
861.6212	1129.5726	39108.55	38134.4
861.7661	1131.524	39064.95	38095
861.911	1133.4748	39034.6	38061.75
862.0559	1135.4248	38769.65	37801.85
862.2008	1137.3741	38695.3	37726.75
862.3457	1139.3226	38598.45	37627.65
862.4905	1141.2705	38510.5	37538.6
862.6354	1143.2176	38196.15	37222.3
862.7803	1145.164	38177.7	37205.15
862.9251	1147.1097	38046.05	37076
863.07	1149.0546	37992.45	37016.85
863.2148	1150.9989	37888.6	36920.1
863.3597	1152.9424	37716.4	36744.15
863.5045	1154.8852	37583.55	36611.55
863.6493	1156.8272	37383.65	36416
863.7942	1158.7686	37369.55	36394.4
863.939	1160.7092	37154.6	36186.2
864.0838	1162.6491	37045.45	36075.45
864.2286	1164.5883	37107.5	36137
864.3734	1166.5267	37031.55	36062.8
864.5182	1168.4644	37086.95	36120.35
864.663	1170.4014	37177.85	36205.75
864.8078	1172.3377	37346	36379.4
864.9526	1174.2732	37433.6	36464.95
865.0974	1176.2081	37630.1	36662.05
865.2421	1178.1421	37686.85	36714.9
865.3869	1180.0755	37937.85	36972.6
865.5317	1182.0082	37908.6	36942.95
865.6764	1183.9401	37908	36942.25
865.8212	1185.8713	37649.25	36692.15
865.9659	1187.8017	37426.6	36478.85
866.1106	1189.7315	37110.55	36171.15
866.2554	1191.6605	36719.8	35775.4
866.4001	1193.5888	36429.9	35479.8
866.5448	1195.5163	36270.55	35311
866.6895	1197.4432	36090.85	35127.3
866.8342	1199.3693	35984.4	35022.35
866.9789	1201.2947	35837.35	34868.85
867.1236	1203.2193	35661.75	34700.5
867.2683	1205.1432	35661.05	34693.45
867.413	1207.0664	35515.65	34554.5
867.5576	1208.9889	35437.5	34469.85
867.7023	1210.9106	35328.55	34364
867.847	1212.8316	35228.55	34261.8
867.9916	1214.7519	35222.45	34247.4
868.1363	1216.6715	35124.3	34160.35
868.2809	1218.5903	35049.6	34086.6
868.4255	1220.5084	34979.1	34014.1
868.5701	1222.4257	34952.35	33991.1
868.7148	1224.3424	34764	33803.65
868.8594	1226.2583	34759.55	33795.95
869.004	1228.1735	34710.65	33748.4
869.1486	1230.0879	34629.15	33669.95
869.2932	1232.0016	34679.95	33720.35
869.4377	1233.9146	34589.5	33626.1
869.5823	1235.8269	34437.35	33477.75
869.7269	1237.7384	34372.85	33414.15
869.8715	1239.6492	34075.95	33111.65
870.016	1241.5592	33970.95	33006.45
870.1606	1243.4686	33838.4	32874
870.3051	1245.3772	33761.9	32801.7
870.4496	1247.285	33634.65	32670.75
870.5941	1249.1922	33547.45	32584.65
870.7387	1251.0986	33521.4	32560.15
870.8832	1253.0042	33378.55	32418.9
871.0277	1254.9092	33436.75	32477.7
871.1722	1256.8134	33347.15	32383.95
871.3167	1258.7169	33432.05	32473
871.4611	1260.6196	33421.7	32461.65
871.6056	1262.5216	33598.15	32638.95
871.7501	1264.4229	33654.3	32696.55
871.8945	1266.3234	33758.6	32796.95
872.039	1268.2232	33754.35	32792
872.1834	1270.1223	33674.6	32711.75
872.3278	1272.0207	33573.75	32614
872.4723	1273.9183	33489.7	32522.55
872.6167	1275.8151	33335.65	32377.6
872.7611	1277.7113	33261.1	32304.4
872.9055	1279.6067	33069.25	32114.15
873.0499	1281.5014	32965	32004.6
873.1943	1283.3953	32931.35	31970.7
873.3386	1285.2885	33007.85	32051.2
873.483	1287.181	32998.5	32040.3
873.6274	1289.0727	33129.8	32172.95
873.7717	1290.9637	33106.9	32145.8
873.9161	1292.854	33240	32279.35
874.0604	1294.7435	33224.85	32267.65
874.2047	1296.6323	33198.2	32239.5
874.349	1298.5204	33334.75	32376.35
874.4933	1300.4077	33343.25	32385.1
874.6376	1302.2943	33349.9	32390.8
874.7819	1304.1802	33266.7	32308.15
874.9262	1306.0653	33002.4	32041.45
875.0705	1307.9497	32774.8	31815.55
875.2147	1309.8333	32568.7	31613.45
875.359	1311.7162	32444.65	31488.7
875.5032	1313.5984	32404.4	31443.1
875.6475	1315.4798	32312.5	31340.35
875.7917	1317.3605	32308.25	31347
875.9359	1319.2405	32307.6	31349.4
876.0801	1321.1197	32237.3	31273.5
876.2243	1322.9982	32006.7	31045.65
876.3685	1324.876	31979.35	31019.9
876.5127	1326.753	31730.8	30774.5
876.6569	1328.6293	31694.65	30735
876.801	1330.5048	31668.95	30706.25
876.9452	1332.3796	31544.25	30585.4
877.0893	1334.2537	31495	30514.35
877.2335	1336.127	31336.9	30375.4
877.3776	1337.9996	31330	30372.05
877.5217	1339.8714	31218.8	30261.7
877.6658	1341.7426	31153.75	30151.65
877.8099	1343.6129	31086	30128.15
877.954	1345.4826	30978.95	30020.75
878.0981	1347.3515	30980.45	30018.1
878.2422	1349.2196	30886.65	29927.9
878.3862	1351.087	30885.45	29929.65
878.5303	1352.9537	30910.9	29953.15
878.6743	1354.8197	30915.6	29956.1
878.8184	1356.6849	31015.25	30055.4
878.9624	1358.5493	31027.8	30068.4
879.1064	1360.4131	31043.15	30086.75
879.2504	1362.276	30950.75	29994.35
879.3944	1364.1383	30809.05	29851.5
879.5384	1365.9998	30567.3	29606.6
879.6823	1367.8606	30191.65	29230.6
879.8263	1369.7206	29896.15	28937.3
879.9702	1371.5799	29661.5	28701.3
880.1142	1373.4384	29413.2	28456.25
880.2581	1375.2962	29284.25	28328.6
880.402	1377.1533	28964.05	28012.1
880.5459	1379.0096	28580.05	27630.45
880.6898	1380.8652	28264.75	27312.4
880.8337	1382.7201	27965.05	27013.65
880.9776	1384.5742	27712.85	26759.7
881.1215	1386.4275	27506.25	26551.55
881.2653	1388.2802	27324.1	26373.55
881.4092	1390.132	27155.85	26198.7
881.553	1391.9832	27148.2	26191.4
881.6968	1393.8336	26923.55	25969.7
881.8406	1395.6832	26763.05	25804.95
881.9844	1397.5322	26670.35	25713.9
882.1282	1399.3803	26581.5	25625.45
882.272	1401.2278	26441.4	25485.05
882.4158	1403.0745	26394.75	25441.1
882.5595	1404.9204	26239.7	25286.7
882.7033	1406.7656	26227.25	25274.25
882.847	1408.6101	26153.35	25199.35
882.9908	1410.4538	26065.15	25112.95
883.1345	1412.2968	26068.7	25114.3
883.2782	1414.139	25998.45	25043.65
883.4219	1415.9805	26025.15	25074.3
883.5656	1417.8213	26006.85	25034.75
883.7092	1419.6613	25983.05	25032.15
883.8529	1421.5006	26100.6	25147.85
883.9965	1423.3391	26207.05	25253.75
884.1402	1425.1769	26349.6	25396.45
884.2838	1427.0139	26676.65	25724.6
884.4274	1428.8502	27113.65	26158.6
884.571	1430.6858	27482.25	26533.9
884.7146	1432.5206	27718.3	26764.65
884.8582	1434.3547	27886.7	26933.75
885.0018	1436.188	27890.35	26935.35
885.1453	1438.0206	27781.35	26826.1
885.2889	1439.8524	27542.65	26594.25
885.4324	1441.6835	27442.45	26492.4
885.5759	1443.5139	27331.5	26375.2
885.7194	1445.3435	27176.6	26225.4
885.8629	1447.1724	27105.35	26156.15
886.0064	1449.0005	27004.25	26054.9
886.1499	1450.8279	26897.7	25944.7
886.2933	1452.6545	26826.5	25880.25
886.4368	1454.4804	26831.75	25883.4
886.5802	1456.3056	26795.25	25839
886.7237	1458.13	26681.75	25736.9
886.8671	1459.9536	26558.9	25606.05
887.0105	1461.7766	26225.9	25274.6
887.1539	1463.5987	25883.3	24930.15
887.2972	1465.4202	25541.1	24591.25
887.4406	1467.2409	25193.85	24244.3
887.584	1469.0608	24975.7	24027.65
887.7273	1470.88	24673.25	23725.5
887.8706	1472.6984	24482.25	23533.95
888.0139	1474.5161	24240.6	23291.8
888.1572	1476.3331	24114.4	23164.65
888.3005	1478.1493	23966.7	23015.4
888.4438	1479.9648	23880.35	22930.65
888.5871	1481.7795	23764.6	22812.3
888.7303	1483.5935	23714.25	22762.8
888.8736	1485.4067	23592.2	22646.2
889.0168	1487.2192	23535.5	22582.4
889.16	1489.031	23463.05	22513.3
889.3032	1490.842	23345.85	22398.6
889.4464	1492.6522	23301.4	22353.25
889.5896	1494.4618	23192.7	22241.95
889.7327	1496.2705	23195.7	22249.65
889.8759	1498.0785	23158.55	22209.2
890.019	1499.8858	23066.65	22118.75
890.1622	1501.6924	22999.7	22051.4
890.3053	1503.4981	22934.25	21985.35
890.4484	1505.3032	22898.55	21949.7
890.5914	1507.1075	22810.2	21861.8
890.7345	1508.911	22786.7	21840.05
890.8776	1510.7138	22716.05	21767.55
891.0206	1512.5159	22594.4	21642.55
891.1637	1514.3172	22499.45	21554.65
891.3067	1516.1178	22380.95	21434.25
891.4497	1517.9176	22410.9	21460.1
891.5927	1519.7166	22303.85	21357.45
891.7357	1521.515	22221.75	21266.9
891.8786	1523.3126	22162.2	21215.35
892.0216	1525.1094	22082.7	21135.95
892.1645	1526.9055	21964.95	21021.95
892.3074	1528.7008	21895.8	20953.85
892.4503	1530.4954	21802.95	20853.55
892.5932	1532.2893	21733.2	20790.85
892.7361	1534.0824	21624.6	20681.95
892.879	1535.8747	21642.6	20702.9
893.0218	1537.6663	21562.15	20623.5
893.1647	1539.4572	21475.2	20531.1
893.3075	1541.2473	21445.55	20506
893.4503	1543.0367	21376.65	20438.35
893.5931	1544.8253	21251.85	20308.2
893.7359	1546.6132	21256.55	20313.65
893.8787	1548.4003	21237	20284.95
894.0214	1550.1867	21162.55	20214.8
894.1642	1551.9723	21088.95	20147.45
894.3069	1553.7572	21153.55	20213.1
894.4496	1555.5414	21156.05	20217.75
894.5923	1557.3247	21126.4	20191.8
894.735	1559.1074	21142	20211.3
894.8777	1560.8893	21166.55	20235.9
895.0204	1562.6705	21144.7	20211.85
895.163	1564.4509	21192.75	20259.45
895.3056	1566.2305	21159.5	20233.3
895.4482	1568.0094	21270.65	20343.35
895.5908	1569.7876	21271.15	20342.05
895.7334	1571.565	21231	20299.2
895.876	1573.3417	21196.1	20265.3
896.0186	1575.1176	21141.75	20209.35
896.1611	1576.8928	21082.2	20155.15
896.3036	1578.6672	20946.3	20024.35
896.4461	1580.4409	20851.25	19933.4
896.5886	1582.2138	20736	19813
896.7311	1583.986	20635.65	19708.25
896.8736	1585.7575	20591.45	19662.65
897.0161	1587.5282	20528	19601.9
897.1585	1589.2981	20496.45	19574.75
897.3009	1591.0673	20397.4	19478.5
897.4433	1592.8358	20396.55	19473.15
897.5857	1594.6035	20427.95	19500.05
897.7281	1596.3704	20352.75	19421.35
897.8705	1598.1366	20302	19378
898.0128	1599.9021	20303.5	19379.2
898.1551	1601.6668	20269.4	19342.85
898.2975	1603.4308	20278.25	19350.1
898.4398	1605.194	20380.45	19448.4
898.5821	1606.9564	20399.75	19480.3
898.7243	1608.7182	20518.5	19605.85
898.8666	1610.4791	20595.9	19685.8
899.0088	1612.2394	20689.05	19783.05
899.1511	1613.9988	20803.8	19892.2
899.2933	1615.7576	20973.65	20059.15
899.4355	1617.5156	21123.6	20193.05
899.5776	1619.2728	21247.4	20319.75
899.7198	1621.0293	21305.8	20380.95
899.862	1622.785	21257.25	20336.9
900.0041	1624.54	21056.05	20137.5
900.1462	1626.2942	20882.5	19966.3
900.2883	1628.0477	20580.3	19660.55
900.4304	1629.8005	20368.5	19447.1
900.5725	1631.5525	20159.3	19243.8
900.7145	1633.3037	19946.7	19031.25
900.8566	1635.0542	19763.85	18850.05
900.9986	1636.804	19665.3	18749.15
901.1406	1638.553	19628.4	18653.85
901.2826	1640.3013	19495.7	18576.9
901.4245	1642.0488	19378.8	18461.7
901.5665	1643.7955	19387.2	18474.65
901.7085	1645.5416	19413.4	18501.9
901.8504	1647.2868	19444.9	18529.95
901.9923	1649.0313	19466.3	18547.35
902.1342	1650.7751	19564.05	18642.75
902.2761	1652.5181	19652.4	18737.9
902.4179	1654.2604	19723.45	18810.05
902.5598	1656.0019	19899	18986
902.7016	1657.7427	20134	19216.9
902.8434	1659.4828	20326.35	19405.15
902.9852	1661.222	20451.95	19533.45
903.127	1662.9606	20372.2	19454.25
903.2687	1664.6984	20200.2	19280.35
903.4105	1666.4354	19888	18965
903.5522	1668.1717	19461.7	18538.7
903.6939	1669.9072	18990.25	18065.2
903.8356	1671.642	18608.85	17683.45
903.9773	1673.3761	18334.1	17414.15
904.119	1675.1094	18013.75	17095.55
904.2606	1676.8419	17813.65	16895.5
904.4022	1678.5737	17620.9	16700.9
904.5439	1680.3048	17462.35	16541
904.6855	1682.0351	17349.95	16432
904.827	1683.7646	17213.35	16289.3
904.9686	1685.4934	17108.7	16190.25
905.1101	1687.2215	17041.7	16123.9
905.2517	1688.9488	16948.95	16033.85
905.3932	1690.6754	16804.15	15888.85
905.5347	1692.4012	16792.75	15873.8
905.6761	1694.1263	16742.8	15821.95
905.8176	1695.8506	16683.7	15765.8
905.9591	1697.5742	16594.8	15681.85
906.1005	1699.297	16536.85	15628.45
906.2419	1701.0191	16413.6	15504.3
906.3833	1702.7404	16367.35	15456.8
906.5246	1704.461	16292.95	15378.35
906.666	1706.1808	16208.2	15291.95
906.8073	1707.8999	16172.25	15261.95
906.9487	1709.6182	16097.65	15190
907.09	1711.3358	16057.6	15152.15
907.2313	1713.0527	16007.65	15105.05
907.3725	1714.7688	15944.25	15030.85
907.5138	1716.4841	15874.8	14963.4
907.655	1718.1987	15869.25	14950.05
907.7962	1719.9126	15791.2	14885.05
907.9374	1721.6257	15747.05	14841.35
908.0786	1723.338	15722.8	14818.05
908.2198	1725.0496	15622.45	14713.6
908.3609	1726.7605	15577.75	14666.55
908.502	1728.4706	15521.7	14610.75
908.6431	1730.18	15467.85	14559.85
908.7842	1731.8886	15393.9	14486.45
908.9253	1733.5964	15403.9	14476.3
909.0664	1735.3036	15352.95	14445.7
909.2074	1737.0099	15279.85	14371.8
909.3484	1738.7156	15246.1	14341.2
909.4894	1740.4204	15181.7	14270.1
909.6304	1742.1246	15166.35	14257.65
909.7714	1743.8279	15122.25	14215.9
909.9123	1745.5306	15090.8	14185
910.0532	1747.2325	15026.7	14121.25
910.1941	1748.9336	15011.8	14106.1
910.335	1750.634	14909.8	13998.65
910.4759	1752.3336	14890.35	13984.2
910.6168	1754.0325	14865.9	13962.55
910.7576	1755.7307	14809.2	13904.1
910.8984	1757.4281	14825.8	13916.5
911.0392	1759.1247	14796.25	13877.45
911.18	1760.8206	14780.7	13864.3
911.3208	1762.5158	14762.2	13846.2
911.4615	1764.2102	14646.5	13735.55
911.6022	1765.9039	14606.1	13702.45
911.7429	1767.5968	14622.2	13719.5
911.8836	1769.289	14543.4	13639.6
912.0243	1770.9804	14516.95	13610.3
912.1649	1772.6711	14497.1	13587.9
912.3056	1774.361	14455.6	13543.4
912.4462	1776.0502	14451.85	13543.15
912.5868	1777.7386	14410.35	13502.5
912.7274	1779.4263	14357.15	13448.55
912.8679	1781.1132	14317.45	13415.35
913.0084	1782.7994	14250.85	13350.25
913.149	1784.4849	14239.75	13337.5
913.2895	1786.1696	14238.2	13328.85
913.4299	1787.8535	14195.1	13292.25
913.5704	1789.5367	14169.75	13270.7
913.7108	1791.2192	14138.95	13238.25
913.8513	1792.9009	14079.95	13148.95
913.9917	1794.5818	14040.45	13131.2
914.132	1796.2621	13993.7	13087.65
914.2724	1797.9415	13974.6	13067.45
914.4128	1799.6202	13914.8	13007.85
914.5531	1801.2982	13896.05	12986.6
914.6934	1802.9755	13878.65	12969.1
914.8337	1804.6519	13850.2	12942.2
914.9739	1806.3277	13777.55	12873.85
915.1142	1808.0027	13733.75	12836.7
915.2544	1809.6769	13710	12810.45
915.3946	1811.3504	13693.05	12795.4
915.5348	1813.0231	13654.45	12755
915.675	1814.6951	13641.65	12740.05
915.8151	1816.3664	13647.8	12741.45
915.9553	1818.0369	13632.05	12724.1
916.0954	1819.7067	13571	12666.25
916.2355	1821.3757	13546.65	12640.5
916.3755	1823.044	13505.4	12596.35
916.5156	1824.7115	13482.7	12574.8
916.6556	1826.3783	13425.5	12517.9
916.7956	1828.0443	13392.3	12489.6
916.9356	1829.7096	13359	12452.3
917.0756	1831.3741	13335.35	12429.5
917.2155	1833.0379	13328.1	12428.9
917.3555	1834.701	13279.65	12377.65
917.4954	1836.3633	13215.4	12317.45
917.6353	1838.0248	13201.6	12301.25
917.7751	1839.6856	13182.05	12277.75
917.915	1841.3457	13160.9	12257.4
918.0548	1843.005	13148.9	12244.7
918.1946	1844.6636	13125.4	12221.7
918.3344	1846.3214	13070	12168.7
918.4742	1847.9785	13080.5	12175.6
918.6139	1849.6349	13032.25	12126.8
918.7537	1851.2904	13031	12113.05
918.8934	1852.9453	12974.45	12067.1
919.0331	1854.5994	12937.45	12029.25
919.1727	1856.2528	12973.2	12062
919.3124	1857.9054	12921.9	12017.9
919.452	1859.5572	12923.15	12018.4
919.5916	1861.2083	12868.2	11963.1
919.7312	1862.8587	12872.2	11966.75
919.8708	1864.5084	12855.4	11945.4
920.0103	1866.1572	12805.6	11899.05
920.1498	1867.8054	12751.75	11841.55
920.2893	1869.4528	12726.65	11819.85
920.4288	1871.0994	12704	11794.95
920.5683	1872.7453	12697.05	11787.95
920.7077	1874.3905	12615.55	11702.1
920.8471	1876.0349	12587.6	11679.6
920.9865	1877.6786	12605.65	11699.75
921.1259	1879.3215	12576.95	11673.1
921.2653	1880.9637	12506.3	11599.5
921.4046	1882.6051	12511.5	11607.45
921.5439	1884.2458	12486.05	11581.5
921.6832	1885.8858	12426	11522.45
921.8225	1887.525	12417.15	11512.45
921.9617	1889.1634	12379.05	11471.7
922.101	1890.8011	12326.8	11419.35
922.2402	1892.4381	12302.7	11398.3
922.3794	1894.0743	12294.8	11390.55
922.5185	1895.7098	12272.6	11368.45
922.6577	1897.3446	12213.35	11307
922.7968	1898.9786	12207.05	11297.75
922.9359	1900.6118	12183.4	11280.2
923.075	1902.2443	12130.05	11223.8
923.214	1903.8761	12115.7	11212.85
923.3531	1905.5071	12039.9	11134.75
923.4921	1907.1374	12016.75	11111.95
923.6311	1908.7669	11994.2	11093.25
923.77	1910.3957	11986.75	11083.15
923.909	1912.0237	11884	10982.3
924.0479	1913.651	11846.95	10942.4
924.1868	1915.2776	11836.3	10934.8
924.3257	1916.9034	11784.85	10883.2
924.4646	1918.5285	11747.55	10844.1
924.6034	1920.1528	11711.15	10809.6
924.7422	1921.7764	11725.7	10822.95
924.881	1923.3992	11637.9	10735
925.0198	1925.0213	11570.8	10667.55
925.1586	1926.6427	11524.65	10622.05
925.2973	1928.2633	11563	10590.85
925.436	1929.8832	11504.45	10600.4
925.5747	1931.5023	11468.7	10567.15
925.7134	1933.1207	11422.2	10518.95
925.852	1934.7383	11427.45	10524.7
925.9906	1936.3552	11365.6	10463.4
926.1292	1937.9714	11335.9	10435.15
926.2678	1939.5868	11286.3	10382.25
926.4064	1941.2015	11253.1	10349.05
926.5449	1942.8154	11210.25	10302
926.6834	1944.4286	11177.2	10274.45
926.8219	1946.041	11163.5	10238.3
926.9604	1947.6528	11074.9	10167.8
927.0988	1949.2637	11063.9	10161.95
927.2372	1950.8739	11018.15	10116.3
927.3756	1952.4834	10986.5	10085.95
927.514	1954.0921	10984.85	10082.85
927.6523	1955.7001	10935.9	10031.3
927.7907	1957.3074	10924.7	10029.1
927.929	1958.9139	10858.75	9961.45
928.0673	1960.5197	10831.65	9932.4
928.2055	1962.1247	10775.9	9877.25
928.3438	1963.729	10747.5	9850.65
928.482	1965.3325	10725.9	9805.3
928.6202	1966.9353	10663.8	9766.55
928.7584	1968.5374	10648.1	9749.65
928.8965	1970.1387	10605.65	9707.35
929.0346	1971.7393	10557.95	9659.45
929.1727	1973.3392	10542.9	9646.1
929.3108	1974.9383	10516.35	9622.25
929.4489	1976.5366	10430.9	9536.25
929.5869	1978.1342	10434.9	9540.6
929.7249	1979.7311	10429.85	9534.2
929.8629	1981.3273	10404.55	9509.65
930.0009	1982.9227	10350.25	9454.3
930.1388	1984.5173	10314.55	9423.7
930.2767	1986.1112	10289.15	9394.25
930.4146	1987.7044	10275.85	9381.3
930.5525	1989.2968	10204.05	9308.65
930.6904	1990.8885	10198.75	9303.25
930.8282	1992.4795	10200.75	9307.45
930.966	1994.0697	10141.8	9251.9
931.1038	1995.6592	10107.75	9215
931.2415	1997.2479	10110.8	9216.45
931.3793	1998.8359	10062.55	9169.85
931.517	2000.4232	10025.55	9137.2
931.6547	2002.0097	10009.9	9124.7
931.7923	2003.5955	9932.35	9045.4
931.93	2005.1805	9954.65	9064.4
932.0676	2006.7648	9916.85	9025.75
932.2052	2008.3484	9914.65	9024.85
932.3427	2009.9312	9872.55	8983.65
932.4803	2011.5133	9834.05	8948.05
932.6178	2013.0946	9796.3	8910.1
932.7553	2014.6752	9787.35	8900
932.8928	2016.2551	9767.75	8874.4
933.0302	2017.8342	9735.55	8846.4
933.1676	2019.4126	9710.4	8823.3
933.305	2020.9902	9666.7	8781.8
933.4424	2022.5672	9656.55	8770.65
933.5798	2024.1433	9630.75	8738.95
933.7171	2025.7188	9584.6	8700.6
933.8544	2027.2935	9585.3	8698.65
933.9917	2028.8674	9536.35	8650.6
934.129	2030.4406	9515.35	8632.9
934.2662	2032.0131	9449.75	8566.9
934.4034	2033.5849	9432.6	8545.85
934.5406	2035.1559	9427.55	8543.05
934.6778	2036.7261	9428.05	8539
934.8149	2038.2957	9381.9	8491.95
934.952	2039.8645	9370.75	8479.45
935.0891	2041.4325	9374.45	8481.6
935.2262	2042.9998	9317.5	8426.8
935.3632	2044.5664	9282.3	8393.4
935.5002	2046.1323	9244.1	8360.15
935.6372	2047.6974	9245.5	8359.95
935.7742	2049.2617	9207	8322.35
935.9111	2050.8254	9182.15	8290.25
936.048	2052.3883	9196.05	8306.9
936.1849	2053.9504	9173.75	8282.15
936.3218	2055.5118	9142.6	8251.8
936.4586	2057.0725	9095.1	8203.05
936.5955	2058.6325	9059.6	8171
936.7323	2060.1917	9059.6	8174.8
936.869	2061.7502	9053.05	8164.8
937.0058	2063.3079	9020.05	8135.35
937.1425	2064.8649	8991.85	8103.15
937.2792	2066.4212	8978.15	8089.4
937.4159	2067.9767	8923.1	8033.1
937.5525	2069.5315	8901.3	8013.6
937.6891	2071.0856	8870.1	7983
937.8257	2072.6389	8849.8	7962.5
937.9623	2074.1915	8787.45	7904
938.0989	2075.7433	8746.9	7859.75
938.2354	2077.2945	8738.65	7852.2
938.3719	2078.8448	8717.3	7827.1
938.5084	2080.3945	8672.5	7782.9
938.6448	2081.9434	8689.2	7799.6
938.7812	2083.4916	8651.2	7757.1
938.9176	2085.039	8643.2	7747.3
939.054	2086.5857	8613	7714.3
939.1903	2088.1317	8599.5	7701.5
939.3267	2089.677	8598.35	7698.9
939.463	2091.2215	8556	7656.35
939.5992	2092.7652	8522.95	7623.35
939.7355	2094.3083	8521.4	7623.75
939.8717	2095.8506	8475.15	7582.2
940.0079	2097.3921	8485.65	7594.8
940.1441	2098.933	8467.75	7575.8
940.2802	2100.4731	8469.5	7577.7
940.4163	2102.0124	8442.75	7543.55
940.5524	2103.5511	8394.5	7501.45
940.6885	2105.089	8393.85	7500.95
940.8245	2106.6261	8359.5	7464.05
940.9606	2108.1626	8340.65	7449.2
941.0965	2109.6983	8329	7407.95
941.2325	2111.2332	8300.3	7406.15
941.3684	2112.7675	8292.95	7397.85
941.5044	2114.301	8256.2	7359.95
941.6403	2115.8337	8249	7355.5
941.7761	2117.3657	8223.5	7330.7
941.912	2118.897	8201.85	7308.85
942.0478	2120.4276	8180.7	7282.2
942.1835	2121.9575	8138.85	7241.15
942.3193	2123.4866	8169.4	7273.75
942.455	2125.0149	8126.8	7229.8
942.5907	2126.5426	8090.5	7199.8
942.7264	2128.0695	8058.6	7166.6
942.8621	2129.5956	8049.95	7163.45
942.9977	2131.1211	8042	7150.3
943.1333	2132.6458	8003.3	7114.65
943.2689	2134.1698	8014.8	7120.05
943.4044	2135.693	7983.55	7083.75
943.54	2137.2155	7960.1	7062
943.6755	2138.7373	7955.2	7060.75
943.8109	2140.2584	7915.45	7026.55
943.9464	2141.7787	7917.1	7024.3
944.0818	2143.2983	7852.5	6968.55
944.2172	2144.8171	7807.55	6922.2
944.3526	2146.3353	7807.9	6917.95
944.4879	2147.8527	7779.45	6890.65
944.6232	2149.3693	7773.55	6880.35
944.7585	2150.8853	7763.3	6867.65
944.8938	2152.4005	7724.9	6826.4
945.029	2153.9149	7730.8	6834.35
945.1642	2155.4287	7788.45	6789.35
945.2994	2156.9417	7684.8	6790
945.4346	2158.454	7648.55	6755.6
945.5697	2159.9655	7632.85	6745.25
945.7048	2161.4764	7629.45	6738.1
945.8399	2162.9865	7593.7	6704.4
945.9749	2164.4958	7551.55	6661.1
946.1099	2166.0045	7540.5	6647.8
946.2449	2167.5124	7542.2	6651.25
946.3799	2169.0195	7519.6	6625.2
946.5148	2170.526	7504.5	6610.85
946.6498	2172.0317	7495.3	6601.45
946.7846	2173.5367	7459.85	6567.05
946.9195	2175.0409	7463.8	6574.1
947.0543	2176.5445	7447.2	6554.8
947.1891	2178.0473	7426.45	6531
947.3239	2179.5494	7390.3	6490.95
947.4587	2181.0507	7352.5	6461.1
947.5934	2182.5513	7338.65	6446
947.7281	2184.0512	7316.8	6422.6
947.8628	2185.5504	7322.5	6429.5
947.9974	2187.0488	7256.35	6366.05
948.132	2188.5465	7221.05	6332.35
948.2666	2190.0435	7209.05	6317
948.4012	2191.5397	7206.85	6312.5
948.5357	2193.0353	7191.7	6296.2
948.6702	2194.5301	7178.15	6280.4
948.8047	2196.0241	7155.95	6258.95
948.9392	2197.5175	7145.4	6246.45
949.0736	2199.0101	7106.8	6205.2
949.208	2200.502	7058.2	6162.8
949.3424	2201.9931	7054.55	6165.9
949.4767	2203.4835	7013.95	6127.95
949.611	2204.9733	6990.45	6087.25
949.7453	2206.4622	6998.1	6109
949.8796	2207.9505	6972.7	6082.8
950.0138	2209.438	6926.7	6038.95
950.148	2210.9248	6918.3	6030.75
950.2822	2212.4109	6892.9	5999.65
950.4164	2213.8962	6882.55	5983.1
950.5505	2215.3809	6857.6	5958.55
950.6846	2216.8648	6873.6	5973.4
950.8186	2218.3479	6835.7	5932
950.9527	2219.8304	6814.1	5910.9
951.0867	2221.3121	6776.1	5873.75
951.2207	2222.7931	6766.25	5867.95
951.3546	2224.2733	6754.2	5860.15
951.4886	2225.7529	6717.3	5824.55
951.6225	2227.2317	6684.7	5790.35
951.7563	2228.7098	6682.1	5793.85
951.8902	2230.1872	6633.35	5747.05
952.024	2231.6638	6640.85	5752.85
952.1578	2233.1397	6637.25	5742.85
952.2916	2234.6149	6617.5	5731.9
952.4253	2236.0894	6582.55	5692.8
952.559	2237.5632	6575	5681.7
952.6927	2239.0362	6531.95	5640.25
952.8263	2240.5085	6525.95	5632.8
952.9599	2241.9801	6499.55	5605.25
953.0935	2243.4509	6490.25	5592.85
953.2271	2244.921	6469.95	5573.2
953.3606	2246.3904	6435.75	5537.2
953.4941	2247.8591	6431	5532.9
953.6276	2249.3271	6409.4	5514.4
953.7611	2250.7943	6398.15	5501.8
953.8945	2252.2608	6366.45	5470.95
954.0279	2253.7266	6343.75	5450.6
954.1612	2255.1917	6329.8	5437.05
954.2946	2256.656	6323.9	5431.6
954.4279	2258.1197	6302.45	5411.8
954.5612	2259.5826	6297.6	5403.5
954.6944	2261.0447	6275.05	5382.1
954.8276	2262.5062	6234.3	5335.7
954.9608	2263.9669	6239.6	5341.65
955.094	2265.4269	6251.25	5357.1
955.2271	2266.8862	6215.1	5322.75
955.3602	2268.3448	6202.3	5312.5
955.4933	2269.8026	6187.25	5296.8
955.6264	2271.2598	6167.7	5276.25
955.7594	2272.7162	6134	5242.3
955.8924	2274.1719	6138.6	5242.3
956.0253	2275.6268	6105.2	5209.55
956.1583	2277.0811	6101.95	5205.35
956.2912	2278.5346	6078.3	5186.2
956.4241	2279.9874	6070.2	5180.45
956.5569	2281.4395	6050.1	5160.1
956.6897	2282.8908	6046.6	5151.8
956.8225	2284.3414	6058.7	5163.35
956.9553	2285.7914	6014.1	5123.2
957.088	2287.2406	6000.75	5104.85
957.2207	2288.689	6004.15	5107.2
957.3534	2290.1368	5958.7	5059.9
957.486	2291.5838	5964.2	5061
957.6186	2293.0302	5946.9	5045.7
957.7512	2294.4758	5926.75	5027.65
957.8838	2295.9206	5898.9	5002.85
958.0163	2297.3648	5867.2	4973.15
958.1488	2298.8082	5855.35	4961.6
958.2813	2300.251	5839.45	4947.45
958.4137	2301.693	5829.85	4929.8
958.5461	2303.1343	5821.15	4926.4
958.6785	2304.5748	5809.15	4915
958.8108	2306.0147	5758.9	4866.35
958.9432	2307.4538	5781.6	4891.1
959.0754	2308.8922	5771.7	4883.1
959.2077	2310.3299	5737.4	4849.4
959.3399	2311.7669	5732	4842.35
959.4721	2313.2031	5713.35	4820.35
959.6043	2314.6387	5683.4	4789.55
959.7365	2316.0735	5673	4780.7
959.8686	2317.5076	5672.15	4777.6
960.0006	2318.941	5646.2	4749.75
960.1327	2320.3737	5647.65	4749.05
960.2647	2321.8056	5634.05	4736.95
960.3967	2323.2369	5600.65	4706.6
960.5287	2324.6674	5597.05	4702.95
960.6606	2326.0972	5576.2	4679.85
960.7925	2327.5263	5558.5	4664.9
960.9244	2328.9547	5532.2	4636.1
961.0562	2330.3823	5526.55	4629.05
961.1881	2331.8092	5560.55	4658.55
961.3198	2333.2355	5496.5	4600.75
961.4516	2334.661	5469.9	4573.75
961.5833	2336.0858	5477.5	4580.55
961.715	2337.5098	5468.15	4573.15
961.8467	2338.9332	5449.9	4554.9
961.9783	2340.3558	5425.75	4528.4
962.1099	2341.7778	5412	4521.05
962.2415	2343.199	5390.15	4497.65
962.373	2344.6195	5399.5	4506.55
962.5045	2346.0393	5387.85	4496.05
962.636	2347.4583	5383.85	4490.1
962.7675	2348.8767	5363.25	4465.75
962.8989	2350.2943	5346.6	4447.85
963.0303	2351.7113	5336.7	4437.5
963.1617	2353.1275	5306.35	4407.15
963.293	2354.543	5305.65	4398.1
963.4243	2355.9578	5288.35	4391.8
963.5556	2357.3718	5251.1	4358.6
963.6868	2358.7852	5249.6	4352.95
963.818	2360.1978	5231.2	4339.1
963.9492	2361.6098	5209.2	4316.1
964.0803	2363.021	5191.95	4291.55
964.2114	2364.4315	5193.7	4297.25
964.3425	2365.8413	5170.4	4275.25
964.4736	2367.2504	5158.5	4265.75
964.6046	2368.6587	5137.15	4245.65
964.7356	2370.0664	5107.6	4215.3
964.8666	2371.4733	5095.35	4200.8
964.9975	2372.8795	5100.85	4207.6
965.1284	2374.285	5082.5	4185.4
965.2593	2375.6899	5051.65	4160.1
965.3901	2377.0939	5033.65	4138.8
965.5209	2378.4973	5011.65	4118.6
965.6517	2379.9	4984	4091.6
965.7825	2381.3019	4984.6	4091.7
965.9132	2382.7032	4964.85	4073
966.0439	2384.1037	4970.5	4080.7
966.1745	2385.5035	4937.3	4047.35
966.3051	2386.9027	4920.95	4032.9
966.4357	2388.3011	4926.05	4032.6
966.5663	2389.6987	4905.7	4015.85
966.6968	2391.0957	4901.25	4009.15
966.8273	2392.492	4870.75	3981.2
966.9578	2393.8876	4855.5	3960.4
967.0882	2395.2824	4841.75	3948.8
967.2186	2396.6765	4821.95	3928.25
967.349	2398.07	4799.2	3905.95
967.4793	2399.4627	4794.2	3896.85
967.6097	2400.8547	4781.8	3889.05
967.7399	2402.246	4786	3884.75
967.8702	2403.6366	4766.55	3872.4
968.0004	2405.0265	4723.15	3831.15
968.1306	2406.4156	4713.8	3817.65
968.2607	2407.8041	4686.3	3790.7
968.3909	2409.1918	4675.3	3777.1
968.521	2410.5789	4669.8	3774.6
968.651	2411.9652	4652.35	3756.5
968.781	2413.3508	4649.75	3754.5
968.911	2414.7358	4636.4	3742.4
969.041	2416.12	4605.4	3711.15
969.1709	2417.5035	4601.55	3710.1
969.3008	2418.8863	4592.6	3699.85
969.4307	2420.2684	4593.85	3699.25
969.5606	2421.6497	4561.55	3666.5
969.6904	2423.0304	4526.65	3632.45
969.8201	2424.4104	4533.65	3640.25
969.9499	2425.7896	4513.7	3618.2
970.0796	2427.1682	4505.8	3612.75
970.2093	2428.546	4517.55	3620.65
970.3389	2429.9232	4487.75	3592.6
970.4685	2431.2996	4478.85	3582.3
970.5981	2432.6753	4474.55	3579.7
970.7277	2434.0503	4447.55	3552.7
970.8572	2435.4246	4429.7	3536.65
970.9867	2436.7982	4436.15	3541.05
971.1161	2438.1711	4408.45	3513.95
971.2456	2439.5433	4395.85	3501.15
971.375	2440.9148	4375.55	3475.1
971.5043	2442.2856	4378.9	3487.75
971.6336	2443.6557	4353.35	3460.05
971.7629	2445.025	4338.45	3443.3
971.8922	2446.3937	4342.2	3446.55
972.0214	2447.7617	4327.65	3430.65
972.1506	2449.1289	4310.95	3416.35
972.2798	2450.4955	4296.05	3400.95
972.4089	2451.8613	4310.2	3418.8
972.538	2453.2265	4292.3	3399.45
972.6671	2454.5909	4278.1	3381.8
972.7961	2455.9546	4244.3	3351.5
972.9251	2457.3177	4246.05	3350.5
973.0541	2458.68	4241.4	3346.75
973.1831	2460.0416	4236.45	3340.2
973.312	2461.4025	4227.8	3333.6
973.4408	2462.7627	4221.65	3318.2
973.5697	2464.1222	4206.2	3315
973.6985	2465.4811	4196.55	3303.8
973.8273	2466.8392	4191.55	3300.65
973.956	2468.1966	4179.25	3283.7
974.0847	2469.5533	4172.9	3275.75
974.2134	2470.9093	4163.8	3270.9
974.3421	2472.2645	4154.75	3260.25
974.4707	2473.6191	4145.1	3252.8
974.5993	2474.973	4114.7	3220.45
974.7278	2476.3262	4099.35	3204.85
974.8563	2477.6787	4111.1	3217.95
974.9848	2479.0305	4079.95	3186.95
975.1132	2480.3816	4069.15	3174.7
975.2417	2481.7319	4058.05	3164.5
975.37	2483.0816	4047.7	3153.85
975.4984	2484.4306	4029.85	3137.2
975.6267	2485.7789	4021.95	3131.7
975.755	2487.1264	4011.15	3118.45
975.8833	2488.4733	3995.9	3104.95
976.0115	2489.8195	3984.4	3084.6
976.1397	2491.165	3973	3075.75
976.2678	2492.5097	3971.7	3080.4
976.3959	2493.8538	3948.4	3056.2
976.524	2495.1972	3939.3	3045.5
976.6521	2496.5398	3924.15	3028.1
976.7801	2497.8818	3921.9	3027.2
976.9081	2499.2231	3900.25	3004.45
977.036	2500.5637	3887.5	2991.85
977.164	2501.9035	3871.65	2976.8
977.2918	2503.2427	3879.2	2980.6
977.4197	2504.5812	3868.9	2973.7
977.5475	2505.919	3851	2953.9
977.6753	2507.256	3853.85	2958.4
977.8031	2508.5924	3822.8	2930.75
977.9308	2509.9281	3814.65	2914.35
978.0585	2511.2631	3811.9	2919.8
978.1861	2512.5974	3802.4	2910.5
978.3137	2513.9309	3790.95	2897.45
978.4413	2515.2638	3798.5	2881
978.5689	2516.596	3766.8	2873.9
978.6964	2517.9275	3749.7	2853.8
978.8239	2519.2583	3751.45	2855.7
978.9513	2520.5884	3734.6	2838.85
979.0788	2521.9178	3722.3	2828.75
979.2062	2523.2465	3716.35	2824.25
979.3335	2524.5745	3709.3	2818.9
979.4608	2525.9018	3683.5	2790.15
979.5881	2527.2284	3685.35	2791.35
979.7154	2528.5543	3672.55	2780.7
979.8426	2529.8796	3671.65	2778.85
979.9698	2531.2041	3688.25	2794.7
980.0969	2532.5279	3656.5	2765.05
980.224	2533.851	3644.05	2749.1
980.3511	2535.1735	3642.9	2749.5
980.4781	2536.4952	3638.75	2742.4
980.6052	2537.8163	3618.95	2723.05
980.7321	2539.1366	3606.8	2712.95
980.8591	2540.4562	3612.7	2716.85
980.986	2541.7752	3601.6	2708.15
981.1129	2543.0935	3600.1	2704.35
981.2397	2544.411	3596.7	2701.65
981.3665	2545.7279	3570.6	2676.8
981.4933	2547.0441	3577.9	2685.75
981.62	2548.3596	3578.4	2681.35
981.7467	2549.6744	3570.8	2674.85
981.8734	2550.9885	3553.8	2652.65
982.0001	2552.3019	3563.4	2669.5
982.1267	2553.6146	3540.4	2646.05
982.2532	2554.9266	3532	2637.85
982.3798	2556.2379	3526.9	2632.4
982.5063	2557.5485	3498.55	2607.05
982.6327	2558.8585	3501.8	2600.15
982.7592	2560.1677	3506.65	2607.75
982.8856	2561.4762	3509.85	2616.1
983.0119	2562.7841	3494.25	2594.75
983.1383	2564.0913	3481.4	2588.1
983.2646	2565.3977	3464.4	2572.15
983.3908	2566.7035	3466.65	2572.7
983.517	2568.0086	3463.15	2567.35
983.6432	2569.313	3459.9	2563
983.7694	2570.6167	3452.85	2554.75
983.8955	2571.9197	3433.05	2537.9
984.0216	2573.222	3439.65	2539.85
984.1476	2574.5236	3434.45	2539.5
984.2737	2575.8246	3415.95	2519.75
984.3996	2577.1248	3409.6	2512.85
984.5256	2578.4244	3397.45	2503.6
984.6515	2579.7232	3405.75	2511.3
984.7774	2581.0214	3432.75	2508.25
984.9032	2582.3189	3391.9	2498.8
985.029	2583.6157	3401.9	2501.95
985.1548	2584.9118	3393.6	2497.3
985.2806	2586.2072	3367.5	2471.85
985.4063	2587.5019	3373	2478.65
985.5319	2588.7959	3371.75	2475.85
985.6576	2590.0893	3374.2	2478.4
985.7832	2591.3819	3361.4	2468.2
985.9087	2592.6739	3344.6	2450.65
986.0343	2593.9652	3339.6	2444.7
986.1597	2595.2557	3331.2	2437.4
986.2852	2596.5456	3340.5	2442.5
986.4106	2597.8348	3313.5	2419.15
986.536	2599.1234	3308.3	2413.75
986.6614	2600.4112	3299.05	2407.15
986.7867	2601.6983	3297.85	2401.05
986.912	2602.9848	3274.85	2379.05
987.0372	2604.2705	3280.1	2377.9
987.1624	2605.5556	3269.3	2373.15
987.2876	2606.84	3259.2	2367.5
987.4128	2608.1237	3249.25	2353.95
987.5379	2609.4067	3247.35	2352.6
987.6629	2610.689	3245.05	2342.05
987.788	2611.9707	3230.7	2331
987.913	2613.2516	3223.15	2325.4
988.0379	2614.5319	3205.25	2313.35
988.1629	2615.8115	3193.95	2300.4
988.2878	2617.0903	3178	2282.8
988.4126	2618.3685	3171.05	2275.75
988.5375	2619.6461	3170.85	2277.65
988.6622	2620.9229	3157.5	2265.85
988.787	2622.199	3140.9	2244.65
988.9117	2623.4745	3140.15	2248.6
989.0364	2624.7493	3137.65	2244.95
989.161	2626.0234	3120.75	2228.5
989.2857	2627.2968	3109.1	2215.15
989.4102	2628.5695	3112.6	2215.8
989.5348	2629.8415	3101.35	2209.6
989.6593	2631.1128	3095.85	2199.4
989.7837	2632.3835	3078.7	2185.15
989.9082	2633.6535	3074.4	2182.75
990.0326	2634.9228	3060.3	2166.35
990.1569	2636.1914	3044.2	2149.95
990.2812	2637.4593	3044.3	2149.65
990.4055	2638.7265	3046.95	2153.1
990.5298	2639.9931	3039.4	2144.9
990.654	2641.259	3032.95	2139
990.7782	2642.5242	3023.45	2129.6
990.9023	2643.7887	3019.75	2127.95
991.0264	2645.0525	3009.2	2114.9
991.1505	2646.3156	3007.1	2098.35
991.2745	2647.5781	3000.05	2108.6
991.3985	2648.8398	2987.25	2096.5
991.5225	2650.1009	2998.8	2082.75
991.6464	2651.3613	2973.95	2078.5
991.7703	2652.6211	2963.5	2070.8
991.8942	2653.8801	2965.3	2071.75
992.018	2655.1385	2954.35	2058.6
992.1418	2656.3961	2941.65	2046.85
992.2655	2657.6531	2938	2044.65
992.3892	2658.9094	2945.4	2052.1
992.5129	2660.1651	2931.7	2041.05
992.6366	2661.42	2933.55	2039.15
992.7602	2662.6743	2929.65	2038.75
992.8837	2663.9279	2928.7	2036.1
993.0073	2665.1808	2910.8	2017.2
993.1307	2666.433	2908.8	2017.25
993.2542	2667.6846	2902.55	2009.3
993.3776	2668.9354	2913.7	2017.4
993.501	2670.1856	2900.5	2006.65
993.6244	2671.4351	2890	1997.7
993.7477	2672.6839	2903.4	2010.1
993.8709	2673.9321	2883.65	1991
993.9942	2675.1795	2885.75	1992.2
994.1174	2676.4263	2866.55	1973.5
994.2405	2677.6724	2861.9	1970.4
994.3637	2678.9179	2861.55	1967.25
994.4868	2680.1626	2869.3	1978.3
994.6098	2681.4067	2853.25	1961.15
994.7328	2682.6501	2851.35	1957.8
994.8558	2683.8928	2847.6	1956
994.9788	2685.1348	2832.05	1941.55
995.1017	2686.3761	2810.3	1919.1
995.2245	2687.6168	2827.6	1933.05
995.3474	2688.8568	2795.45	1904.4
995.4702	2690.0961	2790.3	1899.8
995.5929	2691.3348	2789.45	1896.5
995.7156	2692.5727	2782.35	1889.7
995.8383	2693.81	2783.95	1891.2
995.961	2695.0466	2772.8	1882
996.0836	2696.2826	2771.55	1877.9
996.2062	2697.5178	2759.55	1865.45
996.3287	2698.7524	2748.8	1856.4
996.4512	2699.9863	2757.7	1863.35
996.5737	2701.2195	2760.9	1870.15
996.6961	2702.452	2751.7	1860.9
996.8185	2703.6839	2734.45	1841.4
996.9408	2704.9151	2737.55	1846.25
997.0631	2706.1456	2726.3	1833.85
997.1854	2707.3755	2733.25	1841.65
997.3077	2708.6046	2735.2	1842.15
997.4299	2709.8331	2739	1846.15
997.552	2711.0609	2736.75	1842.5
997.6742	2712.2881	2731.05	1838.7
997.7963	2713.5145	2743	1847.2
997.9183	2714.7403	2739.55	1847.15
998.0403	2715.9654	2731.9	1840.55
998.1623	2717.1899	2750.9	1846.2
998.2842	2718.4136	2749.2	1857.95
998.4062	2719.6367	2745.35	1852.35
998.528	2720.8591	2753.25	1858.75
998.6498	2722.0809	2753.05	1860.45
998.7716	2723.3019	2758.1	1864.2
998.8934	2724.5223	2740.25	1849.65
999.0151	2725.7421	2736.15	1841.95
999.1368	2726.9611	2748.15	1854.25
999.2584	2728.1795	2735	1837.75
999.38	2729.3972	2721.7	1829.05
999.5016	2730.6142	2717.75	1819.75
999.6231	2731.8306	2693.95	1801.35
999.7446	2733.0462	2689.3	1796.35
999.8661	2734.2612	2668	1772.6
999.9875	2735.4756	2636.75	1743.85
1000.1089	2736.6892	2625.35	1734
1000.2302	2737.9022	2611.6	1722.65
1000.3515	2739.1145	2588.8	1698.7
1000.4728	2740.3262	2589.4	1690.9
1000.594	2741.5372	2566.9	1675.1
1000.7152	2742.7475	2536.9	1647.25
1000.8363	2743.9571	2540.8	1648.1
1000.9575	2745.1661	2525.25	1629.05
1001.0785	2746.3744	2515.95	1622.5
1001.1996	2747.582	2509.85	1618.85
1001.3206	2748.7889	2490.4	1597.35
1001.4415	2749.9952	2481.1	1593.05
1001.5625	2751.2008	2475.5	1586.95
1001.6833	2752.4057	2478.75	1587.8
1001.8042	2753.61	2458.1	1566.9
1001.925	2754.8136	2456.15	1564.7
1002.0458	2756.0165	2446.85	1555.15
1002.1665	2757.2188	2447.65	1558.8
1002.2872	2758.4204	2436.6	1546.05
1002.4078	2759.6213	2433.7	1539.7
1002.5285	2760.8215	2430.9	1536
1002.649	2762.0211	2425.3	1534.15
1002.7696	2763.22	2424.05	1530.75
1002.8901	2764.4182	2415.2	1525.55
1003.0106	2765.6158	2407.8	1516.55
1003.131	2766.8127	2401.4	1510.4
1003.2514	2768.009	2391.65	1502.8
1003.3717	2769.2045	2385.85	1495.4
1003.492	2770.3994	2388.95	1496.9
1003.6123	2771.5936	2375.45	1483
1003.7325	2772.7872	2373.2	1483.9
1003.8527	2773.9801	2367.8	1477.45
1003.9729	2775.1723	2363.75	1456.25
1004.093	2776.3639	2351.1	1462.6
1004.2131	2777.5548	2338.75	1446.2
1004.3331	2778.745	2333	1444.3
1004.4531	2779.9346	2330.7	1441
1004.5731	2781.1235	2340.5	1450.8
1004.693	2782.3117	2329.5	1441.4
1004.8129	2783.4992	2332.45	1443.15
1004.9328	2784.6861	2323	1434.35
1005.0526	2785.8723	2336.8	1448.2
1005.1723	2787.0579	2327.4	1438.2
1005.2921	2788.2428	2325.45	1436.9
1005.4118	2789.427	2319.65	1430.55
1005.5314	2790.6106	2334.85	1446.25
1005.651	2791.7935	2336.15	1447
1005.7706	2792.9757	2338.35	1449.3
1005.8902	2794.1573	2336.7	1445.75
1006.0097	2795.3382	2343	1455.15
1006.1291	2796.5184	2342.25	1453.7
1006.2485	2797.698	2359.85	1468.7
1006.3679	2798.8769	2354.7	1465.25
1006.4873	2800.0551	2370.55	1480.3
1006.6066	2801.2327	2381.4	1488.25
1006.7258	2802.4096	2381.8	1495.25
1006.8451	2803.5859	2393.65	1506.1
1006.9642	2804.7615	2406.25	1514.2
1007.0834	2805.9364	2420.75	1531.75
1007.2025	2807.1106	2424.25	1534.4
1007.3216	2808.2842	2442.25	1554.05
1007.4406	2809.4572	2470.5	1581.2
1007.5596	2810.6294	2498.65	1609.45
1007.6785	2811.801	2525.35	1639.85
1007.7975	2812.972	2550.8	1665.35
1007.9163	2814.1423	2581.7	1692.25
1008.0352	2815.3119	2614.05	1725.05
1008.154	2816.4808	2631.15	1742.05
1008.2727	2817.6491	2664.25	1773.9
1008.3914	2818.8167	2701.7	1812.9
1008.5101	2819.9837	2751.35	1857.45
1008.6288	2821.15	2786.55	1899.8
1008.7474	2822.3157	2824.4	1940
1008.8659	2823.4807	2853.75	1966.15
1008.9844	2824.645	2905.8	2015.5
1009.1029	2825.8086	2926.05	2038.25
1009.2214	2826.9716	2970.25	2081.15
1009.3398	2828.134	2992.5	2104.25
1009.4581	2829.2957	3036.25	2148
1009.5764	2830.4567	3043.5	2156.7
1009.6947	2831.617	3062.75	2174.6
1009.813	2832.7767	3075.4	2188.9
1009.9312	2833.9358	3061.05	2171.95
1010.0493	2835.0941	3050.6	2161.7
1010.1675	2836.2519	3049.95	2161.45
1010.2855	2837.4089	3027.15	2138.35
1010.4036	2838.5653	3021.95	2135
1010.5216	2839.7211	3020.15	2132.75
1010.6396	2840.8761	3017.9	2131.2
1010.7575	2842.0306	3022.9	2136.55
1010.8754	2843.1843	3038.45	2149.85
1010.9932	2844.3374	3067.7	2178.8
1011.111	2845.4899	3105.65	2216.35
1011.2288	2846.6417	3162	2274.3
1011.3465	2847.7928	3203.25	2315.9
1011.4642	2848.9433	3276.1	2388.7
1011.5818	2850.0931	3328.45	2443.65
1011.6995	2851.2422	3371.7	2482.35
1011.817	2852.3907	3429.7	2540.2
1011.9345	2853.5385	3481.5	2594.95
1012.052	2854.6857	3530.45	2634.75
1012.1695	2855.8323	3547.55	2659.55
1012.2869	2856.9781	3592.7	2706
1012.4042	2858.1233	3622.2	2734.25
1012.5216	2859.2679	3654.35	2767.4
1012.6389	2860.4118	3681.95	2794
1012.7561	2861.555	3722.35	2827.9
1012.8733	2862.6976	3753.3	2865.1
1012.9905	2863.8395	3766.1	2878.75
1013.1076	2864.9808	3787	2900.25
1013.2247	2866.1214	3789.55	2903.7
1013.3417	2867.2614	3813.9	2926.55
1013.4587	2868.4007	3806.4	2919.8
1013.5757	2869.5393	3817.45	2930.75
1013.6926	2870.6773	3822.35	2931.1
1013.8095	2871.8146	3827.35	2934.85
1013.9263	2872.9513	3828.85	2940.75
1014.0431	2874.0874	3813.55	2927.25
1014.1599	2875.2227	3804.2	2917.8
1014.2766	2876.3574	3804.2	2918.95
1014.3933	2877.4915	3761.4	2874.3
1014.51	2878.6249	3756.8	2869.35
1014.6266	2879.7577	3714.15	2826.55
1014.7431	2880.8898	3711.35	2811.9
1014.8596	2882.0212	3686.85	2800.45
1014.9761	2883.152	3678.6	2791.8
1015.0925	2884.2821	3655.5	2770.15
1015.2089	2885.4116	3651.2	2766.3
1015.3253	2886.5405	3646.2	2759
1015.4416	2887.6686	3659.05	2770.9
1015.5579	2888.7962	3649.7	2764.3
1015.6741	2889.923	3652.55	2770.6
1015.7903	2891.0493	3662.7	2779.45
1015.9065	2892.1748	3651.9	2765.75
1016.0226	2893.2997	3664.8	2777.85
1016.1387	2894.424	3676.35	2789.7
1016.2547	2895.5476	3693.35	2806.6
1016.3707	2896.6706	3696.95	2812.05
1016.4866	2897.7929	3698.2	2811.1
1016.6025	2898.9145	3744.85	2858.85
1016.7184	2900.0355	3759.45	2871.8
1016.8342	2901.1559	3776.4	2890.4
1016.95	2902.2756	3792.6	2907.1
1017.0658	2903.3946	3815.25	2930.05
1017.1815	2904.513	3845.85	2955.4
1017.2971	2905.6308	3864.25	2977.1
1017.4127	2906.7479	3880.5	2992.4
1017.5283	2907.8643	3903.75	3016.15
1017.6439	2908.9801	3907.35	3020.8
1017.7594	2910.0953	3901.4	3016.2
1017.8748	2911.2098	3897.45	3008.3
1017.9902	2912.3236	3890.8	2997.5
1018.1056	2913.4368	3878.3	2989.65
1018.2209	2914.5494	3863.4	2977.75
1018.3362	2915.6613	3819.5	2927.8
1018.4515	2916.7725	3807.15	2919.75
1018.5667	2917.8831	3779.7	2892.8
1018.6819	2918.9931	3762.9	2874.45
1018.797	2920.1024	3734.85	2845.55
1018.9121	2921.211	3711.7	2827.4
1019.0271	2922.319	3696.9	2810.65
1019.1421	2923.4264	3675	2790.15
1019.2571	2924.5331	3653.85	2769.45
1019.372	2925.6391	3636.5	2752.6
1019.4869	2926.7445	3635.2	2749.75
1019.6017	2927.8493	3636.2	2749.75
1019.7165	2928.9534	3640.2	2755.25
1019.8313	2930.0569	3623.4	2733.3
1019.946	2931.1597	3633.65	2747.25
1020.0606	2932.2619	3615.05	2730.6
1020.1753	2933.3634	3612.8	2729.85
1020.2899	2934.4643	3624.95	2734.8
1020.4044	2935.5645	3602.25	2710.75
1020.5189	2936.6641	3577.2	2687.55
1020.6334	2937.763	3545.5	2660.95
1020.7478	2938.8613	3504.7	2618.9
1020.8622	2939.959	3467.7	2576.6
1020.9765	2941.056	3401.8	2517.6
1021.0908	2942.1523	3339.55	2454
1021.2051	2943.248	3278.3	2392.95
1021.3193	2944.3431	3205.8	2320.3
1021.4334	2945.4375	3118.85	2231.05
1021.5476	2946.5313	3041.85	2158.1
1021.6617	2947.6244	2960.3	2075.2
1021.7757	2948.7169	2880.2	1996.6
1021.8897	2949.8087	2797.9	1911.9
1022.0037	2950.8999	2723.25	1838.15
1022.1176	2951.9904	2660.3	1776.4
1022.2315	2953.0803	2591.65	1704.1
1022.3453	2954.1696	2543.6	1658.9
1022.4591	2955.2582	2491.35	1608.7
1022.5728	2956.3462	2464.55	1578.7
1022.6865	2957.4335	2415.75	1531.1
1022.8002	2958.5202	2392.75	1505.7
1022.9138	2959.6062	2374.35	1489.7
1023.0274	2960.6916	2357.9	1472.85
1023.141	2961.7764	2327.4	1441.85
1023.2545	2962.8605	2312.35	1426.9
1023.3679	2963.9439	2305.7	1423.4
1023.4813	2965.0267	2295.85	1411.35
1023.5947	2966.1089	2306.6	1399.6
1023.708	2967.1905	2282.65	1398.6
1023.8213	2968.2714	2262.4	1377.85
1023.9346	2969.3516	2264.15	1379.3
1024.0478	2970.4312	2279.85	1387.8
1024.1609	2971.5102	2264.2	1380.25
1024.274	2972.5885	2268.3	1385.85
1024.3871	2973.6662	2269.75	1379.15
1024.5002	2974.7432	2267.6	1383.55
1024.6132	2975.8196	2254.9	1371.6
1024.7261	2976.8954	2246.85	1363.95
1024.839	2977.9705	2234.85	1351.2
1024.9519	2979.045	2227.4	1342.9
1025.0647	2980.1188	2199.5	1314.75
1025.1775	2981.192	2195.95	1313.05
1025.2902	2982.2645	2170.75	1286.05
1025.4029	2983.3364	2152.15	1268.6
1025.5156	2984.4077	2119.05	1234.6
1025.6282	2985.4783	2116.8	1228.3
1025.7407	2986.5483	2077.35	1194.3
1025.8532	2987.6177	2053.45	1170.8
1025.9657	2988.6864	2029.65	1144.55
1026.0782	2989.7545	2000.65	1114.7
1026.1906	2990.8219	1967.2	1082.95
1026.3029	2991.8887	1943.8	1057.35
1026.4152	2992.9548	1918.55	1034
1026.5275	2994.0204	1889.4	1007.15
1026.6397	2995.0852	1860.1	975.55
1026.7519	2996.1495	1848.45	963.7
1026.864	2997.2131	1815.2	932.55
1026.9761	2998.276	1802.4	920
1027.0882	2999.3383	1789.75	904.35
1027.2002	3000.4	1763.2	878.45
1027.3122	3001.4611	1752.8	867.65
1027.4241	3002.5215	1739.1	854.4
1027.536	3003.5812	1720.85	838.55
1027.6478	3004.6404	1706.45	821.95
1027.7596	3005.6989	1701.95	816.4
1027.8714	3006.7567	1689.95	807.25
1027.9831	3007.8139	1705.5	807.35
1028.0947	3008.8705	1676.55	793.1
1028.2064	3009.9264	1685.4	784.1
1028.3179	3010.9818	1671.9	786.1
1028.4295	3012.0364	1665.55	781.4
1028.541	3013.0905	1646.25	760.6
1028.6524	3014.1439	1643.25	760.5
1028.7638	3015.1966	1637.85	755.25
1028.8752	3016.2487	1647.85	761.45
1028.9865	3017.3002	1635.7	746.7
1029.0978	3018.3511	1638.8	757.25
1029.209	3019.4013	1632.4	749.55
1029.3202	3020.4509	1621.1	737.75
1029.4314	3021.4998	1629.3	746.05
1029.5425	3022.5481	1619.65	737.1
1029.6535	3023.5958	1617.1	733.6
1029.7645	3024.6428	1624.2	741.7
1029.8755	3025.6892	1622.7	737.6
1029.9864	3026.735	1616.75	733.2
1030.0973	3027.7802	1613.75	727.7
1030.2082	3028.8247	1612.55	730.2
1030.319	3029.8685	1619.3	734.1
1030.4297	3030.9118	1617.8	732.95
1030.5404	3031.9544	1617.25	733.2
1030.6511	3032.9963	1615.3	733.1
1030.7617	3034.0376	1618.15	736
1030.8723	3035.0783	1624	737.05
1030.9829	3036.1184	1625.1	738.9
1031.0934	3037.1578	1620.25	737.9
1031.2038	3038.1966	1618.3	732.9
1031.3142	3039.2348	1620.7	738.75
1031.4246	3040.2723	1634	740.9
1031.5349	3041.3092	1620.55	739.95
1031.6452	3042.3455	1608.8	725.9
1031.7554	3043.3811	1612.25	729.1
1031.8656	3044.4161	1607.3	722.65
1031.9758	3045.4505	1597.75	715.75
1032.0859	3046.4842	1599.2	715.85
1032.1959	3047.5173	1589.2	707.4
1032.3059	3048.5498	1587	704.6
1032.4159	3049.5816	1586.05	702.6
1032.5258	3050.6128	1581.25	695.8
1032.6357	3051.6434	1572.7	687.55
1032.7455	3052.6734	1563.65	679.3
1032.8553	3053.7027	1562.4	681.75
1032.9651	3054.7314	1554.5	674.55
1033.0748	3055.7594	1545.45	662.45
1033.1845	3056.7868	1551.85	667.7
1033.2941	3057.8136	1537.75	655.75
1033.4037	3058.8398	1532.05	650.8
1033.5132	3059.8653	1535.05	651.9
1033.6227	3060.8902	1525.4	641.25
1033.7321	3061.9145	1519.7	636.05
1033.8415	3062.9381	1506.2	623.35
1033.9509	3063.9612	1517.55	617.85
1034.0602	3064.9835	1509.85	628.9
1034.1694	3066.0053	1497.75	612.85
1034.2787	3067.0264	1500.4	619.25
1034.3878	3068.0469	1498.65	614.8
1034.497	3069.0668	1486.5	602.55
1034.6061	3070.086	1474.6	592.6
1034.7151	3071.1046	1469.05	586.6
1034.8241	3072.1226	1464.95	580
1034.9331	3073.1399	1455.65	573.05
1035.042	3074.1567	1443.2	560.85
1035.1508	3075.1727	1447.4	564.2
1035.2597	3076.1882	1435.95	554
1035.3684	3077.203	1422.25	539.4
1035.4772	3078.2173	1419.75	536.35
1035.5859	3079.2308	1404.85	519.55
1035.6945	3080.2438	1405.75	522.5
1035.8031	3081.2561	1391	507.8
1035.9117	3082.2678	1395.75	514.75
1036.0202	3083.2789	1384.6	502.1
1036.1286	3084.2893	1373	489.95
1036.2371	3085.2991	1369.55	486.8
1036.3454	3086.3083	1364.1	476.85
1036.4538	3087.3169	1364.75	481.55
1036.562	3088.3248	1356.7	472.75
1036.6703	3089.3321	1355.7	471.15
1036.7785	3090.3388	1342.6	462.45
1036.8866	3091.3449	1341.6	459.9
1036.9948	3092.3503	1336.45	451.35
1037.1028	3093.3551	1334.45	452.8
1037.2108	3094.3593	1333	451.35
1037.3188	3095.3629	1330.3	447.75
1037.4267	3096.3658	1321.4	435.5
1037.5346	3097.3681	1315.75	433.5
1037.6425	3098.3698	1317.3	434.8
1037.7503	3099.3708	1315.05	428.25
1037.858	3100.3713	1300.05	419.2
1037.9657	3101.3711	1304.15	421.1
1038.0734	3102.3702	1434.95	417.2
1038.181	3103.3688	1299.65	417.65
1038.2886	3104.3667	1292.55	413
1038.3961	3105.364	1287.4	406.4
1038.5036	3106.3607	1290.55	404.45
1038.611	3107.3568	1287.3	404.15
1038.7184	3108.3522	1278.7	397.3
1038.8257	3109.347	1283.15	400.7
1038.933	3110.3412	1272.1	385.6
1039.0403	3111.3348	1274.6	395.2
1039.1475	3112.3277	1268.45	385.8
1039.2547	3113.32	1264.6	384.8
1039.3618	3114.3117	1267.25	384.15
1039.4689	3115.3028	1266.4	384.15
1039.5759	3116.2932	1260.05	376.35
1039.6829	3117.2831	1266.5	379.4
1039.7898	3118.2723	1254.15	372.7
1039.8967	3119.2608	1258.8	377.85
1040.0035	3120.2488	1252.45	370.3
1040.1103	3121.2361	1246.3	365.05
1040.2171	3122.2229	1246.55	366
1040.3238	3123.209	1246.8	363.05
1040.4305	3124.1944	1240.2	360.55
1040.5371	3125.1793	1243	359.25
1040.6437	3126.1635	1233	353.45
1040.7502	3127.1471	1236.95	356.3
1040.8567	3128.1301	1228.5	347.6
1040.9631	3129.1125	1227.8	347.2
1041.0695	3130.0942	1232.1	351.55
1041.1759	3131.0753	1238.9	350.3
1041.2822	3132.0558	1225.25	340.7
1041.3884	3133.0357	1223.45	343.85
1041.4946	3134.015	1222.25	338.35
1041.6008	3134.9936	1224.95	341.9
1041.7069	3135.9716	1237.95	334.5
1041.813	3136.949	1218.2	334.9
1041.919	3137.9258	1231.55	332.05
1042.025	3138.902	1217.15	331.95
1042.1309	3139.8775	1210.55	328.95
1042.2368	3140.8524	1208.15	327.8
1042.3427	3141.8267	1212.1	330.55
1042.4485	3142.8004	1202.4	320.6
1042.5542	3143.7735	1208.6	321.25
1042.6599	3144.7459	1208.3	326.3
1042.7656	3145.7178	1198.05	315.45
1042.8712	3146.689	1206.55	326.35
1042.9768	3147.6596	1199.3	316.9
1043.0823	3148.6295	1196.6	313.9
1043.1878	3149.5989	1189.75	308.1
1043.2932	3150.5676	1184.75	305
1043.3986	3151.5357	1187.75	305.8
1043.5039	3152.5032	1191.9	309.95
1043.6092	3153.4701	1181.75	302.3
1043.7145	3154.4364	1183.6	300.25
1043.8197	3155.402	1181.95	303.4
1043.9248	3156.367	1182.35	300.7
1044.03	3157.3315	1212.2	293
1044.135	3158.2952	1170.6	290.6
1044.24	3159.2584	1174.25	294.2
1044.345	3160.221	1175.85	294.25
1044.4499	3161.1829	1170.4	289.2
1044.5548	3162.1442	1168	286.15
1044.6596	3163.105	1164.85	284.5
1044.7644	3164.065	1164.85	283.1
1044.8692	3165.0245	1165.25	281.4
1044.9739	3165.9834	1156.7	277.45
1045.0785	3166.9416	1161.15	281.35
1045.1831	3167.8993	1153	269.4
1045.2877	3168.8563	1156.85	275.1
1045.3922	3169.8127	1155.15	274.4
1045.4966	3170.7684	1152.25	273.35
1045.6011	3171.7236	1152.9	271.8
1045.7054	3172.6782	1152.65	272.75
1045.8098	3173.6321	1150.55	267.8
1045.914	3174.5854	1152.55	266.75
1046.0183	3175.5381	1139.7	258.2
1046.1224	3176.4902	1145.2	263.35
1046.2266	3177.4417	1140.6	260.45
1046.3307	3178.3926	1140.6	260.7
1046.4347	3179.3428	1136.4	257.65
1046.5387	3180.2924	1138.75	257.35
1046.6427	3181.2415	1134.45	254.75
1046.7466	3182.1899	1136.8	253.35
1046.8504	3183.1377	1132.55	250.45
1046.9542	3184.0848	1142.5	258.75
1047.058	3185.0314	1126.5	243.55
1047.1617	3185.9773	1131.6	249.05
1047.2654	3186.9227	1128.25	247.05
1047.369	3187.8674	1127.65	247.5
1047.4726	3188.8115	1132.25	247.45
1047.5761	3189.755	1124.85	244.7
1047.6796	3190.6979	1125.05	245.9
1047.783	3191.6402	1119.4	241.5
1047.8864	3192.5818	1117.9	237.3
1047.9898	3193.5229	1128.05	241.4
1048.0931	3194.4633	1116.2	235.05
1048.1963	3195.4031	1120.45	238.75
1048.2995	3196.3423	1116.5	234.95
1048.4027	3197.2809	1109.65	228.75
1048.5058	3198.2189	1114.25	232.3
1048.6089	3199.1563	1119.95	232.15
1048.7119	3200.0931	1105.95	225.7
1048.8148	3201.0292	1113.8	234.45
1048.9178	3201.9648	1109.3	228.35
1049.0206	3202.8997	1111.9	228
1049.1235	3203.834	1103.25	223.05
1049.2262	3204.7677	1106.7	226.15
1049.329	3205.7008	1104.7	222.6
1049.4317	3206.6333	1096.25	216.05
1049.5343	3207.5652	1105.8	224.15
1049.6369	3208.4964	1101.7	220.25
1049.7394	3209.4271	1099.6	219.3
1049.8419	3210.3571	1094.3	214.75
1049.9444	3211.2865	1095.65	213.9
1050.0468	3212.2154	1099	218.4
1050.1491	3213.1436	1103.05	220.4
1050.2514	3214.0712	1102.8	214.6
1050.3537	3214.9982	1096.3	218.05
1050.4559	3215.9246	1092.15	209.6
1050.5581	3216.8503	1092.05	211.5
1050.6602	3217.7755	1092.25	212.05
1050.7623	3218.7001	1086.35	205.65
1050.8643	3219.624	1091.3	209.9
1050.9663	3220.5473	1082.3	200.2
1051.0682	3221.4701	1086.2	205.45
1051.1701	3222.3922	1086.15	202.1
1051.2719	3223.3137	1078.25	198.4
1051.3737	3224.2346	1086.2	206.4
1051.4754	3225.1549	1079.8	198.8
1051.5771	3226.0746	1080.15	200.25
1051.6788	3226.9937	1075.95	195.7
1051.7804	3227.9121	1076.05	196.05
1051.8819	3228.83	1073.65	194.6
1051.9834	3229.7473	1079.8	199.3
1052.0849	3230.6639	1074	193.3
1052.1863	3231.5799	1074.5	195.45
1052.2876	3232.4954	1072	190.55
1052.3889	3233.4102	1069	187.5
1052.4902	3234.3244	1072.4	192
1052.5914	3235.238	1068.05	187.55
1052.6926	3236.151	1092.75	187.5
1052.7937	3237.0634	1065.95	185.45
1052.8948	3237.9752	1064.15	186.3
1052.9958	3238.8864	1065.8	185.05
1053.0968	3239.797	1065.3	185.55
1053.1977	3240.7069	1066.35	184.25
1053.2986	3241.6163	1064.55	180.25
1053.3994	3242.5251	1061.8	181.7
1053.5002	3243.4332	1059	180.65
1053.6009	3244.3408	1058.8	177.85
1053.7016	3245.2477	1055	172.6
1053.8022	3246.154	1057.35	176.85
1053.9028	3247.0598	1053.15	172.25
1054.0034	3247.9649	1050.75	169.85
1054.1039	3248.8694	1054.45	174.5
1054.2043	3249.7733	1046.75	168.8
1054.3047	3250.6766	1050.6	171.05
1054.4051	3251.5793	1049.3	168.15
1054.5054	3252.4814	1048.05	166.3
1054.6056	3253.3829	1041.35	162.45
1054.7058	3254.2838	1040	161.7
1054.806	3255.1841	1046.15	165.7
1054.9061	3256.0838	1045	165.15
1055.0061	3256.9829	1043.2	166.35
1055.1062	3257.8814	1042.65	160.2
1055.2061	3258.7792	1039.3	159.15
1055.306	3259.6765	1038.2	157.4
1055.4059	3260.5731	1031.85	149.35
1055.5057	3261.4692	1028.05	147.5
1055.6055	3262.3647	1031.9	149.85
1055.7052	3263.2595	1026.45	147.9
1055.8049	3264.1538	1028.1	147.05
1055.9045	3265.0474	1025.25	144.8
1056.0041	3265.9404	1021.65	142.7
1056.1036	3266.8329	1019.7	139.45
1056.2031	3267.7247	1026.5	138.35
1056.3025	3268.616	1015.5	137.45
1056.4019	3269.5066	1010.7	131.45
1056.5013	3270.3966	1007.4	126.15
1056.6005	3271.286	1003.35	123.3
