Software Version:	3.9.2.0
Unit SN:	10000200
Spectrometer SN:	6960
Date:	3/26/2024 2:57:46 PM
Data Line Index:	25
Spectral Points:	2048
Integration time (ms):	125
Averages:	20
Delay (ms):	30000
Sequence Number:	1
Processing:	dark subtract
Laser Power (mW):	305
Laser Current (mA):	820
Laser Diode Temp (C):	25
Laser Case Temp (C):	28
System Temp (C):	28.1
Spectrometer Temp (C):	25.9
CCD Temp (C):	0.005
Secondary Temp (C):	20.007
Heatsink Temp (C):	23.39
CCDPCB Temp (C):	37.619
SecondaryPCB Temp (C):	34.951

Wavelength	RamanShift	Raw Counts	Dark Subtracted
787.061	30.1047	410.15	-0.45
787.2016	32.3739	407.35	-1.05
787.3422	34.6426	408	0.15
787.4828	36.9109	412.4	1.55
787.6235	39.1787	415.55	2.5
787.7642	41.4461	419.9	0.05
787.9049	43.7131	424.05	1.9
788.0456	45.9796	427.5	1.5
788.1863	48.2456	430.3	-0.05
788.3271	50.5112	436.35	1.2
788.4679	52.7764	440.5	3.65
788.6087	55.0411	441.55	1.4
788.7496	57.3054	446.6	-0.75
788.8904	59.5692	450.5	1.75
789.0313	61.8326	456.85	3.35
789.1722	64.0955	460.05	4.6
789.3132	66.3579	464.6	4.35
789.4541	68.6199	469.75	6.5
789.5951	70.8815	474.9	7.55
789.7361	73.1426	486.1	15.85
789.8771	75.4032	497.85	21.95
790.0181	77.6634	513.9	33.5
790.1592	79.9231	540.35	56.65
790.3003	82.1824	591.55	101.45
790.4414	84.4412	673.1	172.3
790.5825	86.6995	798.4	286.7
790.7237	88.9574	941	412.5
790.8648	91.2148	1044.3	510.4
791.006	93.4717	1096.85	558.2
791.1472	95.7282	1096.5	552.75
791.2885	97.9842	1094.65	547.75
791.4297	100.2398	1086.65	535.05
791.571	102.4949	1090.1	535.75
791.7123	104.7495	1119.05	562.4
791.8536	107.0036	1119.5	562.4
791.9949	109.2573	1101	543.8
792.1363	111.5105	1076.1	515.35
792.2777	113.7632	1078.6	517.75
792.4191	116.0154	1091.5	519
792.5605	118.2672	1076.25	511.6
792.7019	120.5185	1092.2	525.75
792.8434	122.7693	1080.8	511.85
792.9849	125.0197	1085.45	511.1
793.1264	127.2696	1074.15	498.5
793.2679	129.519	1075.55	495.45
793.4094	131.7679	1084.6	502.95
793.551	134.0163	1068.55	484.65
793.6926	136.2642	1081.95	492.3
793.8342	138.5117	1095.3	501.45
793.9758	140.7587	1086.8	493.7
794.1175	143.0052	1082.6	486.35
794.2591	145.2512	1075.9	480.6
794.4008	147.4967	1074	475.95
794.5425	149.7417	1072.25	471
794.6842	151.9863	1083.25	479
794.826	154.2304	1093	486.8
794.9677	156.4739	1085.65	474.75
795.1095	158.717	1085.5	472.75
795.2513	160.9596	1087.1	469.75
795.3931	163.2017	1094.45	474.8
795.535	165.4433	1094.4	472.7
795.6768	167.6844	1087.7	465.75
795.8187	169.925	1086.1	457.45
795.9606	172.1651	1093	462.4
796.1025	174.4047	1091.2	458.6
796.2445	176.6439	1095.05	460.35
796.3864	178.8825	1091.2	453.85
796.5284	181.1206	1097.8	453.4
796.6704	183.3582	1105.4	458.55
796.8124	185.5954	1106.65	459.45
796.9544	187.832	1113.1	459.55
797.0965	190.0681	1115.55	462.35
797.2386	192.3037	1118.35	461.15
797.3806	194.5388	1119.15	456.8
797.5228	196.7734	1117.25	453.15
797.6649	199.0075	1130.95	464.5
797.807	201.2411	1137.5	466.85
797.9492	203.4742	1128.2	460.6
798.0914	205.7068	1135.7	464.95
798.2336	207.9389	1132.65	461.25
798.3758	210.1704	1136.2	462.8
798.518	212.4015	1136.9	460.6
798.6603	214.632	1135.5	458.45
798.8025	216.862	1118.15	455.45
798.9448	219.0915	1119.75	461.75
799.0871	221.3205	1122.55	462.65
799.2294	223.549	1114.55	459.55
799.3718	225.777	1119.55	464.4
799.5141	228.0044	1124.7	465.15
799.6565	230.2314	1113.35	458.45
799.7989	232.4578	1122.2	461.15
799.9413	234.6837	1124.7	459.05
800.0837	236.909	1132.85	466.25
800.2262	239.1339	1156.15	465.7
800.3687	241.3582	1140.85	464.9
800.5111	243.582	1171.3	460.55
800.6536	245.8053	1154.95	460.8
800.7961	248.0281	1154.95	463.3
800.9387	250.2503	1168.8	472.45
801.0812	252.472	1170.2	468.2
801.2238	254.6932	1171.5	470.2
801.3664	256.9139	1169.8	465.35
801.509	259.134	1167.35	460.85
801.6516	261.3536	1179.65	475.05
801.7942	263.5727	1178.35	469.3
801.9369	265.7912	1169.85	462.55
802.0795	268.0092	1170.9	464
802.2222	270.2267	1177.35	469.15
802.3649	272.4436	1176.2	466.25
802.5076	274.6601	1178.75	460.9
802.6504	276.8759	1175.65	463.9
802.7931	279.0913	1178.6	464.3
802.9359	281.3061	1179.95	462
803.0787	283.5204	1189.35	471.1
803.2215	285.7341	1187.05	464.9
803.3643	287.9473	1203.8	471.6
803.5071	290.16	1195.5	465.4
803.6499	292.3721	1190.95	464.05
803.7928	294.5837	1193.35	470.1
803.9357	296.7947	1192.4	467.75
804.0786	299.0052	1194.6	467.25
804.2215	301.2152	1196.1	467.05
804.3644	303.4246	1187.3	461
804.5074	305.6334	1186	462.1
804.6503	307.8418	1196.5	472.5
804.7933	310.0495	1196.2	462.45
804.9363	312.2568	1195.5	465.95
805.0793	314.4635	1204.7	470.75
805.2223	316.6696	1197.8	463.4
805.3653	318.8752	1206	466.05
805.5084	321.0802	1196.25	461.35
805.6514	323.2847	1204	465.35
805.7945	325.4887	1200	464.7
805.9376	327.692	1203.2	462.3
806.0807	329.8949	1207.2	466.75
806.2238	332.0972	1205.8	465.05
806.367	334.2989	1213.6	467
806.5101	336.5001	1215.2	468.8
806.6533	338.7007	1213	465.65
806.7965	340.9008	1210.35	461.55
806.9397	343.1003	1215.2	466.65
807.0829	345.2992	1215.3	464.35
807.2261	347.4976	1217.75	465.45
807.3693	349.6955	1221.3	462.5
807.5126	351.8927	1228.4	470.7
807.6559	354.0895	1230.55	459.2
807.7991	356.2856	1223.8	465.2
807.9424	358.4812	1227.3	469.3
808.0857	360.6763	1229.2	469.05
808.2291	362.8707	1223.75	463.6
808.3724	365.0646	1222.45	457.4
808.5158	367.258	1225.4	459.7
808.6591	369.4508	1228.3	458.8
808.8025	371.643	1238.85	467.7
808.9459	373.8346	1242.55	471.45
809.0893	376.0257	1253.1	479.3
809.2327	378.2162	1257	485.1
809.3762	380.4062	1256.05	478.2
809.5196	382.5956	1246.55	470.5
809.6631	384.7844	1244.55	469.9
809.8066	386.9726	1234.25	459.5
809.9501	389.1603	1243	468.35
810.0936	391.3474	1274.9	459.15
810.2371	393.5339	1234.6	459.25
810.3806	395.7199	1231.65	459.65
810.5241	397.9052	1223.75	456.5
810.6677	400.09	1226.8	456.95
810.8113	402.2743	1226.7	454.9
810.9548	404.4579	1222.25	453.9
811.0984	406.641	1230.95	462.4
811.2421	408.8235	1238.25	467.8
811.3857	411.0054	1247.1	475.4
811.5293	413.1868	1313.6	537.3
811.673	415.3675	1392.05	611.85
811.8166	417.5477	1423.4	643.8
811.9603	419.7273	1374.55	593.65
812.104	421.9064	1300.15	512.85
812.2477	424.0848	1270.8	486.75
812.3914	426.2627	1267.9	482.45
812.5351	428.4399	1277	488.15
812.6788	430.6166	1279	488.25
812.8226	432.7928	1276.6	483.1
812.9663	434.9683	1264.45	473.8
813.1101	437.1432	1261.6	466.8
813.2539	439.3176	1249.75	457.5
813.3977	441.4914	1243.75	451.65
813.5415	443.6645	1249.8	455.6
813.6853	445.8371	1260.15	465.25
813.8291	448.0091	1264.05	469.75
813.973	450.1806	1250.25	457
814.1168	452.3514	1246	449.2
814.2607	454.5216	1243.3	436.35
814.4046	456.6913	1232.9	434.55
814.5485	458.8603	1232.7	433.25
814.6924	461.0288	1223.15	428.05
814.8363	463.1967	1221.15	424.5
814.9802	465.3639	1232.35	431
815.1241	467.5306	1229.25	427.95
815.2681	469.6967	1225.7	425.55
815.412	471.8622	1223.55	424.95
815.556	474.0271	1223.05	422.9
815.7	476.1914	1230.55	424.45
815.844	478.3551	1227.05	424.25
815.988	480.5182	1220.15	416.85
816.132	482.6807	1219.55	416.85
816.276	484.8426	1207.35	408.4
816.4201	487.0039	1212.85	412.5
816.5641	489.1647	1222.9	419.15
816.7082	491.3248	1231.55	426.3
816.8522	493.4843	1226.9	422.8
816.9963	495.6432	1223.9	420.6
817.1404	497.8015	1235.4	425.05
817.2845	499.9592	1239.75	428.05
817.4286	502.1163	1235.6	425.45
817.5727	504.2728	1225.25	415.2
817.7168	506.4287	1219.9	416.1
817.861	508.5839	1218.6	411
818.0051	510.7386	1227.55	419.25
818.1493	512.8927	1241.35	421.45
818.2935	515.0461	1236.1	423.9
818.4377	517.199	1235.7	422.5
818.5818	519.3512	1235.35	422.2
818.726	521.5029	1234.8	417.8
818.8703	523.6539	1228.2	416.1
819.0145	525.8043	1233.65	416.55
819.1587	527.9541	1235.4	418.05
819.303	530.1033	1230.8	413.1
819.4472	532.2519	1228.7	413.4
819.5915	534.3999	1228.85	413.3
819.7357	536.5472	1225.7	408.45
819.88	538.694	1228	412.8
820.0243	540.8401	1229.7	410.65
820.1686	542.9856	1241.5	419.35
820.3129	545.1305	1248.55	422.3
820.4572	547.2748	1247.1	422.5
820.6016	549.4185	1253.9	425.75
820.7459	551.5615	1250.2	422.1
820.8902	553.704	1249.05	423.65
821.0346	555.8458	1240.65	417.05
821.1789	557.987	1243.45	420.6
821.3233	560.1276	1240.45	413
821.4677	562.2675	1246.95	421.35
821.6121	564.4069	1243.7	417.25
821.7565	566.5456	1241.6	418.05
821.9009	568.6837	1241.4	417.55
822.0453	570.8212	1248.05	421.55
822.1897	572.958	1264.2	436.45
822.3342	575.0942	1273.9	450.6
822.4786	577.2299	1265.55	441.55
822.6231	579.3648	1240.35	419
822.7675	581.4992	1218.5	401.9
822.912	583.6329	1210.9	394.2
823.0565	585.766	1212	389.8
823.201	587.8985	1212.6	390.3
823.3454	590.0304	1230.05	390.65
823.4899	592.1616	1229.95	399.25
823.6345	594.2922	1231.6	402
823.779	596.4222	1228.8	393.6
823.9235	598.5515	1234.5	401.2
824.068	600.6802	1232.85	397.35
824.2126	602.8083	1227.9	394.75
824.3571	604.9358	1225.2	391.15
824.5017	607.0626	1236.5	402.5
824.6462	609.1888	1235.05	397.55
824.7908	611.3144	1238.05	400.2
824.9354	613.4393	1236.05	402
825.08	615.5636	1235.2	398.15
825.2246	617.6873	1236.9	401.4
825.3692	619.8103	1233.25	393.8
825.5138	621.9327	1232.15	392.3
825.6584	624.0544	1233.95	399.1
825.803	626.1756	1223.05	388.5
825.9477	628.2961	1234.8	397.25
826.0923	630.4159	1230.75	393.05
826.237	632.5351	1232.55	392.4
826.3816	634.6537	1235.35	394.15
826.5263	636.7716	1243.15	400.95
826.6709	638.8889	1240.75	399.3
826.8156	641.0056	1244.8	401.95
826.9603	643.1216	1238.8	394.5
827.105	645.237	1237.55	393.45
827.2497	647.3518	1229.6	390.95
827.3944	649.4659	1222.55	382.7
827.5391	651.5793	1219.55	380.4
827.6838	653.6922	1219.65	381.45
827.8285	655.8043	1229.1	385.9
827.9733	657.9159	1227.25	381.85
828.118	660.0268	1229.85	384.55
828.2627	662.137	1230.65	383.95
828.4075	664.2466	1239.5	393.5
828.5522	666.3556	1235.35	390.3
828.697	668.4639	1229.5	384.5
828.8418	670.5716	1221.8	377.5
828.9865	672.6786	1228.75	381.3
829.1313	674.785	1232.6	382.5
829.2761	676.8907	1231.4	386.15
829.4209	678.9958	1225.5	381.85
829.5657	681.1002	1227.6	383.45
829.7105	683.204	1239.05	387.05
829.8553	685.3072	1237.4	387
830.0001	687.4097	1233.45	383.5
830.1449	689.5115	1232.55	377.95
830.2898	691.6127	1228.1	379.65
830.4346	693.7132	1222.35	373.4
830.5794	695.8131	1250.95	384.7
830.7243	697.9123	1236.85	382.15
830.8691	700.0109	1238	385.7
831.014	702.1089	1234.1	382.75
831.1588	704.2061	1235.9	384.25
831.3037	706.3028	1237.75	383.55
831.4486	708.3987	1232.25	378.7
831.5935	710.4941	1230.3	382.4
831.7383	712.5887	1226.15	374
831.8832	714.6827	1232	378
832.0281	716.7761	1223.25	371.15
832.173	718.8688	1229.45	376.2
832.3179	720.9608	1238.9	379.35
832.4628	723.0522	1241.2	383.7
832.6077	725.1429	1235.35	379.4
832.7527	727.233	1236.15	379.95
832.8976	729.3224	1239.2	382.5
833.0425	731.4112	1240.1	384.8
833.1874	733.4993	1238.2	378.7
833.3324	735.5867	1242.8	385.65
833.4773	737.6735	1254.35	399.2
833.6222	739.7596	1262.35	404.95
833.7672	741.845	1264.3	406.3
833.9122	743.9298	1283.2	421.65
834.0571	746.014	1294.1	436.7
834.2021	748.0974	1312.85	451
834.347	750.1802	1318.1	457.6
834.492	752.2624	1307.35	447.1
834.637	754.3439	1292.65	432
834.782	756.4247	1285.8	419
834.9269	758.5048	1263.7	403.4
835.0719	760.5843	1252.65	391.9
835.2169	762.6631	1246.55	386.35
835.3619	764.7413	1239.15	377.55
835.5069	766.8188	1239.8	374.75
835.6519	768.8956	1231.8	369.1
835.7969	770.9718	1233.8	370.1
835.9419	773.0473	1231.9	370.95
836.0869	775.1221	1236.05	374.9
836.232	777.1962	1227.2	362.85
836.377	779.2697	1231.05	368.1
836.522	781.3426	1236.55	362.05
836.667	783.4147	1223.75	360.35
836.8121	785.4862	1223.6	361.7
836.9571	787.557	1226.95	361.15
837.1021	789.6271	1224.95	361.75
837.2472	791.6966	1221.4	354.85
837.3922	793.7654	1218.6	352.15
837.5373	795.8335	1222.15	356.95
837.6823	797.901	1223.05	359.25
837.8274	799.9678	1224.75	360.35
837.9724	802.0339	1227.6	363.8
838.1175	804.0993	1233.6	357.9
838.2626	806.1641	1224.85	356.35
838.4076	808.2282	1222.2	354.35
838.5527	810.2916	1226.85	357
838.6978	812.3544	1217.35	353.2
838.8428	814.4164	1217.6	353.25
838.9879	816.4778	1225.75	356.6
839.133	818.5385	1223.7	357.7
839.2781	820.5986	1223.1	356.7
839.4232	822.658	1226.65	358.45
839.5682	824.7166	1214.8	348
839.7133	826.7747	1218.85	353.05
839.8584	828.832	1216.55	345.35
840.0035	830.8886	1221.65	352.4
840.1486	832.9446	1221	350.2
840.2937	834.9999	1216.1	348.5
840.4388	837.0545	1218.7	347.15
840.5839	839.1085	1222.95	353.6
840.729	841.1618	1223	351.6
840.8741	843.2143	1217.75	349
841.0192	845.2662	1217.1	346.75
841.1643	847.3175	1219.8	350.3
841.3095	849.368	1221.6	351.85
841.4546	851.4179	1221.15	350.6
841.5997	853.467	1220.05	348.2
841.7448	855.5155	1220.45	348.2
841.8899	857.5633	1220.9	352.6
842.0351	859.6105	1227.15	354.55
842.1802	861.6569	1226.55	353.3
842.3253	863.7027	1226.2	356
842.4704	865.7478	1237.75	364.05
842.6156	867.7922	1235.15	363
842.7607	869.8359	1247.65	374.8
842.9058	871.8789	1259.65	386.25
843.0509	873.9212	1308.05	404.7
843.1961	875.9629	1302.6	427.55
843.3412	878.0039	1332.9	460.3
843.4863	880.0441	1363.05	491.8
843.6315	882.0837	1379.55	506.8
843.7766	884.1226	1387.4	513.75
843.9218	886.1609	1365.95	494.05
844.0669	888.1984	1339.2	467.8
844.212	890.2352	1304.6	431.25
844.3572	892.2714	1286.95	411.6
844.5023	894.3069	1263.15	389.2
844.6475	896.3416	1247.7	371.85
844.7926	898.3757	1236.15	361.45
844.9377	900.4091	1236.75	360.7
845.0829	902.4418	1240.55	359.9
845.228	904.4739	1234.7	358
845.3732	906.5052	1221.5	345.3
845.5183	908.5358	1221.4	346.15
845.6635	910.5658	1226.15	347.6
845.8086	912.595	1221.15	343.4
845.9538	914.6236	1220.1	343.75
846.0989	916.6515	1217.55	341.15
846.2441	918.6786	1216.5	338.8
846.3892	920.7051	1217.6	339.85
846.5344	922.7309	1216.15	339.9
846.6795	924.756	1211.4	331.2
846.8246	926.7804	1216.15	337.35
846.9698	928.8041	1215.45	337.9
847.1149	930.8272	1209.25	331.5
847.2601	932.8495	1215.4	336
847.4052	934.8711	1210.25	332.45
847.5504	936.892	1204.75	327.15
847.6955	938.9123	1202	321.9
847.8407	940.9318	1211.2	332.1
847.9858	942.9506	1210.1	329.45
848.131	944.9688	1206.15	325.9
848.2761	946.9862	1205.55	327.55
848.4213	949.003	1206.9	326.45
848.5664	951.019	1202.65	325.4
848.7115	953.0344	1203.8	322.35
848.8567	955.0491	1203.1	324
849.0018	957.063	1209.85	329.65
849.147	959.0763	1207.45	320.8
849.2921	961.0888	1203.9	322.75
849.4373	963.1007	1200	322.95
849.5824	965.1119	1192.95	317.25
849.7275	967.1223	1189.65	314.25
849.8727	969.1321	1188.15	312.45
850.0178	971.1412	1197.75	321.55
850.1629	973.1495	1192.8	314.2
850.3081	975.1572	1235.8	324.5
850.4532	977.1641	1197.65	318.75
850.5983	979.1704	1206.65	324.4
850.7435	981.1759	1198.1	315.3
850.8886	983.1808	1201.3	323.05
851.0337	985.1849	1208.5	316.9
851.1788	987.1884	1200.35	317.35
851.324	989.1911	1198.75	315.55
851.4691	991.1932	1198.95	318.45
851.6142	993.1945	1198.35	317.1
851.7593	995.1951	1198.35	319.6
851.9045	997.1951	1201.4	313.55
852.0496	999.1943	1200.05	317.4
852.1947	1001.1928	1196.05	312.2
852.3398	1003.1906	1195.4	312.85
852.4849	1005.1877	1194.55	310.55
852.63	1007.1841	1194.55	311.95
852.7751	1009.1798	1189.75	308.3
852.9202	1011.1748	1189.45	306.7
853.0653	1013.1691	1189.55	305.3
853.2104	1015.1627	1190.3	308.75
853.3555	1017.1556	1184.65	305
853.5006	1019.1477	1188.95	307.35
853.6457	1021.1392	1182.9	305.65
853.7908	1023.1299	1177.25	297.95
853.9359	1025.12	1173.65	294.5
854.081	1027.1093	1162.45	288.05
854.2261	1029.0979	1163.4	288.9
854.3712	1031.0859	1169.3	293.85
854.5163	1033.0731	1181.4	301.85
854.6613	1035.0596	1188.2	307.6
854.8064	1037.0454	1194.55	311.65
854.9515	1039.0304	1199.9	315.25
855.0965	1041.0148	1198.35	318.45
855.2416	1042.9985	1207.6	323.25
855.3867	1044.9814	1217.2	334.75
855.5317	1046.9636	1222.45	339
855.6768	1048.9452	1225.4	343.85
855.8219	1050.926	1221.65	339.5
855.9669	1052.9061	1226.15	344.05
856.112	1054.8855	1231	346.7
856.257	1056.8642	1224.95	342.45
856.4021	1058.8421	1219.05	332.75
856.5471	1060.8194	1213.45	330.4
856.6921	1062.7959	1201.4	318.4
856.8372	1064.7717	1204	319.15
856.9822	1066.7469	1200.45	316.75
857.1272	1068.7213	1203.15	314.4
857.2723	1070.695	1197.6	313.95
857.4173	1072.6679	1199.4	314.15
857.5623	1074.6402	1200.35	316.25
857.7073	1076.6117	1202.15	313.6
857.8523	1078.5826	1203.65	317.25
857.9973	1080.5527	1204.2	316
858.1423	1082.5221	1207.35	322.9
858.2873	1084.4908	1212.9	328.75
858.4323	1086.4587	1219.65	334.3
858.5773	1088.426	1218.55	331.55
858.7223	1090.3925	1230.4	340.5
858.8673	1092.3584	1234.35	350.25
859.0123	1094.3235	1229.95	346.45
859.1573	1096.2879	1235.25	347.85
859.3022	1098.2515	1232.4	348.2
859.4472	1100.2145	1225.95	342.25
859.5922	1102.1767	1221.6	333.85
859.7371	1104.1382	1212.15	325.3
859.8821	1106.099	1202.95	315.6
860.027	1108.0591	1199.5	314.6
860.172	1110.0185	1198.15	309.8
860.3169	1111.9771	1199.7	312.55
860.4619	1113.9351	1198.75	314.3
860.6068	1115.8923	1190.15	300.65
860.7517	1117.8488	1188.7	303.35
860.8967	1119.8045	1192.35	305.4
861.0416	1121.7596	1184.55	298.75
861.1865	1123.7139	1181.95	296.7
861.3314	1125.6675	1181.55	297.95
861.4763	1127.6204	1184.35	299.25
861.6212	1129.5726	1178	290.65
861.7661	1131.524	1178.5	291.45
861.911	1133.4748	1174.3	287.65
862.0559	1135.4248	1171.9	285.9
862.2008	1137.3741	1174	290.1
862.3457	1139.3226	1173.75	283.95
862.4905	1141.2705	1166.15	278.9
862.6354	1143.2176	1170.25	276.65
862.7803	1145.164	1170.75	281.9
862.9251	1147.1097	1166.05	278.55
863.07	1149.0546	1163.25	275.75
863.2148	1150.9989	1168.75	279.5
863.3597	1152.9424	1163.85	275.8
863.5045	1154.8852	1163.95	275.2
863.6493	1156.8272	1165.4	277.35
863.7942	1158.7686	1173.55	275.05
863.939	1160.7092	1162.6	273.15
864.0838	1162.6491	1163.2	275.6
864.2286	1164.5883	1157.6	269.2
864.3734	1166.5267	1159.05	271.65
864.5182	1168.4644	1153.45	267.05
864.663	1170.4014	1155	267.1
864.8078	1172.3377	1157.35	272.5
864.9526	1174.2732	1150.95	262.6
865.0974	1176.2081	1155.05	268
865.2421	1178.1421	1155.95	264.65
865.3869	1180.0755	1154.1	265.95
865.5317	1182.0082	1152.1	265.9
865.6764	1183.9401	1147	260.9
865.8212	1185.8713	1142.55	258.65
865.9659	1187.8017	1139.35	255.9
866.1106	1189.7315	1132.2	250.65
866.2554	1191.6605	1123.1	239.35
866.4001	1193.5888	1134.65	249.15
866.5448	1195.5163	1143	259.45
866.6895	1197.4432	1143.2	254.45
866.8342	1199.3693	1142.4	255.9
866.9789	1201.2947	1154.1	260.2
867.1236	1203.2193	1141.3	252.95
867.2683	1205.1432	1147.6	260.75
867.413	1207.0664	1145.15	256.1
867.5576	1208.9889	1144.2	252.75
867.7023	1210.9106	1143.65	254.65
867.847	1212.8316	1143.8	258
867.9916	1214.7519	1157.75	259.2
868.1363	1216.6715	1144	254.85
868.2809	1218.5903	1145.4	257.8
868.4255	1220.5084	1141.45	250.75
868.5701	1222.4257	1142.5	252.5
868.7148	1224.3424	1137	250.2
868.8594	1226.2583	1141.35	248.55
869.004	1228.1735	1144.1	256.05
869.1486	1230.0879	1141.85	253.1
869.2932	1232.0016	1142.9	254.55
869.4377	1233.9146	1139.45	248.25
869.5823	1235.8269	1144.1	252.7
869.7269	1237.7384	1146.85	255.25
869.8715	1239.6492	1139.9	251.5
870.016	1241.5592	1139.65	247.15
870.1606	1243.4686	1141.7	251.5
870.3051	1245.3772	1139.8	252.65
870.4496	1247.285	1142.3	252.9
870.5941	1249.1922	1142.3	253.25
870.7387	1251.0986	1140	252.75
870.8832	1253.0042	1142.5	254.85
871.0277	1254.9092	1136.95	248.4
871.1722	1256.8134	1137.8	249.1
871.3167	1258.7169	1144	254.7
871.4611	1260.6196	1140.8	252.25
871.6056	1262.5216	1146.3	255.35
871.7501	1264.4229	1142.95	257.55
871.8945	1266.3234	1148.7	260.3
872.039	1268.2232	1158.95	269.4
872.1834	1270.1223	1158.2	269.4
872.3278	1272.0207	1162.95	272.4
872.4723	1273.9183	1166.25	268.95
872.6167	1275.8151	1156.1	265.4
872.7611	1277.7113	1159.3	269.9
872.9055	1279.6067	1153.8	264.35
873.0499	1281.5014	1153.95	261.4
873.1943	1283.3953	1155.95	262.85
873.3386	1285.2885	1145.4	257.95
873.483	1287.181	1149.95	259.3
873.6274	1289.0727	1136.8	247.05
873.7717	1290.9637	1142.55	256.05
873.9161	1292.854	1146.35	257.1
874.0604	1294.7435	1140.05	249.35
874.2047	1296.6323	1141.55	250.7
874.349	1298.5204	1141.05	245.25
874.4933	1300.4077	1142.8	250.85
874.6376	1302.2943	1136.2	245.85
874.7819	1304.1802	1135	247.2
874.9262	1306.0653	1141.7	250.65
875.0705	1307.9497	1130.75	239.55
875.2147	1309.8333	1137.75	250.75
875.359	1311.7162	1137.8	248.25
875.5032	1313.5984	1137.55	243.15
875.6475	1315.4798	1152.4	253.05
875.7917	1317.3605	1142.2	246.95
875.9359	1319.2405	1137.3	244.55
876.0801	1321.1197	1141.85	248.85
876.2243	1322.9982	1140.6	244.2
876.3685	1324.876	1139.85	252.55
876.5127	1326.753	1136.75	246.25
876.6569	1328.6293	1136.85	246.15
876.801	1330.5048	1133.95	240.4
876.9452	1332.3796	1131.2	242.55
877.0893	1334.2537	1160.65	247.3
877.2335	1336.127	1136.5	247.75
877.3776	1337.9996	1136.05	246.55
877.5217	1339.8714	1136.35	246
877.6658	1341.7426	1186.05	250.8
877.8099	1343.6129	1138.25	246
877.954	1345.4826	1134.65	244.55
878.0981	1347.3515	1142.35	248.7
878.2422	1349.2196	1140.65	250.15
878.3862	1351.087	1130.65	241.65
878.5303	1352.9537	1134.15	245.05
878.6743	1354.8197	1139	248
878.8184	1356.6849	1135.85	245.7
878.9624	1358.5493	1136.75	245.5
879.1064	1360.4131	1133.2	244.85
879.2504	1362.276	1135.95	247.75
879.3944	1364.1383	1131.6	243.7
879.5384	1365.9998	1143.2	243.4
879.6823	1367.8606	1132.85	242.7
879.8263	1369.7206	1136.5	244.8
879.9702	1371.5799	1139.2	244.65
880.1142	1373.4384	1135.2	245
880.2581	1375.2962	1136.75	244.7
880.402	1377.1533	1137.5	248.2
880.5459	1379.0096	1133.7	244.35
880.6898	1380.8652	1129.4	241
880.8337	1382.7201	1132.85	244.3
880.9776	1384.5742	1136.65	246.05
881.1215	1386.4275	1134.95	245.15
881.2653	1388.2802	1131.95	241.65
881.4092	1390.132	1126	235.3
881.553	1391.9832	1133.5	241.35
881.6968	1393.8336	1130.9	238.4
881.8406	1395.6832	1131.1	239.15
881.9844	1397.5322	1125.8	233.65
882.1282	1399.3803	1133.2	236.7
882.272	1401.2278	1127.9	236.25
882.4158	1403.0745	1127	237.15
882.5595	1404.9204	1119.35	231.9
882.7033	1406.7656	1125.25	237.15
882.847	1408.6101	1126.95	235.5
882.9908	1410.4538	1126.3	236.15
883.1345	1412.2968	1124.4	232.85
883.2782	1414.139	1127.4	238.7
883.4219	1415.9805	1125.95	237.25
883.5656	1417.8213	1142.6	229.25
883.7092	1419.6613	1121.7	232.8
883.8529	1421.5006	1128.1	236.5
883.9965	1423.3391	1127.65	235.85
884.1402	1425.1769	1127.75	237.3
884.2838	1427.0139	1132.3	240.5
884.4274	1428.8502	1126.05	237.95
884.571	1430.6858	1128.15	237.65
884.7146	1432.5206	1129.6	238.9
884.8582	1434.3547	1130.8	238.3
885.0018	1436.188	1132.5	240.05
885.1453	1438.0206	1138.35	246.75
885.2889	1439.8524	1136	246.9
885.4324	1441.6835	1143.9	252.8
885.5759	1443.5139	1148.9	255.45
885.7194	1445.3435	1149	257.9
885.8629	1447.1724	1156.4	266.3
886.0064	1449.0005	1156.85	267.2
886.1499	1450.8279	1155.25	265.8
886.2933	1452.6545	1162.65	273.9
886.4368	1454.4804	1161	271.4
886.5802	1456.3056	1167.8	270.95
886.7237	1458.13	1154.9	267.3
886.8671	1459.9536	1158.85	269.9
887.0105	1461.7766	1145.8	255.9
887.1539	1463.5987	1144.85	252.5
887.2972	1465.4202	1140.7	250.8
887.4406	1467.2409	1137.95	247.15
887.584	1469.0608	1130.3	238.65
887.7273	1470.88	1126.4	236.45
887.8706	1472.6984	1124.95	236.85
888.0139	1474.5161	1129.95	235.7
888.1572	1476.3331	1126.15	235.85
888.3005	1478.1493	1120.1	229.15
888.4438	1479.9648	1124.55	233.2
888.5871	1481.7795	1121.5	229.75
888.7303	1483.5935	1122.8	235.3
888.8736	1485.4067	1120.35	231.35
889.0168	1487.2192	1117.15	226.85
889.16	1489.031	1118.95	226.1
889.3032	1490.842	1113.85	223.2
889.4464	1492.6522	1112.05	219.75
889.5896	1494.4618	1110.1	217.6
889.7327	1496.2705	1108.75	219.55
889.8759	1498.0785	1111.75	222.3
890.019	1499.8858	1106.4	215.8
890.1622	1501.6924	1105.75	214.6
890.3053	1503.4981	1105.45	214.9
890.4484	1505.3032	1107.15	212.9
890.5914	1507.1075	1100.8	209.7
890.7345	1508.911	1102	210.1
890.8776	1510.7138	1097.95	205.2
891.0206	1512.5159	1094.65	205.05
891.1637	1514.3172	1095.25	204.6
891.3067	1516.1178	1098.2	212
891.4497	1517.9176	1098.8	205.5
891.5927	1519.7166	1091.8	203.2
891.7357	1521.515	1102.6	207.25
891.8786	1523.3126	1094.95	203.65
892.0216	1525.1094	1093.65	200.9
892.1645	1526.9055	1092	203.7
892.3074	1528.7008	1091.7	201
892.4503	1530.4954	1097.35	202.65
892.5932	1532.2893	1088.45	200.25
892.7361	1534.0824	1087.8	194.3
892.879	1535.8747	1078.15	192.7
893.0218	1537.6663	1087.55	197.7
893.1647	1539.4572	1084.9	196.1
893.3075	1541.2473	1085.55	195.5
893.4503	1543.0367	1083.6	196.05
893.5931	1544.8253	1090.05	197.8
893.7359	1546.6132	1088.2	194.1
893.8787	1548.4003	1091.95	193.95
894.0214	1550.1867	1089.3	195.35
894.1642	1551.9723	1087.45	194.25
894.3069	1553.7572	1081.55	194
894.4496	1555.5414	1083	195
894.5923	1557.3247	1074.6	186.1
894.735	1559.1074	1075.95	192
894.8777	1560.8893	1074.45	190.25
895.0204	1562.6705	1067.6	180
895.163	1564.4509	1068.65	181.2
895.3056	1566.2305	1063.1	177.95
895.4482	1568.0094	1064.25	178.5
895.5908	1569.7876	1067.9	181.15
895.7334	1571.565	1071.75	185.45
895.876	1573.3417	1071.75	184.8
896.0186	1575.1176	1068.85	183.5
896.1611	1576.8928	1061.25	176.3
896.3036	1578.6672	1056.4	173.65
896.4461	1580.4409	1055	172.9
896.5886	1582.2138	1062.2	176.4
896.7311	1583.986	1065.6	179
896.8736	1585.7575	1069.2	181.7
897.0161	1587.5282	1059.55	174.65
897.1585	1589.2981	1058.75	173.95
897.3009	1591.0673	1055.95	171.6
897.4433	1592.8358	1053.55	172.45
897.5857	1594.6035	1061.65	175.25
897.7281	1596.3704	1066.9	181.1
897.8705	1598.1366	1064.55	180.65
898.0128	1599.9021	1057.4	173.15
898.1551	1601.6668	1059.05	172.35
898.2975	1603.4308	1064.6	179.85
898.4398	1605.194	1068.8	179.5
898.5821	1606.9564	1051.35	168.5
898.7243	1608.7182	1043.4	158.95
898.8666	1610.4791	1039.25	159.15
899.0088	1612.2394	1039.7	161.1
899.1511	1613.9988	1043.3	163.15
899.2933	1615.7576	1049.35	166.95
899.4355	1617.5156	1060.55	170.3
899.5776	1619.2728	1061.4	175.7
899.7198	1621.0293	1060.85	175.85
899.862	1622.785	1053.4	169.2
900.0041	1624.54	1051.5	166
900.1462	1626.2942	1045.8	161.5
900.2883	1628.0477	1042.8	155.3
900.4304	1629.8005	1052.85	165.4
900.5725	1631.5525	1048.75	164.1
900.7145	1633.3037	1049.65	166
900.8566	1635.0542	1045.35	162.85
900.9986	1636.804	1049.45	166.25
901.1406	1638.553	1117.55	163.3
901.2826	1640.3013	1050.1	166.65
901.4245	1642.0488	1049.8	163.75
901.5665	1643.7955	1036.9	153.25
901.7085	1645.5416	1043.2	159.8
901.8504	1647.2868	1045.5	159.2
901.9923	1649.0313	1048.2	165.1
902.1342	1650.7751	1053.3	166.85
902.2761	1652.5181	1043.45	162.55
902.4179	1654.2604	1040	155.5
902.5598	1656.0019	1043.6	160.25
902.7016	1657.7427	1040.75	157.1
902.8434	1659.4828	1054.25	170.35
902.9852	1661.222	1045.9	159.9
903.127	1662.9606	1049.8	166.6
903.2687	1664.6984	1052.15	167.4
903.4105	1666.4354	1053.5	166.45
903.5522	1668.1717	1055.25	169
903.6939	1669.9072	1055.75	170.8
903.8356	1671.642	1055.65	167.4
903.9773	1673.3761	1050.95	168.15
904.119	1675.1094	1050.65	166.05
904.2606	1676.8419	1052.3	166.8
904.4022	1678.5737	1049.15	165.8
904.5439	1680.3048	1054.4	170.3
904.6855	1682.0351	1047.75	161.95
904.827	1683.7646	1047.4	158.7
904.9686	1685.4934	1045.8	160.75
905.1101	1687.2215	1046.25	160.65
905.2517	1688.9488	1042.25	157.15
905.3932	1690.6754	1044.5	161.4
905.5347	1692.4012	1043.85	161
905.6761	1694.1263	1045.2	162.3
905.8176	1695.8506	1042	155.35
905.9591	1697.5742	1036.15	151.5
906.1005	1699.297	1030.85	148.35
906.2419	1701.0191	1033	153.1
906.3833	1702.7404	1034.45	152.65
906.5246	1704.461	1040.55	154.95
906.666	1706.1808	1038.35	152.65
906.8073	1707.8999	1035.5	151.5
906.9487	1709.6182	1031.15	146.5
907.09	1711.3358	1024.15	141.6
907.2313	1713.0527	1021.95	140.9
907.3725	1714.7688	1030.9	141.95
907.5138	1716.4841	1033.55	149.25
907.655	1718.1987	1038.7	150.4
907.7962	1719.9126	1029.55	145.15
907.9374	1721.6257	1029.25	144.1
908.0786	1723.338	1024.15	142.55
908.2198	1725.0496	1027.95	145.65
908.3609	1726.7605	1030.05	146
908.502	1728.4706	1030.45	147.6
908.6431	1730.18	1023.65	138.95
908.7842	1731.8886	1021.75	140.6
908.9253	1733.5964	1044.6	144.05
909.0664	1735.3036	1026.45	141.15
909.2074	1737.0099	1026.4	145.05
909.3484	1738.7156	1021.35	140.05
909.4894	1740.4204	1025.65	141.15
909.6304	1742.1246	1024.25	138.85
909.7714	1743.8279	1023.85	142.1
909.9123	1745.5306	1018.4	134.5
910.0532	1747.2325	1015.75	131.6
910.1941	1748.9336	1025.55	142.4
910.335	1750.634	1027.6	142.75
910.4759	1752.3336	1021.1	136.2
910.6168	1754.0325	1014.25	132.7
910.7576	1755.7307	1016.75	133.2
910.8984	1757.4281	1026.8	143.5
911.0392	1759.1247	1037.65	145.35
911.18	1760.8206	1036.6	147.8
911.3208	1762.5158	1036.7	147.95
911.4615	1764.2102	1024.1	139.15
911.6022	1765.9039	1021.9	140.4
911.7429	1767.5968	1014.35	131.15
911.8836	1769.289	1015.35	132.45
912.0243	1770.9804	1024.8	141.75
912.1649	1772.6711	1028.55	144.25
912.3056	1774.361	1027.3	142.9
912.4462	1776.0502	1026.4	141.55
912.5868	1777.7386	1028.4	139.7
912.7274	1779.4263	1018	132.85
912.8679	1781.1132	1012.95	131.1
913.0084	1782.7994	1009.15	127.55
913.149	1784.4849	1011.55	129.6
913.2895	1786.1696	1031.55	131.5
913.4299	1787.8535	1011.2	131.2
913.5704	1789.5367	1007.3	126.2
913.7108	1791.2192	1010.3	129.35
913.8513	1792.9009	1046.2	137.3
913.9917	1794.5818	1022.6	136.25
914.132	1796.2621	1017.95	135.35
914.2724	1797.9415	1018.8	134
914.4128	1799.6202	1013.6	127.65
914.5531	1801.2982	1017.35	130.8
914.6934	1802.9755	1021.95	136.95
914.8337	1804.6519	1018.2	132
914.9739	1806.3277	1011.6	128.15
915.1142	1808.0027	1006.1	125.9
915.2544	1809.6769	1006.2	124.15
915.3946	1811.3504	1005.4	121.95
915.5348	1813.0231	1003.5	121.45
915.675	1814.6951	1004.35	122.1
915.8151	1816.3664	1010.75	125
915.9553	1818.0369	1016.6	132.8
916.0954	1819.7067	1014.85	133.15
916.2355	1821.3757	1015.2	129.3
916.3755	1823.044	1017.5	132.75
916.5156	1824.7115	1016.35	129.7
916.6556	1826.3783	1013.85	129.4
916.7956	1828.0443	1008.85	126.25
916.9356	1829.7096	1012.05	127.6
917.0756	1831.3741	1012.2	124.9
917.2155	1833.0379	1005.35	125.25
917.3555	1834.701	1001.45	118
917.4954	1836.3633	1002.4	119.65
917.6353	1838.0248	1005.8	120.8
917.7751	1839.6856	1005.05	122.4
917.915	1841.3457	1009.7	127.9
918.0548	1843.005	1013.35	128.9
918.1946	1844.6636	1010.3	126.5
918.3344	1846.3214	1011	126.1
918.4742	1847.9785	1007.9	123.85
918.6139	1849.6349	1013.3	126.75
918.7537	1851.2904	1025.65	130.8
918.8934	1852.9453	1017.25	130.8
919.0331	1854.5994	1014.55	125.95
919.1727	1856.2528	1017.4	128.5
919.3124	1857.9054	1010.55	123.65
919.452	1859.5572	1007.6	124.85
919.5916	1861.2083	1007.25	123.8
919.7312	1862.8587	1014.55	131.2
919.8708	1864.5084	1012.95	126.05
920.0103	1866.1572	1018.75	133.7
920.1498	1867.8054	1017.9	129.95
920.2893	1869.4528	1015.1	129.85
920.4288	1871.0994	1011.8	123.55
920.5683	1872.7453	1011.05	125.8
920.7077	1874.3905	1013.9	123.85
920.8471	1876.0349	1008.5	122.2
920.9865	1877.6786	1011.9	127.35
921.1259	1879.3215	1013.35	129.4
921.2653	1880.9637	1010	122.75
921.4046	1882.6051	1007.15	123.45
921.5439	1884.2458	1006	121.15
921.6832	1885.8858	1004.5	122.2
921.8225	1887.525	1011.25	126.5
921.9617	1889.1634	1014.4	130.05
922.101	1890.8011	1011.65	126.85
922.2402	1892.4381	1008.65	123.35
922.3794	1894.0743	1004.65	119.15
922.5185	1895.7098	1006.45	121.1
922.6577	1897.3446	1009.65	125.1
922.7968	1898.9786	1014.8	126.45
922.9359	1900.6118	1003.65	121.35
923.075	1902.2443	1006.95	120.9
923.214	1903.8761	1008.15	124.85
923.3531	1905.5071	1006.55	121.55
923.4921	1907.1374	1002.45	119.4
923.6311	1908.7669	1001.15	116.9
923.77	1910.3957	999.2	112.9
923.909	1912.0237	1002.9	117.85
924.0479	1913.651	1004.35	119.7
924.1868	1915.2776	999.35	115.2
924.3257	1916.9034	997.15	114.95
924.4646	1918.5285	997.85	113.5
924.6034	1920.1528	1003.85	118.9
924.7422	1921.7764	1004.05	118.15
924.881	1923.3992	1004.85	122.5
925.0198	1925.0213	999.6	114.85
925.1586	1926.6427	998.5	115.1
925.2973	1928.2633	1114.9	108.45
925.436	1929.8832	1003.15	115.9
925.5747	1931.5023	1001.4	115
925.7134	1933.1207	1001.65	118
925.852	1934.7383	1000.25	114.7
925.9906	1936.3552	995.2	112.35
926.1292	1937.9714	996.95	112.9
926.2678	1939.5868	1000.85	116.55
926.4064	1941.2015	998.4	114.55
926.5449	1942.8154	1004.15	118.3
926.6834	1944.4286	1004.4	119.05
926.8219	1946.041	1024.95	119.35
926.9604	1947.6528	1005.9	117.35
927.0988	1949.2637	995.8	110.8
927.2372	1950.8739	995.95	109.4
927.3756	1952.4834	992.25	106.75
927.514	1954.0921	995.8	111.45
927.6523	1955.7001	995.15	107.8
927.7907	1957.3074	987.2	104.95
927.929	1958.9139	979.5	98
928.0673	1960.5197	985.75	102.05
928.2055	1962.1247	987.85	105.1
928.3438	1963.729	987.1	107.4
928.482	1965.3325	1008.95	103.3
928.6202	1966.9353	981.95	100.85
928.7584	1968.5374	985.9	100.85
928.8965	1970.1387	987.05	103.65
929.0346	1971.7393	983.2	100.9
929.1727	1973.3392	978.9	98
929.3108	1974.9383	981.3	99.45
929.4489	1976.5366	976.15	94.4
929.5869	1978.1342	975.7	93
929.7249	1979.7311	974.2	93.5
929.8629	1981.3273	975.9	94.5
930.0009	1982.9227	972.2	89.15
930.1388	1984.5173	972.6	92
930.2767	1986.1112	974.3	93.35
930.4146	1987.7044	974.85	96.65
930.5525	1989.2968	977.6	94.15
930.6904	1990.8885	977.15	93.15
930.8282	1992.4795	970.1	89.9
930.966	1994.0697	967.6	86.8
931.1038	1995.6592	972.85	92
931.2415	1997.2479	969.15	88.8
931.3793	1998.8359	969.55	88.85
931.517	2000.4232	964.05	86.25
931.6547	2002.0097	960.85	84
931.7923	2003.5955	959.75	81.5
931.93	2005.1805	963.1	83
932.0676	2006.7648	963.65	84.35
932.2052	2008.3484	963.35	83
932.3427	2009.9312	957.65	77.6
932.4803	2011.5133	953.3	76.75
932.6178	2013.0946	957.2	79.6
932.7553	2014.6752	959.8	82.6
932.8928	2016.2551	965.95	86.55
933.0302	2017.8342	962.35	83.4
933.1676	2019.4126	959.4	81.9
933.305	2020.9902	954.55	76.75
933.4424	2022.5672	955.15	77.15
933.5798	2024.1433	960.45	77.55
933.7171	2025.7188	950.75	74.4
933.8544	2027.2935	952.4	74
933.9917	2028.8674	952	74.55
934.129	2030.4406	952.6	77.4
934.2662	2032.0131	950.8	74.25
934.4034	2033.5849	952.1	72.15
934.5406	2035.1559	950.95	75.15
934.6778	2036.7261	955.7	79.2
934.8149	2038.2957	963.55	85
934.952	2039.8645	962	83.15
935.0891	2041.4325	963.75	82.6
935.2262	2042.9998	955.95	77.9
935.3632	2044.5664	953.85	74.8
935.5002	2046.1323	951.95	76
935.6372	2047.6974	951.15	72.1
935.7742	2049.2617	953.2	75.05
935.9111	2050.8254	956.65	74.05
936.048	2052.3883	957.9	78.1
936.1849	2053.9504	959.3	79.9
936.3218	2055.5118	961	81.5
936.4586	2057.0725	960.6	78.45
936.5955	2058.6325	950.55	71.3
936.7323	2060.1917	949.25	72.65
936.869	2061.7502	952.6	71.15
937.0058	2063.3079	948.65	73.8
937.1425	2064.8649	953.15	72.65
937.2792	2066.4212	952.65	75.1
937.4159	2067.9767	953.95	76.55
937.5525	2069.5315	954.3	74.1
937.6891	2071.0856	954	75.55
937.8257	2072.6389	952.3	74.35
937.9623	2074.1915	949.05	73.9
938.0989	2075.7433	952.2	72.15
938.2354	2077.2945	947.45	70.75
938.3719	2078.8448	955.6	76.55
938.5084	2080.3945	953.5	74.45
938.6448	2081.9434	953.2	75.1
938.7812	2083.4916	958.55	78.4
938.9176	2085.039	961.5	79.15
939.054	2086.5857	963.3	83
939.1903	2088.1317	962.6	80.35
939.3267	2089.677	965.45	85.7
939.463	2091.2215	962.85	81.85
939.5992	2092.7652	964.55	83.45
939.7355	2094.3083	963.95	84.15
939.8717	2095.8506	960.3	82
940.0079	2097.3921	955.3	78.6
940.1441	2098.933	955.6	76.9
940.2802	2100.4731	955	74.6
940.4163	2102.0124	965.5	79.5
940.5524	2103.5511	956.2	78.85
940.6885	2105.089	956.7	76.1
940.8245	2106.6261	954.35	76.65
940.9606	2108.1626	952.9	71
941.0965	2109.6983	982.7	75.8
941.2325	2111.2332	954	73.2
941.3684	2112.7675	954.8	74.5
941.5044	2114.301	957.25	75.4
941.6403	2115.8337	956.3	77.1
941.7761	2117.3657	957.25	78.25
941.912	2118.897	955.4	75.2
942.0478	2120.4276	958.25	71.95
942.1835	2121.9575	957.95	77.05
942.3193	2123.4866	968.95	74.8
942.455	2125.0149	956	74.6
942.5907	2126.5426	948.15	69.15
942.7264	2128.0695	946.55	64.05
942.8621	2129.5956	939.4	63.05
942.9977	2131.1211	950.85	67.75
943.1333	2132.6458	945.25	65.65
943.2689	2134.1698	950.7	70.15
943.4044	2135.693	957.15	73.3
943.54	2137.2155	954.45	72.85
943.6755	2138.7373	950.3	72.55
943.8109	2140.2584	945.5	67.3
943.9464	2141.7787	946.25	62
944.0818	2143.2983	940.6	64
944.2172	2144.8171	937.75	61.4
944.3526	2146.3353	941.85	62.2
944.4879	2147.8527	943.9	67.45
944.6232	2149.3693	950.15	71.6
944.7585	2150.8853	950.6	71.85
944.8938	2152.4005	950	70.6
945.029	2153.9149	950.5	73.15
945.1642	2155.4287	1058.65	68.35
945.2994	2156.9417	949.55	69.4
945.4346	2158.454	944.25	61.95
945.5697	2159.9655	940.8	61.3
945.7048	2161.4764	941.9	63.35
945.8399	2162.9865	944.1	63.35
945.9749	2164.4958	943.35	64.55
946.1099	2166.0045	945.5	64.75
946.2449	2167.5124	944.35	66.25
946.3799	2169.0195	947.85	67.8
946.5148	2170.526	947.95	67.35
946.6498	2172.0317	943.15	64.55
946.7846	2173.5367	945.6	66.5
946.9195	2175.0409	941.35	62.9
947.0543	2176.5445	945.65	67.4
947.1891	2178.0473	945.55	66.65
947.3239	2179.5494	949.45	66.5
947.4587	2181.0507	946.4	68.05
947.5934	2182.5513	942.55	60.65
947.7281	2184.0512	945.6	68.1
947.8628	2185.5504	942.8	62.5
947.9974	2187.0488	938.95	62.65
948.132	2188.5465	936.9	59.25
948.2666	2190.0435	943.4	65.5
948.4012	2191.5397	942.6	63.7
948.5357	2193.0353	944.4	64
948.6702	2194.5301	947.85	67.45
948.8047	2196.0241	950.95	69.45
948.9392	2197.5175	949.55	70.15
949.0736	2199.0101	952.1	68.1
949.208	2200.502	941.7	63.5
949.3424	2201.9931	938.9	60.3
949.4767	2203.4835	937.4	56.15
949.611	2204.9733	939.9	56.9
949.7453	2206.4622	935.15	58.45
949.8796	2207.9505	938.65	58.8
950.0138	2209.438	932.25	56.35
950.148	2210.9248	937.5	58.2
950.2822	2212.4109	940.05	61.9
950.4164	2213.8962	945.8	65
950.5505	2215.3809	945.95	64.2
950.6846	2216.8648	947.6	67.05
950.8186	2218.3479	952.75	67.7
950.9527	2219.8304	949.6	67.9
951.0867	2221.3121	951.35	68.5
951.2207	2222.7931	944.8	66.9
951.3546	2224.2733	942.9	62.6
951.4886	2225.7529	940.85	63.65
951.6225	2227.2317	937.7	58.95
951.7563	2228.7098	933.45	55.85
951.8902	2230.1872	933.65	56.45
952.024	2231.6638	933.9	54.6
952.1578	2233.1397	938.05	55.7
952.2916	2234.6149	931.45	54.1
952.4253	2236.0894	935.15	55
952.559	2237.5632	945.75	55.65
952.6927	2239.0362	937.55	59.55
952.8263	2240.5085	937.2	58.7
952.9599	2241.9801	939.8	60.9
953.0935	2243.4509	939.4	61.75
953.2271	2244.921	942.65	63.45
953.3606	2246.3904	945.95	64.1
953.4941	2247.8591	940.95	62.35
953.6276	2249.3271	935.55	57.2
953.7611	2250.7943	940.4	59.25
953.8945	2252.2608	938.55	59.35
954.0279	2253.7266	940	59.8
954.1612	2255.1917	937.85	58.15
954.2946	2256.656	935.2	56.2
954.4279	2258.1197	932.1	53.7
954.5612	2259.5826	935.7	57.3
954.6944	2261.0447	935.65	54.6
954.8276	2262.5062	938.95	58.65
954.9608	2263.9669	941.1	58.5
955.094	2265.4269	937.2	56.55
955.2271	2266.8862	938	60.25
955.3602	2268.3448	935.1	56.7
955.4933	2269.8026	932	53
955.6264	2271.2598	931.4	52.15
955.7594	2272.7162	931.65	55.25
955.8924	2274.1719	933.65	54.25
956.0253	2275.6268	939.9	59.5
956.1583	2277.0811	939.85	59.95
956.2912	2278.5346	933.25	53.7
956.4241	2279.9874	931.35	53.75
956.5569	2281.4395	930.05	51.15
956.6897	2282.8908	933.9	48.05
956.8225	2284.3414	934.05	52.3
956.9553	2285.7914	933.95	56.8
957.088	2287.2406	940.15	57.7
957.2207	2288.689	940.85	60.95
957.3534	2290.1368	945.9	64.75
957.486	2291.5838	943.2	58.75
957.6186	2293.0302	945.95	66.2
957.7512	2294.4758	939.8	58.25
957.8838	2295.9206	934.55	52.05
958.0163	2297.3648	933.1	53.05
958.1488	2298.8082	935.8	56.7
958.2813	2300.251	935.8	57.8
958.4137	2301.693	938.6	56.95
958.5461	2303.1343	936.75	55.95
958.6785	2304.5748	932.3	53.15
958.8108	2306.0147	930.55	52.25
958.9432	2307.4538	930.25	48.2
959.0754	2308.8922	924.9	48.1
959.2077	2310.3299	929.85	52.2
959.3399	2311.7669	931.3	51.75
959.4721	2313.2031	931.35	53.05
959.6043	2314.6387	933.15	55.1
959.7365	2316.0735	933.7	54.2
959.8686	2317.5076	929.05	49.15
960.0006	2318.941	933.2	54.9
960.1327	2320.3737	939.55	60.05
960.2647	2321.8056	938.05	56.95
960.3967	2323.2369	935.35	54.05
960.5287	2324.6674	937.85	56.7
960.6606	2326.0972	940.9	61.1
960.7925	2327.5263	941.8	61.45
960.9244	2328.9547	943.75	64.8
961.0562	2330.3823	945.75	64.6
961.1881	2331.8092	948	67.25
961.3198	2333.2355	936.9	56
961.4516	2334.661	938.9	57.85
961.5833	2336.0858	934.9	53.1
961.715	2337.5098	933.3	53.3
961.8467	2338.9332	932.85	54.65
961.9783	2340.3558	933.65	49.5
962.1099	2341.7778	929.7	49.6
962.2415	2343.199	934.6	52.95
962.373	2344.6195	927.3	48.4
962.5045	2346.0393	929.95	51.8
962.636	2347.4583	931.65	53.7
962.7675	2348.8767	931.6	51.3
962.8989	2350.2943	938.35	57.3
963.0303	2351.7113	935.45	53.6
963.1617	2353.1275	938	57.15
963.293	2354.543	960.9	55.8
963.4243	2355.9578	936.85	55.6
963.5556	2357.3718	932.05	53.95
963.6868	2358.7852	930.55	48.5
963.818	2360.1978	929.9	49.45
963.9492	2361.6098	929.55	51
964.0803	2363.021	936.2	52.9
964.2114	2364.4315	933.45	54.25
964.3425	2365.8413	937.15	49.5
964.4736	2367.2504	929.15	49.6
964.6046	2368.6587	929.35	48.7
964.7356	2370.0664	930.85	49.05
964.8666	2371.4733	933.4	53.9
964.9975	2372.8795	931.65	51.15
965.1284	2374.285	931.8	50.85
965.2593	2375.6899	931.25	49.9
965.3901	2377.0939	932.65	52.5
965.5209	2378.4973	931.35	52.2
965.6517	2379.9	930.85	49.35
965.7825	2381.3019	933.5	54.4
965.9132	2382.7032	931.2	53.15
966.0439	2384.1037	927.4	48.85
966.1745	2385.5035	925.65	46.1
966.3051	2386.9027	924.15	44.4
966.4357	2388.3011	931.3	48.05
966.5663	2389.6987	929.9	49
966.6968	2391.0957	930.15	48.45
966.8273	2392.492	929.45	49.5
966.9578	2393.8876	931.8	49.5
967.0882	2395.2824	931.6	53.45
967.2186	2396.6765	932.4	50
967.349	2398.07	935.1	53.75
967.4793	2399.4627	940.05	57.2
967.6097	2400.8547	937.8	57.3
967.7399	2402.246	939.75	52.3
967.8702	2403.6366	933.65	53.3
968.0004	2405.0265	931.55	51.9
968.1306	2406.4156	931.55	45.4
968.2607	2407.8041	935.15	51.5
968.3909	2409.1918	936.4	52.3
968.521	2410.5789	933.7	52.9
968.651	2411.9652	937.6	55.35
968.781	2413.3508	934.1	53.05
968.911	2414.7358	934.9	52.05
969.041	2416.12	932.35	52.8
969.1709	2417.5035	931.25	49.9
969.3008	2418.8863	932.75	51.2
969.4307	2420.2684	933.15	52.7
969.5606	2421.6497	935.55	54.7
969.6904	2423.0304	932.9	50.85
969.8201	2424.4104	932.05	50.8
969.9499	2425.7896	930.3	49.85
970.0796	2427.1682	929.3	49.15
970.2093	2428.546	931.1	49.75
970.3389	2429.9232	933.85	49.55
970.4685	2431.2996	932.1	52.3
970.5981	2432.6753	931.25	51.65
970.7277	2434.0503	930.4	49.35
970.8572	2435.4246	933.75	52.45
970.9867	2436.7982	932.8	50.2
971.1161	2438.1711	930.7	50.25
971.2456	2439.5433	933.4	49.7
971.375	2440.9148	934.35	47.7
971.5043	2442.2856	926.8	47.25
971.6336	2443.6557	932	48.85
971.7629	2445.025	930.5	49.1
971.8922	2446.3937	930.2	46.6
972.0214	2447.7617	929.25	48.35
972.1506	2449.1289	927.05	49
972.2798	2450.4955	931.5	46.25
972.4089	2451.8613	927.05	47.8
972.538	2453.2265	925.4	45.2
972.6671	2454.5909	928.15	45.75
972.7961	2455.9546	927.85	46.05
972.9251	2457.3177	926.45	45.1
973.0541	2458.68	930.2	46.9
973.1831	2460.0416	928.25	47.9
973.312	2461.4025	926.05	41.8
973.4408	2462.7627	939.65	45.7
973.5697	2464.1222	922.25	42.95
973.6985	2465.4811	923.85	42.35
973.8273	2466.8392	922.4	42.65
973.956	2468.1966	927.65	44.7
974.0847	2469.5533	923.65	43.1
974.2134	2470.9093	925.4	44.6
974.3421	2472.2645	928.85	47.2
974.4707	2473.6191	923.15	44
974.5993	2474.973	925.5	43.95
974.7278	2476.3262	925.45	43.2
974.8563	2477.6787	926.1	47.1
974.9848	2479.0305	926.85	46.7
975.1132	2480.3816	927.5	46.2
975.2417	2481.7319	921.2	40.7
975.37	2483.0816	924.8	45.2
975.4984	2484.4306	922.4	41.35
975.6267	2485.7789	921	41.45
975.755	2487.1264	920.95	39.35
975.8833	2488.4733	920.95	41.1
976.0115	2489.8195	930	41.9
976.1397	2491.165	923.5	40.8
976.2678	2492.5097	921.35	39.5
976.3959	2493.8538	922.9	44.75
976.524	2495.1972	924	41.3
976.6521	2496.5398	925.6	44.2
976.7801	2497.8818	925.95	43.45
976.9081	2499.2231	925.65	46.5
977.036	2500.5637	926.1	42.9
977.164	2501.9035	928.2	45.6
977.2918	2503.2427	926.25	41.75
977.4197	2504.5812	922.3	41.35
977.5475	2505.919	926.2	43.45
977.6753	2507.256	921	43.35
977.8031	2508.5924	923.15	42.4
977.9308	2509.9281	929.05	42.2
978.0585	2511.2631	922.55	45.05
978.1861	2512.5974	921	40.2
978.3137	2513.9309	923.55	43.7
978.4413	2515.2638	945.95	42.75
978.5689	2516.596	924.8	43.5
978.6964	2517.9275	922.8	41.25
978.8239	2519.2583	924.7	43.55
978.9513	2520.5884	924.95	43.6
979.0788	2521.9178	921.5	41.95
979.2062	2523.2465	918.3	38.5
979.3335	2524.5745	919.65	38.35
979.4608	2525.9018	922.5	41.35
979.5881	2527.2284	923.15	45.4
979.7154	2528.5543	922.8	44.25
979.8426	2529.8796	920.8	40.65
979.9698	2531.2041	920.2	39.25
980.0969	2532.5279	918.05	38.75
980.224	2533.851	919.45	38.8
980.3511	2535.1735	920.3	41.45
980.4781	2536.4952	925.3	43.7
980.6052	2537.8163	926	46.75
980.7321	2539.1366	918.8	38.9
980.8591	2540.4562	924.2	43.2
980.986	2541.7752	923.65	40.75
981.1129	2543.0935	921.85	39.95
981.2397	2544.411	921.75	39.75
981.3665	2545.7279	923.5	43.85
981.4933	2547.0441	923.85	44.3
981.62	2548.3596	926.55	45.05
981.7467	2549.6744	920.85	39.8
981.8734	2550.9885	924.5	42.75
982.0001	2552.3019	922.9	42.4
982.1267	2553.6146	923.35	41.95
982.2532	2554.9266	919	35.65
982.3798	2556.2379	923.75	40.95
982.5063	2557.5485	919.8	38.9
982.6327	2558.8585	925	36.5
982.7592	2560.1677	926.35	44.6
982.8856	2561.4762	921.4	41.5
983.0119	2562.7841	923.55	40.15
983.1383	2564.0913	918.5	39.95
983.2646	2565.3977	922.8	43.2
983.3908	2566.7035	921.05	40.7
983.517	2568.0086	925.95	43.95
983.6432	2569.313	923.3	40.65
983.7694	2570.6167	927.45	44.4
983.8955	2571.9197	922.55	42.7
984.0216	2573.222	925.2	42.55
984.1476	2574.5236	922.05	41.25
984.2737	2575.8246	922.3	38.85
984.3996	2577.1248	922.1	38.45
984.5256	2578.4244	924.5	44.9
984.6515	2579.7232	917.3	35.75
984.7774	2581.0214	952.5	41.35
984.9032	2582.3189	920.5	40.15
985.029	2583.6157	924.45	38.4
985.1548	2584.9118	921.45	42.5
985.2806	2586.2072	920.7	40.35
985.4063	2587.5019	922.1	42.65
985.5319	2588.7959	921.4	40.4
985.6576	2590.0893	923.35	42.6
985.7832	2591.3819	919.85	41.3
985.9087	2592.6739	919.6	41.35
986.0343	2593.9652	924.45	42.85
986.1597	2595.2557	919.75	39.55
986.2852	2596.5456	920.2	38.3
986.4106	2597.8348	921.25	43.1
986.536	2599.1234	918.85	38.8
986.6614	2600.4112	920.15	39.5
986.7867	2601.6983	922.5	37.95
986.912	2602.9848	919.5	39.1
987.0372	2604.2705	925.2	39.4
987.1624	2605.5556	918.15	38.95
987.2876	2606.84	918.75	39.75
987.4128	2608.1237	919.4	37.55
987.5379	2609.4067	921.05	39.5
987.6629	2610.689	926.4	36.55
987.788	2611.9707	922.45	39.65
987.913	2613.2516	923.7	39.25
988.0379	2614.5319	919.5	40.5
988.1629	2615.8115	921.45	40.6
988.2878	2617.0903	922.15	41.95
988.4126	2618.3685	917.3	36.05
988.5375	2619.6461	919.8	41.05
988.6622	2620.9229	918.85	39.3
988.787	2622.199	919.45	35.9
988.9117	2623.4745	917.15	36
989.0364	2624.7493	917.1	37.7
989.161	2626.0234	919.6	40.2
989.2857	2627.2968	919.4	38.95
989.4102	2628.5695	917.5	38.35
989.5348	2629.8415	916.4	37.25
989.6593	2631.1128	919.65	39.55
989.7837	2632.3835	919.25	39.2
989.9082	2633.6535	913.6	34.7
990.0326	2634.9228	919.5	38.25
990.1569	2636.1914	917.55	38.8
990.2812	2637.4593	920.55	41.55
990.4055	2638.7265	916.85	35.65
990.5298	2639.9931	916.15	34.9
990.654	2641.259	919.35	38.65
990.7782	2642.5242	919.25	41.3
990.9023	2643.7887	914.9	34.2
991.0264	2645.0525	919.05	38.45
991.1505	2646.3156	931.35	35.4
991.2745	2647.5781	916.35	37.45
991.3985	2648.8398	916.6	37.1
991.5225	2650.1009	940.9	36.85
991.6464	2651.3613	917.4	36.75
991.7703	2652.6211	914.95	35.85
991.8942	2653.8801	916.1	37.05
992.018	2655.1385	919.8	37.05
992.1418	2656.3961	914.15	34.05
992.2655	2657.6531	914.75	35.6
992.3892	2658.9094	916.4	38.9
992.5129	2660.1651	915.8	35.2
992.6366	2661.42	914.9	35.2
992.7602	2662.6743	915.85	35.7
992.8837	2663.9279	916.6	36.15
993.0073	2665.1808	914.1	34.75
993.1307	2666.433	918.25	36.85
993.2542	2667.6846	912	33.1
993.3776	2668.9354	917.55	35.25
993.501	2670.1856	914.45	33.15
993.6244	2671.4351	915.3	38.4
993.7477	2672.6839	917.85	35.2
993.8709	2673.9321	914.75	35.5
993.9942	2675.1795	913.2	34.35
994.1174	2676.4263	914.3	33.55
994.2405	2677.6724	912.7	35.2
994.3637	2678.9179	914.4	32.85
994.4868	2680.1626	913.9	36.7
994.6098	2681.4067	914.85	36.7
994.7328	2682.6501	914.15	35.2
994.8558	2683.8928	918.55	38.6
994.9788	2685.1348	911.35	31.55
995.1017	2686.3761	915.25	35.8
995.2245	2687.6168	915.75	35.65
995.3474	2688.8568	911.8	34.1
995.4702	2690.0961	914.9	37.45
995.5929	2691.3348	914.9	34.95
995.7156	2692.5727	916	36.7
995.8383	2693.81	915.4	34.9
995.961	2695.0466	911.65	32.55
996.0836	2696.2826	917.5	35.35
996.2062	2697.5178	918.9	36.3
996.3287	2698.7524	917.45	37.7
996.4512	2699.9863	918.9	38.55
996.5737	2701.2195	915.35	36.65
996.6961	2702.452	918.5	38.85
996.8185	2703.6839	916.8	35.9
996.9408	2704.9151	913.4	34.85
997.0631	2706.1456	915.8	36.05
997.1854	2707.3755	915.3	35.3
997.3077	2708.6046	919.25	36.8
997.4299	2709.8331	915.25	35.25
997.552	2711.0609	919.85	41.1
997.6742	2712.2881	918.9	37.85
997.7963	2713.5145	915.5	32.3
997.9183	2714.7403	916.4	36.8
998.0403	2715.9654	916.5	34.9
998.1623	2717.1899	930.2	36.3
998.2842	2718.4136	916.9	38.8
998.4062	2719.6367	915	35.95
998.528	2720.8591	920.55	32.4
998.6498	2722.0809	915.55	36.15
998.7716	2723.3019	919.65	38.35
998.8934	2724.5223	915.2	35.9
999.0151	2725.7421	916.75	37.2
999.1368	2726.9611	917.45	38.1
999.2584	2728.1795	919.45	36
999.38	2729.3972	913.3	34
999.5016	2730.6142	929.05	37.5
999.6231	2731.8306	912.65	31.3
999.7446	2733.0462	917.55	34.8
999.8661	2734.2612	917.55	32.5
999.9875	2735.4756	913.35	32.8
1000.1089	2736.6892	914.25	32.4
1000.2302	2737.9022	911.85	33.25
1000.3515	2739.1145	913.45	36.1
1000.4728	2740.3262	919.45	31.55
1000.594	2741.5372	912.1	34.15
1000.7152	2742.7475	912.75	32.9
1000.8363	2743.9571	916.1	33.7
1000.9575	2745.1661	917.6	35
1001.0785	2746.3744	912.95	32.15
1001.1996	2747.582	910.95	32.85
1001.3206	2748.7889	913.65	33.6
1001.4415	2749.9952	911.85	32.5
1001.5625	2751.2008	913.05	37.1
1001.6833	2752.4057	912.2	30.05
1001.8042	2753.61	911.95	31.3
1001.925	2754.8136	914.6	33.85
1002.0458	2756.0165	909.6	28.7
1002.1665	2757.2188	908.65	29.45
1002.2872	2758.4204	910.5	32.45
1002.4078	2759.6213	912	28.5
1002.5285	2760.8215	918.35	37.2
1002.649	2762.0211	914.05	30.8
1002.7696	2763.22	916	35.75
1002.8901	2764.4182	912.25	31.6
1003.0106	2765.6158	908.55	29.8
1003.131	2766.8127	909.5	28.95
1003.2514	2768.009	908.75	31.1
1003.3717	2769.2045	906.5	27.05
1003.492	2770.3994	911.7	32.1
1003.6123	2771.5936	910.35	29.15
1003.7325	2772.7872	906.3	28.95
1003.8527	2773.9801	910.9	30.35
1003.9729	2775.1723	926.35	30.4
1004.093	2776.3639	907.1	30.95
1004.2131	2777.5548	911.35	29.85
1004.3331	2778.745	910.75	31
1004.4531	2779.9346	905.9	25.1
1004.5731	2781.1235	911.8	30.3
1004.693	2782.3117	908.6	30.7
1004.8129	2783.4992	908.5	30.75
1004.9328	2784.6861	906.95	28.3
1005.0526	2785.8723	910.7	31.7
1005.1723	2787.0579	910.45	31.25
1005.2921	2788.2428	906.6	28.1
1005.4118	2789.427	905.7	25.85
1005.5314	2790.6106	907.95	30.05
1005.651	2791.7935	907.6	27.8
1005.7706	2792.9757	906.4	29.5
1005.8902	2794.1573	910.45	29.4
1006.0097	2795.3382	907.4	30.15
1006.1291	2796.5184	906.35	30.65
1006.2485	2797.698	908.95	29.55
1006.3679	2798.8769	907.05	27.5
1006.4873	2800.0551	907.85	28.7
1006.6066	2801.2327	910.4	28.7
1006.7258	2802.4096	907.4	30.75
1006.8451	2803.5859	907.3	29.35
1006.9642	2804.7615	909.4	28.4
1007.0834	2805.9364	907.7	30.35
1007.2025	2807.1106	907.65	27.35
1007.3216	2808.2842	908.9	30.35
1007.4406	2809.4572	907.1	30.9
1007.5596	2810.6294	909.5	28.9
1007.6785	2811.801	906.15	29.3
1007.7975	2812.972	907.05	28.55
1007.9163	2814.1423	909.05	28.9
1008.0352	2815.3119	909.6	31.65
1008.154	2816.4808	907	27.3
1008.2727	2817.6491	911	31.9
1008.3914	2818.8167	906.3	26.5
1008.5101	2819.9837	914.1	31
1008.6288	2821.15	910.7	33.7
1008.7474	2822.3157	907.35	28.6
1008.8659	2823.4807	910.25	32.25
1008.9844	2824.645	912.85	32.85
1009.1029	2825.8086	910.1	31.7
1009.2214	2826.9716	907.95	30.9
1009.3398	2828.134	909.05	29.8
1009.4581	2829.2957	909.45	30.65
1009.5764	2830.4567	910	32.75
1009.6947	2831.617	912.4	31.85
1009.813	2832.7767	913.6	35.75
1009.9312	2833.9358	909.8	32.6
1010.0493	2835.0941	913.15	32.1
1010.1675	2836.2519	910.7	31.4
1010.2855	2837.4089	914	31.25
1010.4036	2838.5653	912.65	35.8
1010.5216	2839.7211	912.45	33.85
1010.6396	2840.8761	914.5	36.05
1010.7575	2842.0306	913.25	37.2
1010.8754	2843.1843	913.6	35.75
1010.9932	2844.3374	915.6	38
1011.111	2845.4899	916.05	38.35
1011.2288	2846.6417	914.35	37.35
1011.3465	2847.7928	911.9	36.85
1011.4642	2848.9433	914.35	35.95
1011.5818	2850.0931	914.7	36.75
1011.6995	2851.2422	917	38.5
1011.817	2852.3907	917.85	38.9
1011.9345	2853.5385	918.25	37.8
1012.052	2854.6857	925.75	40.3
1012.1695	2855.8323	917.65	42.3
1012.2869	2856.9781	918.05	40.3
1012.4042	2858.1233	920.55	40.3
1012.5216	2859.2679	921.35	44.2
1012.6389	2860.4118	922.7	43
1012.7561	2861.555	930.95	47.85
1012.8733	2862.6976	929.45	50.05
1012.9905	2863.8395	927.9	49.85
1013.1076	2864.9808	927.95	50.5
1013.2247	2866.1214	926.95	50.35
1013.3417	2867.2614	931.65	52.2
1013.4587	2868.4007	932.65	50.1
1013.5757	2869.5393	936.3	53.85
1013.6926	2870.6773	940.5	58.45
1013.8095	2871.8146	941.3	60.35
1013.9263	2872.9513	940.45	57.25
1014.0431	2874.0874	939.5	62.25
1014.1599	2875.2227	941.1	61.35
1014.2766	2876.3574	941.05	61.65
1014.3933	2877.4915	938.05	60.7
1014.51	2878.6249	944.95	67.4
1014.6266	2879.7577	944.05	66.35
1014.7431	2880.8898	951.1	60.7
1014.8596	2882.0212	942	65.2
1014.9761	2883.152	938.6	60.95
1015.0925	2884.2821	939.8	63.35
1015.2089	2885.4116	939.35	62.4
1015.3253	2886.5405	936.55	58.1
1015.4416	2887.6686	941.1	59.3
1015.5579	2888.7962	936.4	59.25
1015.6741	2889.923	938.55	60.95
1015.7903	2891.0493	936	58.55
1015.9065	2892.1748	932.45	53.8
1016.0226	2893.2997	935.8	58.55
1016.1387	2894.424	929.35	53.8
1016.2547	2895.5476	930.1	52.75
1016.3707	2896.6706	932.75	56.85
1016.4866	2897.7929	929.1	50.85
1016.6025	2898.9145	929.45	52.5
1016.7184	2900.0355	928.1	50.05
1016.8342	2901.1559	928.95	48.35
1016.95	2902.2756	929.5	51.25
1017.0658	2903.3946	929.25	51.75
1017.1815	2904.513	930.55	49.1
1017.2971	2905.6308	926.6	51.5
1017.4127	2906.7479	926.35	46.5
1017.5283	2907.8643	927.05	49.05
1017.6439	2908.9801	927.7	50.15
1017.7594	2910.0953	926.75	49.45
1017.8748	2911.2098	926.6	45.75
1017.9902	2912.3236	936.7	51.8
1018.1056	2913.4368	936.05	55.65
1018.2209	2914.5494	929.1	51.4
1018.3362	2915.6613	936.05	52.15
1018.4515	2916.7725	939.85	59.4
1018.5667	2917.8831	935.6	55.8
1018.6819	2918.9931	940.55	61.75
1018.797	2920.1024	939.8	61.5
1018.9121	2921.211	939.1	60.55
1019.0271	2922.319	943.4	64.45
1019.1421	2923.4264	945.2	67.95
1019.2571	2924.5331	948.35	71.3
1019.372	2925.6391	946.6	68.85
1019.4869	2926.7445	948.6	71.25
1019.6017	2927.8493	949.7	72
1019.7165	2928.9534	951.55	72.4
1019.8313	2930.0569	949.45	69.55
1019.946	2931.1597	949.65	69.6
1020.0606	2932.2619	946.15	70.1
1020.1753	2933.3634	943.85	68
1020.2899	2934.4643	948.95	64.05
1020.4044	2935.5645	946.15	63.45
1020.5189	2936.6641	942.8	60.95
1020.6334	2937.763	934.05	56.6
1020.7478	2938.8613	931.55	53.15
1020.8622	2939.959	935	50.1
1020.9765	2941.056	927.85	51.25
1021.0908	2942.1523	927.85	49.95
1021.2051	2943.248	924	46.35
1021.3193	2944.3431	924.35	47.65
1021.4334	2945.4375	920.1	42.2
1021.5476	2946.5313	918.45	41.45
1021.6617	2947.6244	917.25	40.65
1021.7757	2948.7169	915.75	35.4
1021.8897	2949.8087	917.5	40.8
1022.0037	2950.8999	913.2	35.75
1022.1176	2951.9904	913.1	34.3
1022.2315	2953.0803	913.25	36.65
1022.3453	2954.1696	914.8	36.75
1022.4591	2955.2582	914.4	38.1
1022.5728	2956.3462	912.65	34.25
1022.6865	2957.4335	914	34.4
1022.8002	2958.5202	913.95	35.6
1022.9138	2959.6062	913	36.8
1023.0274	2960.6916	909.85	32
1023.141	2961.7764	913.8	33.45
1023.2545	2962.8605	913.95	35.55
1023.3679	2963.9439	911.1	34.2
1023.4813	2965.0267	916.05	34.15
1023.5947	2966.1089	941.5	39.65
1023.708	2967.1905	914.65	39.6
1023.8213	2968.2714	914.7	38.2
1023.9346	2969.3516	917.55	41.4
1024.0478	2970.4312	923.9	39.7
1024.1609	2971.5102	916.7	37.95
1024.274	2972.5885	917.5	40.75
1024.3871	2973.6662	922.05	39.1
1024.5002	2974.7432	912.95	35.05
1024.6132	2975.8196	912.95	35.6
1024.7261	2976.8954	912.9	36.25
1024.839	2977.9705	912.95	36.1
1024.9519	2979.045	913.95	37
1025.0647	2980.1188	911.5	34.9
1025.1775	2981.192	907.65	31.85
1025.2902	2982.2645	907.65	29.5
1025.4029	2983.3364	910.2	33.6
1025.5156	2984.4077	906.45	26.6
1025.6282	2985.4783	910.75	26.65
1025.7407	2986.5483	905.95	29
1025.8532	2987.6177	902.85	25.1
1025.9657	2988.6864	903.1	26
1026.0782	2989.7545	902.55	24.15
1026.1906	2990.8219	900.45	23
1026.3029	2991.8887	902.25	22.2
1026.4152	2992.9548	902.35	24.45
1026.5275	2994.0204	902.55	27.1
1026.6397	2995.0852	897.9	23.35
1026.7519	2996.1495	900.4	22.55
1026.864	2997.2131	897.8	20.25
1026.9761	2998.276	897.9	19.8
1027.0882	2999.3383	896.75	19.5
1027.2002	3000.4	896.05	18.15
1027.3122	3001.4611	894.45	17.8
1027.4241	3002.5215	896	19.05
1027.536	3003.5812	894.65	16.95
1027.6478	3004.6404	897.25	21
1027.7596	3005.6989	896.85	17.75
1027.8714	3006.7567	896.1	20.4
1027.9831	3007.8139	912.7	19.05
1028.0947	3008.8705	895.6	19.8
1028.2064	3009.9264	911.4	14.8
1028.3179	3010.9818	893.4	16.65
1028.4295	3012.0364	897.1	17.6
1028.541	3013.0905	895.7	18.4
1028.6524	3014.1439	890.9	13.85
1028.7638	3015.1966	892.95	15.2
1028.8752	3016.2487	893.8	16.75
1028.9865	3017.3002	902.15	18.75
1029.0978	3018.3511	891.15	14
1029.209	3019.4013	892.35	15.25
1029.3202	3020.4509	892.5	15.45
1029.4314	3021.4998	893.5	15.25
1029.5425	3022.5481	893.15	15.55
1029.6535	3023.5958	893.35	16.35
1029.7645	3024.6428	892.85	15.05
1029.8755	3025.6892	892.1	16.45
1029.9864	3026.735	891.35	13.65
1030.0973	3027.7802	893.45	15.85
1030.2082	3028.8247	891.45	13.25
1030.319	3029.8685	892.05	14.25
1030.4297	3030.9118	892.75	14.25
1030.5404	3031.9544	890.8	13.3
1030.6511	3032.9963	892.35	15.5
1030.7617	3034.0376	890.4	14.7
1030.8723	3035.0783	891.15	12.4
1030.9829	3036.1184	891	11.7
1031.0934	3037.1578	889.15	12
1031.2038	3038.1966	890.45	12.35
1031.3142	3039.2348	888.1	13.2
1031.4246	3040.2723	897.55	14.45
1031.5349	3041.3092	889.05	12.7
1031.6452	3042.3455	889.6	11.75
1031.7554	3043.3811	891.4	12.5
1031.8656	3044.4161	892.75	14.8
1031.9758	3045.4505	890.8	15.4
1032.0859	3046.4842	891.65	14.7
1032.1959	3047.5173	889.1	13.05
1032.3059	3048.5498	889.8	12.35
1032.4159	3049.5816	890.15	12.65
1032.5258	3050.6128	891.85	13.95
1032.6357	3051.6434	891.75	12.2
1032.7455	3052.6734	890.15	10.95
1032.8553	3053.7027	890.55	11.3
1032.9651	3054.7314	887.85	11.75
1033.0748	3055.7594	887.65	10.7
1033.1845	3056.7868	892.35	13.75
1033.2941	3057.8136	889.15	13.05
1033.4037	3058.8398	889.15	12.2
1033.5132	3059.8653	888.55	13.85
1033.6227	3060.8902	888.3	11.2
1033.7321	3061.9145	889.95	13.75
1033.8415	3062.9381	887.9	12.55
1033.9509	3063.9612	905.75	14
1034.0602	3064.9835	892	14.6
1034.1694	3066.0053	892.5	14.9
1034.2787	3067.0264	887.7	10.25
1034.3878	3068.0469	888.95	12.7
1034.497	3069.0668	892.15	13.85
1034.6061	3070.086	889.6	13.85
1034.7151	3071.1046	893.3	14.5
1034.8241	3072.1226	890.2	10.2
1034.9331	3073.1399	887.2	11.15
1035.042	3074.1567	888.7	10.95
1035.1508	3075.1727	889.35	9.75
1035.2597	3076.1882	889.95	13.9
1035.3684	3077.203	889.2	12.75
1035.4772	3078.2173	893.2	14.7
1035.5859	3079.2308	891.55	12.1
1035.6945	3080.2438	890.5	12.55
1035.8031	3081.2561	887.1	9.7
1035.9117	3082.2678	888.8	12.65
1036.0202	3083.2789	890	12.5
1036.1286	3084.2893	888	11.35
1036.2371	3085.2991	889.45	12.75
1036.3454	3086.3083	892.5	13.9
1036.4538	3087.3169	890.45	12.95
1036.562	3088.3248	890.25	10.5
1036.6703	3089.3321	889.1	9.3
1036.7785	3090.3388	886	11.35
1036.8866	3091.3449	889.2	12.7
1036.9948	3092.3503	891.75	10.15
1037.1028	3093.3551	886.15	10.25
1037.2108	3094.3593	887.2	11.5
1037.3188	3095.3629	888.85	11.1
1037.4267	3096.3658	889	9.95
1037.5346	3097.3681	885.85	8.35
1037.6425	3098.3698	890.25	10.7
1037.7503	3099.3708	893.3	10.4
1037.858	3100.3713	888.6	11.15
1037.9657	3101.3711	884.95	9.5
1038.0734	3102.3702	1024.4	14.5
1038.181	3103.3688	890.4	9.8
1038.2886	3104.3667	884.6	9.15
1038.3961	3105.364	887.55	11.9
1038.5036	3106.3607	887.15	9.2
1038.611	3107.3568	887.85	11.05
1038.7184	3108.3522	888	11.65
1038.8257	3109.347	887.1	11.05
1038.933	3110.3412	890.75	9.2
1039.0403	3111.3348	886.3	9.85
1039.1475	3112.3277	888.35	10.9
1039.2547	3113.32	886.2	10.15
1039.3618	3114.3117	886.4	8
1039.4689	3115.3028	885.3	8.2
1039.5759	3116.2932	889.45	9.75
1039.6829	3117.2831	891.1	10
1039.7898	3118.2723	885	9.35
1039.8967	3119.2608	886.8	10.5
1040.0035	3120.2488	888.4	11.25
1040.1103	3121.2361	885.35	8.8
1040.2171	3122.2229	885.1	9.2
1040.3238	3123.209	887.1	9.65
1040.4305	3124.1944	884.95	8.8
1040.5371	3125.1793	886.35	6.2
1040.6437	3126.1635	886.65	10.7
1040.7502	3127.1471	887.9	12.45
1040.8567	3128.1301	886.85	10.8
1040.9631	3129.1125	887.05	10.45
1041.0695	3130.0942	886.8	9.1
1041.1759	3131.0753	893.75	7.6
1041.2822	3132.0558	886.5	7.3
1041.3884	3133.0357	887.4	8.9
1041.4946	3134.015	885.5	6.5
1041.6008	3134.9936	888.5	8.3
1041.7069	3135.9716	907.4	9.35
1041.813	3136.949	884.7	6.95
1041.919	3137.9258	903.95	10
1042.025	3138.902	890	8.6
1042.1309	3139.8775	883.9	7.55
1042.2368	3140.8524	885.25	8.55
1042.3427	3141.8267	885.95	8.05
1042.4485	3142.8004	885.9	10
1042.5542	3143.7735	889.2	6.55
1042.6599	3144.7459	888.35	8
1042.7656	3145.7178	884.05	6.45
1042.8712	3146.689	883.95	10.25
1042.9768	3147.6596	887.4	8.05
1043.0823	3148.6295	883.25	9.15
1043.1878	3149.5989	885.55	9.55
1043.2932	3150.5676	887.3	11.75
1043.3986	3151.5357	884.75	10.6
1043.5039	3152.5032	887	8.35
1043.6092	3153.4701	886.25	9.75
1043.7145	3154.4364	888.6	8.5
1043.8197	3155.402	885.1	8.75
1043.9248	3156.367	887.9	9.5
1044.03	3157.3315	910.9	8.5
1044.135	3158.2952	884.65	9.6
1044.24	3159.2584	884.75	6.75
1044.345	3160.221	885.5	7.8
1044.4499	3161.1829	885.2	9.55
1044.5548	3162.1442	883.7	6.8
1044.6596	3163.105	884.55	9.75
1044.7644	3164.065	884.3	6
1044.8692	3165.0245	888.55	9.45
1044.9739	3165.9834	886.55	11.15
1045.0785	3166.9416	885.05	7.4
1045.1831	3167.8993	887.35	9.25
1045.2877	3168.8563	884.95	7.8
1045.3922	3169.8127	883.3	6.75
1045.4966	3170.7684	884.3	9
1045.6011	3171.7236	885.45	9.2
1045.7054	3172.6782	886	8.6
1045.8098	3173.6321	884.55	5.65
1045.914	3174.5854	887.9	7.6
1046.0183	3175.5381	885.6	8.8
1046.1224	3176.4902	886.1	10.2
1046.2266	3177.4417	886.05	10.15
1046.3307	3178.3926	883.6	8.1
1046.4347	3179.3428	885.45	9.45
1046.5387	3180.2924	885.25	10.5
1046.6427	3181.2415	884.5	8.1
1046.7466	3182.1899	886.25	7.6
1046.8504	3183.1377	884.85	8.85
1046.9542	3184.0848	887.85	7.1
1047.058	3185.0314	884.4	7.5
1047.1617	3185.9773	886.6	8.35
1047.2654	3186.9227	885.75	8.75
1047.369	3187.8674	883.7	8.65
1047.4726	3188.8115	889.5	7
1047.5761	3189.755	883.7	8.75
1047.6796	3190.6979	884.15	7.25
1047.783	3191.6402	880.5	3
1047.8864	3192.5818	884.25	8.85
1047.9898	3193.5229	895.05	5.55
1048.0931	3194.4633	882.85	6.85
1048.1963	3195.4031	884.4	7.45
1048.2995	3196.3423	884.35	9.75
1048.4027	3197.2809	883.8	8.7
1048.5058	3198.2189	885.35	9.75
1048.6089	3199.1563	890.25	6.45
1048.7119	3200.0931	882.85	8.55
1048.8148	3201.0292	883.7	6.75
1048.9178	3201.9648	882.55	7.3
1049.0206	3202.8997	887.25	5.8
1049.1235	3203.834	885.1	9.65
1049.2262	3204.7677	884.05	6.65
1049.329	3205.7008	885.35	6.9
1049.4317	3206.6333	882.1	8.05
1049.5343	3207.5652	885.1	6.55
1049.6369	3208.4964	883.3	6.7
1049.7394	3209.4271	882.1	5.6
1049.8419	3210.3571	883.15	5.85
1049.9444	3211.2865	884.1	6.85
1050.0468	3212.2154	885.85	9.8
1050.1491	3213.1436	884.2	3.8
1050.2514	3214.0712	892.55	10.65
1050.3537	3214.9982	885.9	8.3
1050.4559	3215.9246	883.8	6.2
1050.5581	3216.8503	882.3	6.5
1050.6602	3217.7755	882.55	4.85
1050.7623	3218.7001	881.35	3.95
1050.8643	3219.624	885.6	6.8
1050.9663	3220.5473	884.25	8.55
1051.0682	3221.4701	885.35	7.9
1051.1701	3222.3922	884.75	5.7
1051.2719	3223.3137	884.4	8.15
1051.3737	3224.2346	882.7	6.8
1051.4754	3225.1549	882.05	6.65
1051.5771	3226.0746	883.45	6.8
1051.6788	3226.9937	882.7	6.55
1051.7804	3227.9121	879.65	4.2
1051.8819	3228.83	881.4	4.85
1051.9834	3229.7473	883.75	6.75
1052.0849	3230.6639	884.7	9.3
1052.1863	3231.5799	882.6	6.45
1052.2876	3232.4954	884.05	7.6
1052.3889	3233.4102	882.05	6.25
1052.4902	3234.3244	882.2	6.9
1052.5914	3235.238	884	8.75
1052.6926	3236.151	908.35	6.2
1052.7937	3237.0634	881.95	7.95
1052.8948	3237.9752	881.35	4.5
1052.9958	3238.8864	886.05	9.25
1053.0968	3239.797	883.65	7.1
1053.1977	3240.7069	884.9	6.2
1053.2986	3241.6163	884.2	6.3
1053.3994	3242.5251	881.6	6.8
1053.5002	3243.4332	882.65	7.65
1053.6009	3244.3408	883.85	6.3
1053.7016	3245.2477	880.15	2.45
1053.8022	3246.154	884.45	8.2
1053.9028	3247.0598	882.7	4.8
1054.0034	3247.9649	883.55	6.2
1054.1039	3248.8694	881.3	6.2
1054.2043	3249.7733	881.45	3.1
1054.3047	3250.6766	883.4	10.2
1054.4051	3251.5793	882.9	4.95
1054.5054	3252.4814	883.55	8.05
1054.6056	3253.3829	880.3	5.1
1054.7058	3254.2838	882.6	5
1054.806	3255.1841	880.95	6.1
1054.9061	3256.0838	880.1	3.25
1055.0061	3256.9829	879.95	4.5
1055.1062	3257.8814	885.3	7.3
1055.2061	3258.7792	885.6	6
1055.306	3259.6765	883.45	5.35
1055.4059	3260.5731	881.35	6.55
1055.5057	3261.4692	884.55	8.1
1055.6055	3262.3647	882.4	6.9
1055.7052	3263.2595	882.15	4.95
1055.8049	3264.1538	882.1	7.35
1055.9045	3265.0474	881.5	3.3
1056.0041	3265.9404	881	4.9
1056.1036	3266.8329	880.4	4.9
1056.2031	3267.7247	890.25	4.35
1056.3025	3268.616	881.1	7
1056.4019	3269.5066	881.5	3.7
1056.5013	3270.3966	881.3	0.95
1056.6005	3271.286	880.2	4.8
