Software Version:	3.9.2.0
Unit SN:	10000200
Spectrometer SN:	6960
Date:	3/26/2024 2:36:29 PM
Data Line Index:	25
Spectral Points:	2048
Integration time (ms):	125
Averages:	20
Delay (ms):	30000
Sequence Number:	1
Processing:	dark subtract
Laser Power (mW):	305
Laser Current (mA):	821
Laser Diode Temp (C):	25
Laser Case Temp (C):	27.8
System Temp (C):	27.9
Spectrometer Temp (C):	25.8
CCD Temp (C):	0.004
Secondary Temp (C):	20.01
Heatsink Temp (C):	23.531
CCDPCB Temp (C):	37.23
SecondaryPCB Temp (C):	34.284

Wavelength	RamanShift	Raw Counts	Dark Subtracted
787.061	30.1047	672.25	262.65
787.2016	32.3739	684.75	275.7
787.3422	34.6426	707.9	297.5
787.4828	36.9109	723.6	311.4
787.6235	39.1787	745.3	329.05
787.7642	41.4461	778.1	357.3
787.9049	43.7131	806.7	381.8
788.0456	45.9796	831.75	404.45
788.1863	48.2456	861.15	429.8
788.3271	50.5112	891.05	455.65
788.4679	52.7764	915.95	478.2
788.6087	55.0411	955.1	512.95
788.7496	57.3054	989.75	540.35
788.8904	59.5692	1025.7	575.35
789.0313	61.8326	1067.85	614.7
789.1722	64.0955	1111.9	654.15
789.3132	66.3579	1171.65	708.85
789.4541	68.6199	1237.45	772.75
789.5951	70.8815	1342.65	876.4
789.7361	73.1426	1570.25	1098.55
789.8771	75.4032	2131.7	1654.3
790.0181	77.6634	3568.8	3085
790.1592	79.9231	7164.6	6672
790.3003	82.1824	15466.65	14955.6
790.4414	84.4412	37323.9	36781.6
790.5825	86.6995	64681.9	64094.9
790.7237	88.9574	65535	64907.2
790.8648	91.2148	65535	64874.65
791.006	93.4717	65535	64855.55
791.1472	95.7282	65535	64848.9
791.2885	97.9842	65535	64841.75
791.4297	100.2398	65535	64841.95
791.571	102.4949	65535	64837.6
791.7123	104.7495	65535	64834.8
791.8536	107.0036	65535	64832.35
791.9949	109.2573	65535	64832.9
792.1363	111.5105	65535	64830.15
792.2777	113.7632	65535	64829.55
792.4191	116.0154	65535	64819.85
792.5605	118.2672	65535	64823.95
792.7019	120.5185	65535	64824.75
792.8434	122.7693	65535	64818.4
792.9849	125.0197	65535	64820.2
793.1264	127.2696	65535	64816.6
793.2679	129.519	65535	64809.95
793.4094	131.7679	65535	64807.1
793.551	134.0163	65535	64801.65
793.6926	136.2642	65535	64800.95
793.8342	138.5117	65535	64796.6
793.9758	140.7587	65535	64797.55
794.1175	143.0052	65535	64793.4
794.2591	145.2512	65535	64794.3
794.4008	147.4967	65535	64794.95
794.5425	149.7417	65535	64793.65
794.6842	151.9863	65535	64789.3
794.826	154.2304	65535	64784.05
794.9677	156.4739	65535	64781.55
795.1095	158.717	65535	64784.45
795.2513	160.9596	65535	64778.3
795.3931	163.2017	65535	64772.4
795.535	165.4433	65535	64769.95
795.6768	167.6844	65535	64768.1
795.8187	169.925	65535	64766.9
795.9606	172.1651	65535	64772.55
796.1025	174.4047	65535	64769.4
796.2445	176.6439	65535	64768.9
796.3864	178.8825	65535	64758.25
796.5284	181.1206	65535	64755.15
796.6704	183.3582	65535	64750.05
796.8124	185.5954	65535	64747.95
796.9544	187.832	65535	64747.95
797.0965	190.0681	65535	64739.95
797.2386	192.3037	65535	64742.6
797.3806	194.5388	65535	64736.95
797.5228	196.7734	65535	64734.05
797.6649	199.0075	65535	64734.15
797.807	201.2411	65535	64728.95
797.9492	203.4742	65535	64730
798.0914	205.7068	65535	64729.15
798.2336	207.9389	65535	64725.85
798.3758	210.1704	65535	64724.9
798.518	212.4015	65535	64721.35
798.6603	214.632	65535	64724.55
798.8025	216.862	65535	64736.4
798.9448	219.0915	65535	64740.75
799.0871	221.3205	65535	64745.35
799.2294	223.549	65535	64742.85
799.3718	225.777	65535	64745.4
799.5141	228.0044	65535	64742.85
799.6565	230.2314	65535	64747.5
799.7989	232.4578	65535	64742.3
799.9413	234.6837	65535	64736.85
800.0837	236.909	65535	64738.2
800.2262	239.1339	65535	64709.35
800.3687	241.3582	65535	64719.1
800.5111	243.582	65535	64688.25
800.6536	245.8053	65535	64708.95
800.7961	248.0281	65535	64705.9
800.9387	250.2503	65535	64703.9
801.0812	252.472	65535	64701.15
801.2238	254.6932	65535	64699.75
801.3664	256.9139	65535	64703.75
801.509	259.134	65535	64693.3
801.6516	261.3536	65535	64695.6
801.7942	263.5727	65535	64692.8
801.9369	265.7912	65535	64696.05
802.0795	268.0092	65535	64692.7
802.2222	270.2267	65535	64695.9
802.3649	272.4436	65535	64693.75
802.5076	274.6601	65535	64684.4
802.6504	276.8759	65535	64691.6
802.7931	279.0913	65535	64690.25
802.9359	281.3061	65535	64685.2
803.0787	283.5204	65535	64687.15
803.2215	285.7341	65535	64679.4
803.3643	287.9473	65535	64672.15
803.5071	290.16	65535	64677.1
803.6499	292.3721	65535	64680.3
803.7928	294.5837	65535	64676.35
803.9357	296.7947	65535	64677.5
804.0786	299.0052	65535	64681.15
804.2215	301.2152	65535	64677.5
804.3644	303.4246	65535	64682.6
804.5074	305.6334	65535	64685.4
804.6503	307.8418	65535	64679.8
804.7933	310.0495	65535	64678.95
804.9363	312.2568	65535	64677.15
805.0793	314.4635	65535	64673.55
805.2223	316.6696	65535	64675.7
805.3653	318.8752	65535	64667.7
805.5084	321.0802	65535	64670.1
805.6514	323.2847	65535	64672.55
805.7945	325.4887	65535	64675.4
805.9376	327.692	65535	64666.35
806.0807	329.8949	65535	64667.45
806.2238	332.0972	65535	64668.75
806.367	334.2989	65535	64665.8
806.5101	336.5001	65535	64665.6
806.6533	338.7007	65535	64663.2
806.7965	340.9008	65535	64663.55
806.9397	343.1003	65535	64661.1
807.0829	345.2992	65535	64656.65
807.2261	347.4976	65535	64659.1
807.3693	349.6955	65535	64653.7
807.5126	351.8927	65535	64655.15
807.6559	354.0895	65535	64641.3
807.7991	356.2856	65535	64654.25
807.9424	358.4812	65535	64653.75
808.0857	360.6763	65535	64652.65
808.2291	362.8707	65535	64653.55
808.3724	365.0646	65535	64647.65
808.5158	367.258	65535	64647.65
808.6591	369.4508	65535	64647.8
808.8025	371.643	65535	64645.8
808.9459	373.8346	65535	64638.45
809.0893	376.0257	65535	64638.85
809.2327	378.2162	65535	64639.85
809.3762	380.4062	65535	64640.7
809.5196	382.5956	65535	64639.5
809.6631	384.7844	65535	64642.7
809.8066	386.9726	65535	64637.7
809.9501	389.1603	65535	64642.45
810.0936	391.3474	65535	64597.65
810.2371	393.5339	65535	64641.7
810.3806	395.7199	65535	64645.05
810.5241	397.9052	65535	64649.9
810.6677	400.09	65535	64647.15
810.8113	402.2743	65535	64650.85
810.9548	404.4579	65535	64654.3
811.0984	406.641	65535	64647.85
811.2421	408.8235	65535	64650.6
811.3857	411.0054	65535	64644
811.5293	413.1868	65535	64643.85
811.673	415.3675	65535	64645.95
811.8166	417.5477	65535	64643.3
811.9603	419.7273	65535	64640.25
812.104	421.9064	65535	64634.45
812.2477	424.0848	65535	64639.8
812.3914	426.2627	65535	64636.1
812.5351	428.4399	65535	64636.05
812.6788	430.6166	65535	64629.35
812.8226	432.7928	65535	64631.05
812.9663	434.9683	65535	64636.45
813.1101	437.1432	65535	64634.5
813.2539	439.3176	65535	64638.75
813.3977	441.4914	65535	64638.8
813.5415	443.6645	65535	64635.1
813.6853	445.8371	65535	64629.8
813.8291	448.0091	65535	64629.85
813.973	450.1806	65535	64636.4
814.1168	452.3514	65535	64634.85
814.2607	454.5216	65535	64629.85
814.4046	456.6913	65535	64633.85
814.5485	458.8603	65535	64637.75
814.6924	461.0288	65535	64636
814.8363	463.1967	65535	64637.4
814.9802	465.3639	65535	64633.6
815.1241	467.5306	65535	64633.65
815.2681	469.6967	65535	64634.75
815.412	471.8622	65535	64637.45
815.556	474.0271	65535	64634.1
815.7	476.1914	65535	64628.65
815.844	478.3551	65535	64630.3
815.988	480.5182	65535	64635.9
816.132	482.6807	65535	64638.7
816.276	484.8426	65535	64644.4
816.4201	487.0039	65535	64635.65
816.5641	489.1647	65535	64632.95
816.7082	491.3248	65535	64627.6
816.8522	493.4843	65535	64632.6
816.9963	495.6432	65535	64631.05
817.1404	497.8015	65535	64626.2
817.2845	499.9592	65535	64621.9
817.4286	502.1163	65535	64622.6
817.5727	504.2728	65535	64628.9
817.7168	506.4287	65535	64638.9
817.861	508.5839	65535	64637.3
818.0051	510.7386	65535	64630.45
818.1493	512.8927	65535	64617.05
818.2935	515.0461	65535	64627.25
818.4377	517.199	65535	64618.75
818.5818	519.3512	65535	64622.7
818.726	521.5029	65535	64620.25
818.8703	523.6539	65535	64627.1
819.0145	525.8043	65535	64625
819.1587	527.9541	65535	64618
819.303	530.1033	65535	64624.1
819.4472	532.2519	65535	64623.9
819.5915	534.3999	65535	64621.3
819.7357	536.5472	65535	64625.4
819.88	538.694	65535	64624.45
820.0243	540.8401	65535	64618
820.1686	542.9856	65535	64612.85
820.3129	545.1305	65535	64609.4
820.4572	547.2748	65535	64606.75
820.6016	549.4185	65535	64607.5
820.7459	551.5615	65535	64604.4
820.8902	553.704	65535	64611.25
821.0346	555.8458	65535	64613.3
821.1789	557.987	65535	64616.35
821.3233	560.1276	65535	64610
821.4677	562.2675	65535	64607.35
821.6121	564.4069	65535	64612.3
821.7565	566.5456	65535	64612.85
821.9009	568.6837	65535	64616
822.0453	570.8212	65535	64616.7
822.1897	572.958	65535	64615.75
822.3342	575.0942	65535	64621.5
822.4786	577.2299	65535	64624.35
822.6231	579.3648	65535	64631.5
822.7675	581.4992	65535	64638.05
822.912	583.6329	65535	64637.75
823.0565	585.766	65535	64633.55
823.201	587.8985	65535	64627.85
823.3454	590.0304	65535	64596.25
823.4899	592.1616	65535	64616.3
823.6345	594.2922	65535	64614.5
823.779	596.4222	65535	64612.2
823.9235	598.5515	65535	64613.65
824.068	600.6802	65535	64609.85
824.2126	602.8083	65535	64615.8
824.3571	604.9358	65535	64612.6
824.5017	607.0626	65535	64611.15
824.6462	609.1888	65535	64599.7
824.7908	611.3144	65535	64603.1
824.9354	613.4393	65535	64601.85
825.08	615.5636	65535	64601.7
825.2246	617.6873	65535	64610.9
825.3692	619.8103	65535	64607.1
825.5138	621.9327	65535	64611.45
825.6584	624.0544	65535	64612.6
825.803	626.1756	65535	64613.8
825.9477	628.2961	65535	64608.15
826.0923	630.4159	65535	64607.1
826.237	632.5351	65535	64608.55
826.3816	634.6537	65535	64607.7
826.5263	636.7716	65535	64602.75
826.6709	638.8889	65535	64602.75
826.8156	641.0056	65535	64598.5
826.9603	643.1216	65535	64601.3
827.105	645.237	65535	64601.75
827.2497	647.3518	65535	64607.3
827.3944	649.4659	65535	64614.85
827.5391	651.5793	65535	64610.65
827.6838	653.6922	65535	64612.55
827.8285	655.8043	65535	64610.65
827.9733	657.9159	65535	64609.5
828.118	660.0268	65535	64607.35
828.2627	662.137	65535	64606.55
828.4075	664.2466	65535	64600.4
828.5522	666.3556	65535	64604.55
828.697	668.4639	65535	64605.65
828.8418	670.5716	65535	64608.95
828.9865	672.6786	65535	64602.65
829.1313	674.785	65535	64598.8
829.2761	676.8907	65535	64607.3
829.4209	678.9958	65535	64609.7
829.5657	681.1002	65535	64610
829.7105	683.204	65535	64597.15
829.8553	685.3072	65535	64598.65
830.0001	687.4097	65535	64604.85
830.1449	689.5115	65535	64598.4
830.2898	691.6127	65535	64606.25
830.4346	693.7132	65535	64603.8
830.5794	695.8131	65535	64584.7
830.7243	697.9123	65535	64601.55
830.8691	700.0109	65535	64596.6
831.014	702.1089	65535	64602
831.1588	704.2061	65535	64601
831.3037	706.3028	65535	64596.9
831.4486	708.3987	65535	64599.8
831.5935	710.4941	65535	64602.55
831.7383	712.5887	65535	64603.35
831.8832	714.6827	65535	64596.45
832.0281	716.7761	65535	64602
832.173	718.8688	65535	64601.05
832.3179	720.9608	65535	64593.45
832.4628	723.0522	65535	64593.95
832.6077	725.1429	65535	64599.6
832.7527	727.233	65535	64597.5
832.8976	729.3224	65535	64596.75
833.0425	731.4112	65535	64599.15
833.1874	733.4993	65535	64595.5
833.3324	735.5867	65535	64599.95
833.4773	737.6735	65535	64599.15
833.6222	739.7596	65535	64594.9
833.7672	741.845	65535	64597.45
833.9122	743.9298	65535	64593.7
834.0571	746.014	65535	64599.15
834.2021	748.0974	65535	64595.8
834.347	750.1802	65535	64594
834.492	752.2624	65535	64590.25
834.637	754.3439	65535	64593.7
834.782	756.4247	65535	64584.8
834.9269	758.5048	65535	64593.9
835.0719	760.5843	65535	64596.45
835.2169	762.6631	65535	64592.55
835.3619	764.7413	65535	64595.6
835.5069	766.8188	65535	64592.65
835.6519	768.8956	65535	64591.55
835.7969	770.9718	65535	64595.75
835.9419	773.0473	65535	64597.4
836.0869	775.1221	65535	64595.65
836.232	777.1962	65535	64597.7
836.377	779.2697	65535	64591.95
836.522	781.3426	65535	64572.95
836.667	783.4147	65535	64592.55
836.8121	785.4862	65535	64596.4
836.9571	787.557	65535	64594.8
837.1021	789.6271	65535	64590.45
837.2472	791.6966	65535	64592.15
837.3922	793.7654	65535	64593
837.5373	795.8335	65535	64595.65
837.6823	797.901	65535	64595.1
837.8274	799.9678	65535	64590.6
837.9724	802.0339	65535	64595.45
838.1175	804.0993	65535	64581.25
838.2626	806.1641	65535	64593.35
838.4076	808.2282	65535	64594.75
838.5527	810.2916	65535	64591.75
838.6978	812.3544	65535	64597.4
838.8428	814.4164	65535	64595.9
838.9879	816.4778	65535	64585.4
839.133	818.5385	65535	64594.05
839.2781	820.5986	65535	64593.8
839.4232	822.658	65535	64590.7
839.5682	824.7166	65535	64594.95
839.7133	826.7747	65535	64592.35
839.8584	828.832	65535	64590.95
840.0035	830.8886	65535	64591.95
840.1486	832.9446	65535	64588.9
840.2937	834.9999	65535	64592.95
840.4388	837.0545	65535	64586.9
840.5839	839.1085	65535	64589.4
840.729	841.1618	65535	64589.7
840.8741	843.2143	65535	64591.25
841.0192	845.2662	65535	64589.4
841.1643	847.3175	65535	64594.3
841.3095	849.368	65535	64591.55
841.4546	851.4179	65535	64588.25
841.5997	853.467	65535	64591.4
841.7448	855.5155	65535	64588.55
841.8899	857.5633	65535	64590.85
842.0351	859.6105	65535	64591.65
842.1802	861.6569	65535	64590.9
842.3253	863.7027	65535	64591.15
842.4704	865.7478	65535	64587.6
842.6156	867.7922	65535	64593.6
842.7607	869.8359	65535	64588.5
842.9058	871.8789	65535	64591.35
843.0509	873.9212	65535	64557.6
843.1961	875.9629	65535	64588
843.3412	878.0039	65535	64587.8
843.4863	880.0441	65535	64594.85
843.6315	882.0837	65535	64591.6
843.7766	884.1226	65535	64588.7
843.9218	886.1609	65535	64593.55
844.0669	888.1984	65535	64590.5
844.212	890.2352	65535	64590
844.3572	892.2714	65535	64584.6
844.5023	894.3069	65535	64586.9
844.6475	896.3416	65535	64585.9
844.7926	898.3757	65535	64589.7
844.9377	900.4091	65519.7	64576.15
845.0829	902.4418	65535	64583.35
845.228	904.4739	65534.35	64585.95
845.3732	906.5052	65534.55	64588.75
845.5183	908.5358	65523.05	64571.65
845.6635	910.5658	65518.85	64571
845.8086	912.595	65519.3	64570.95
845.9538	914.6236	65450.45	64500
846.0989	916.6515	65533.95	64587.35
846.2441	918.6786	65440.9	64492.05
846.3892	920.7051	65485.7	64533.1
846.5344	922.7309	65448	64500.7
846.6795	924.756	65480.6	64533.75
846.8246	926.7804	65441.55	64494.35
846.9698	928.8041	65224.35	64275.1
847.1149	930.8272	65405.15	64457.2
847.2601	932.8495	65404.85	64461.45
847.4052	934.8711	65236.6	64285.55
847.5504	936.892	65023.4	64076.95
847.6955	938.9123	65170.45	64218.35
847.8407	940.9318	64972.7	64026.85
847.9858	942.9506	64915.15	63965.85
848.131	944.9688	64953.3	64005.8
848.2761	946.9862	64274.7	63329.35
848.4213	949.003	64626	63680.15
848.5664	951.019	63902.95	62955.9
848.7115	953.0344	64072.35	63125.7
848.8567	955.0491	63966.55	63020
849.0018	957.063	64264.7	63319.6
849.147	959.0763	64338.25	63387.1
849.2921	961.0888	63606.25	62656.45
849.4373	963.1007	64141	63195.4
849.5824	965.1119	64138.35	63196.95
849.7275	967.1223	63610.6	62674.75
849.8727	969.1321	64214.35	63280.55
850.0178	971.1412	63385.8	62447.75
850.1629	973.1495	63106.45	62162.25
850.3081	975.1572	63521.85	62538.85
850.4532	977.1641	63141.5	62192.45
850.5983	979.1704	63046.05	62098.7
850.7435	981.1759	63126.4	62173.45
850.8886	983.1808	62618.3	61675.65
851.0337	985.1849	62687.6	61731.95
851.1788	987.1884	62897.05	61950.05
851.324	989.1911	63341.35	62395.7
851.4691	991.1932	62055.75	61111.7
851.6142	993.1945	62398.6	61452.45
851.7593	995.1951	62736.6	61790.15
851.9045	997.1951	61972.1	61020.6
852.0496	999.1943	61706.1	60761.7
852.1947	1001.1928	61495.4	60550.85
852.3398	1003.1906	61708.45	60764.65
852.4849	1005.1877	60677.6	59730.95
852.63	1007.1841	60392.75	59448.6
852.7751	1009.1798	60380.15	59435.6
852.9202	1011.1748	60250.15	59303.6
853.0653	1013.1691	59973.8	59028.9
853.2104	1015.1627	58278.9	57333.8
853.3555	1017.1556	58739.45	57796.2
853.5006	1019.1477	58976.8	58031.8
853.6457	1021.1392	58175.95	57239.1
853.7908	1023.1299	57243.4	56306.9
853.9359	1025.12	57761.55	56828.6
854.081	1027.1093	57259.4	56337.55
854.2261	1029.0979	57238.9	56316.7
854.3712	1031.0859	57124.7	56200.05
854.5163	1033.0731	56299.15	55364.85
854.6613	1035.0596	56431.2	55493.95
854.8064	1037.0454	56215.2	55276.6
854.9515	1039.0304	55709.5	54769.35
855.0965	1041.0148	55025.8	54084.9
855.2416	1042.9985	55064.1	54119.65
855.3867	1044.9814	55203.9	54262.95
855.5317	1046.9636	54535.75	53590.65
855.6768	1048.9452	54477.8	53537.25
855.8219	1050.926	54342.45	53401.5
855.9669	1052.9061	54284.75	53342.65
856.112	1054.8855	54251.9	53311.7
856.257	1056.8642	53768.65	52827.75
856.4021	1058.8421	53638.3	52687.9
856.5471	1060.8194	53588.6	52646.6
856.6921	1062.7959	53379.2	52440.1
856.8372	1064.7717	53437.95	52496.9
856.9822	1066.7469	53175.3	52233.4
857.1272	1068.7213	53100.2	52156.05
857.2723	1070.695	52827.65	51883.45
857.4173	1072.6679	52341.25	51400.4
857.5623	1074.6402	52425.55	51485
857.7073	1076.6117	52191.05	51242.7
857.8523	1078.5826	52123.15	51178.05
857.9973	1080.5527	52036.7	51092.8
858.1423	1082.5221	51947.05	51004.2
858.2873	1084.4908	52095.75	51158.15
858.4323	1086.4587	52119.3	51177.1
858.5773	1088.426	52106.1	51163.15
858.7223	1090.3925	51932.45	50986.3
858.8673	1092.3584	51759	50815.1
859.0123	1094.3235	51240.05	50299.3
859.1573	1096.2879	50982	50041.95
859.3022	1098.2515	50838.95	49898
859.4472	1100.2145	50775	49835.85
859.5922	1102.1767	50580.3	49635.45
859.7371	1104.1382	50673.35	49735.4
859.8821	1106.099	50675.6	49730.85
860.027	1108.0591	50632.3	49692.55
860.172	1110.0185	50465.1	49520.55
860.3169	1111.9771	50506.3	49566.25
860.4619	1113.9351	50027.15	49082.65
860.6068	1115.8923	49440.65	48498.55
860.7517	1117.8488	48996.3	48053.5
860.8967	1119.8045	48419.85	47481.8
861.0416	1121.7596	48300.95	47361.7
861.1865	1123.7139	48029.25	47090.55
861.3314	1125.6675	47940.6	47003.1
861.4763	1127.6204	47930.85	46991.5
861.6212	1129.5726	47727.6	46784.55
861.7661	1131.524	47690.3	46748.05
861.911	1133.4748	47717.05	46778
862.0559	1135.4248	47544.05	46604.8
862.2008	1137.3741	47448.45	46507.7
862.3457	1139.3226	47284.35	46345.05
862.4905	1141.2705	47165.4	46224.55
862.6354	1143.2176	46868.65	45923.25
862.7803	1145.164	46762.7	45820.25
862.9251	1147.1097	46697.15	45758.6
863.07	1149.0546	46611.45	45666.2
863.2148	1150.9989	46466.65	45527.9
863.3597	1152.9424	46248.85	45312.3
863.5045	1154.8852	45895.05	44954.15
863.6493	1156.8272	45659	44719.45
863.7942	1158.7686	45563.25	44615.3
863.939	1160.7092	45226.65	44283.5
864.0838	1162.6491	45046.85	44104.2
864.2286	1164.5883	45060.25	44118.5
864.3734	1166.5267	44961.35	44021.5
864.5182	1168.4644	44989.95	44050.3
864.663	1170.4014	45075.8	44132.35
864.8078	1172.3377	45265.45	44328.65
864.9526	1174.2732	45341.05	44403.4
865.0974	1176.2081	45464.55	44526.55
865.2421	1178.1421	45530.6	44587.8
865.3869	1180.0755	45513.8	44577.25
865.5317	1182.0082	45329.85	44393.9
865.6764	1183.9401	45139.25	44201.85
865.8212	1185.8713	44757.85	43823.05
865.9659	1187.8017	44411.7	43482.35
866.1106	1189.7315	44137.55	43216.6
866.2554	1191.6605	43597.2	42676.95
866.4001	1193.5888	43240.95	42315.45
866.5448	1195.5163	43025.4	42097
866.6895	1197.4432	42772.6	41838.5
866.8342	1199.3693	42700.1	41766.3
866.9789	1201.2947	42377.1	41433.75
867.1236	1203.2193	42163.15	41229.4
867.2683	1205.1432	42124.5	41186.75
867.413	1207.0664	41992.4	41058.15
867.5576	1208.9889	41996.15	41060.2
867.7023	1210.9106	41846.25	40908.35
867.847	1212.8316	41724.4	40787.95
867.9916	1214.7519	41732.6	40790.2
868.1363	1216.6715	41594.95	40660.55
868.2809	1218.5903	41474.25	40538.75
868.4255	1220.5084	41304.75	40370.15
868.5701	1222.4257	41263.1	40331.65
868.7148	1224.3424	40854.3	39923.55
868.8594	1226.2583	40820.9	39884
869.004	1228.1735	40808.45	39870.95
869.1486	1230.0879	40716	39777.05
869.2932	1232.0016	40754.5	39821.75
869.4377	1233.9146	40668.8	39729.85
869.5823	1235.8269	40440.55	39505.8
869.7269	1237.7384	40288.95	39354.85
869.8715	1239.6492	39892.2	38957.05
870.016	1241.5592	39711.45	38773.2
870.1606	1243.4686	39369.5	38435.55
870.3051	1245.3772	39307.5	38371.6
870.4496	1247.285	39050.85	38117.3
870.5941	1249.1922	38889.3	37955.65
870.7387	1251.0986	38808.35	37873.2
870.8832	1253.0042	38593.7	37661.25
871.0277	1254.9092	38584.25	37651.2
871.1722	1256.8134	38634.85	37702.1
871.3167	1258.7169	38701.35	37766
871.4611	1260.6196	38663.55	37731.9
871.6056	1262.5216	38805.65	37871.85
871.7501	1264.4229	38815.45	37886.05
871.8945	1266.3234	38886.55	37952.75
872.039	1268.2232	38822.05	37887.75
872.1834	1270.1223	38728.5	37792.75
872.3278	1272.0207	38609.25	37673.75
872.4723	1273.9183	38474.15	37534.75
872.6167	1275.8151	38245.05	37312.25
872.7611	1277.7113	38120.55	37192
872.9055	1279.6067	37791.35	36860.65
873.0499	1281.5014	37483.7	36547.6
873.1943	1283.3953	37257.45	36321.2
873.3386	1285.2885	37068.55	36138.1
873.483	1287.181	36913.1	35981.95
873.6274	1289.0727	36948.85	36017.9
873.7717	1290.9637	36833.8	35902.65
873.9161	1292.854	36919.05	35986.05
874.0604	1294.7435	36958.15	36026.1
874.2047	1296.6323	37049.35	36112.35
874.349	1298.5204	37243.05	36304.55
874.4933	1300.4077	37410.35	36476.75
874.6376	1302.2943	37578.7	36646.85
874.7819	1304.1802	37588.5	36658.6
874.9262	1306.0653	37403.3	36470.8
875.0705	1307.9497	37173.9	36244
875.2147	1309.8333	36993.3	36064.3
875.359	1311.7162	36992.9	36059.8
875.5032	1313.5984	37025.7	36091
875.6475	1315.4798	37026.25	36080.65
875.7917	1317.3605	37134.2	36184.6
875.9359	1319.2405	37279.3	36347.15
876.0801	1321.1197	37198.95	36263.4
876.2243	1322.9982	37056.1	36120.85
876.3685	1324.876	37035	36102.5
876.5127	1326.753	36887.1	35954.8
876.6569	1328.6293	36890.4	35957.05
876.801	1330.5048	36949.45	36013.5
876.9452	1332.3796	36725.15	35790.05
877.0893	1334.2537	36665.75	35710.55
877.2335	1336.127	36519	35585.9
877.3776	1337.9996	36406.8	35476
877.5217	1339.8714	36223.05	35293.55
877.6658	1341.7426	36057.5	35081.15
877.8099	1343.6129	35934.5	35002.4
877.954	1345.4826	35773.6	34838.8
878.0981	1347.3515	35717	34779.65
878.2422	1349.2196	35524.35	34591.2
878.3862	1351.087	35511	34576.9
878.5303	1352.9537	35485	34552.35
878.6743	1354.8197	35497.65	34565.65
878.8184	1356.6849	35712.45	34780.65
878.9624	1358.5493	35647.85	34716.3
879.1064	1360.4131	35550.7	34621.05
879.2504	1362.276	35400.3	34469.9
879.3944	1364.1383	35103.15	34172.65
879.5384	1365.9998	34764.2	33827.75
879.6823	1367.8606	34369.7	33435.65
879.8263	1369.7206	34108.6	33175.55
879.9702	1371.5799	33822.2	32886.45
880.1142	1373.4384	33620.7	32687.4
880.2581	1375.2962	33445.25	32513.65
880.402	1377.1533	33090.1	32158.15
880.5459	1379.0096	32604.95	31674.85
880.6898	1380.8652	32315	31387.4
880.8337	1382.7201	32020	31092.85
880.9776	1384.5742	31679.7	30749.75
881.1215	1386.4275	31419.65	30487.9
881.2653	1388.2802	31164.7	30234.4
881.4092	1390.132	31003.35	30073.05
881.553	1391.9832	30918.15	29986.35
881.6968	1393.8336	30662.45	29728.8
881.8406	1395.6832	30542.9	29609.05
881.9844	1397.5322	30388.6	29459.55
882.1282	1399.3803	30298.35	29366.5
882.272	1401.2278	30116.7	29186.3
882.4158	1403.0745	30041.8	29111.35
882.5595	1404.9204	29873.05	28946.9
882.7033	1406.7656	29843.4	28912.1
882.847	1408.6101	29673	28742.1
882.9908	1410.4538	29573.45	28644.5
883.1345	1412.2968	29589.45	28659.85
883.2782	1414.139	29487.25	28558.95
883.4219	1415.9805	29546.65	28616.95
883.5656	1417.8213	29462.05	28510.95
883.7092	1419.6613	29543.35	28617.7
883.8529	1421.5006	29618.15	28689.8
883.9965	1423.3391	29788.45	28858.7
884.1402	1425.1769	30028.3	29102.3
884.2838	1427.0139	30536	29605.15
884.4274	1428.8502	31045.85	30115.6
884.571	1430.6858	31575.5	30647.4
884.7146	1432.5206	31918.5	30993.6
884.8582	1434.3547	32113.55	31188.35
885.0018	1436.188	32094	31167.1
885.1453	1438.0206	31982.95	31054.3
885.2889	1439.8524	31751.4	30821.45
885.4324	1441.6835	31602.7	30672.95
885.5759	1443.5139	31421.6	30488.95
885.7194	1445.3435	31258.3	30330.8
885.8629	1447.1724	31177.25	30251
886.0064	1449.0005	30996.3	30068.8
886.1499	1450.8279	30886.45	29960.8
886.2933	1452.6545	30822.2	29896.35
886.4368	1454.4804	30760.3	29838.8
886.5802	1456.3056	30673.9	29743.15
886.7237	1458.13	30571.15	29646.1
886.8671	1459.9536	30326.35	29402.45
887.0105	1461.7766	29873	28944.75
887.1539	1463.5987	29381.35	28453.05
887.2972	1465.4202	28903.55	27978.1
887.4406	1467.2409	28477.05	27551.45
887.584	1469.0608	28181.55	27254.05
887.7273	1470.88	27878	26952.15
887.8706	1472.6984	27608.55	26680.65
888.0139	1474.5161	27294.35	26364.4
888.1572	1476.3331	27138.9	26214.5
888.3005	1478.1493	26931.1	26001.9
888.4438	1479.9648	26776.15	25845.75
888.5871	1481.7795	26644.7	25716.95
888.7303	1483.5935	26503.45	25576.6
888.8736	1485.4067	26428.85	25502.8
889.0168	1487.2192	26335.65	25410.05
889.16	1489.031	26285.9	25360.35
889.3032	1490.842	26167.9	25243.15
889.4464	1492.6522	26110.25	25184.35
889.5896	1494.4618	25947.7	25021.05
889.7327	1496.2705	25929.95	25005.5
889.8759	1498.0785	25860.3	24933.7
890.019	1499.8858	25723.7	24800.15
890.1622	1501.6924	25652.2	24726.4
890.3053	1503.4981	25629.7	24704.65
890.4484	1505.3032	25559.3	24634.35
890.5914	1507.1075	25508.15	24579.85
890.7345	1508.911	25394.1	24469.05
890.8776	1510.7138	25277.35	24349.55
891.0206	1512.5159	25155.6	24230.65
891.1637	1514.3172	25135.9	24212.6
891.3067	1516.1178	24937.65	24016.15
891.4497	1517.9176	24886.95	23960
891.5927	1519.7166	24783.55	23860.25
891.7357	1521.515	24756.3	23827.45
891.8786	1523.3126	24655.85	23734.5
892.0216	1525.1094	24589.2	23665.7
892.1645	1526.9055	24463.1	23539.9
892.3074	1528.7008	24337.1	23414.4
892.4503	1530.4954	24191.05	23263.4
892.5932	1532.2893	24159.3	23239
892.7361	1534.0824	24028.8	23106.8
892.879	1535.8747	24015.15	23096.7
893.0218	1537.6663	23922.6	23002.4
893.1647	1539.4572	23816.6	22896.2
893.3075	1541.2473	23790.65	22870.35
893.4503	1543.0367	23690.65	22771.45
893.5931	1544.8253	23537.3	22609.6
893.7359	1546.6132	23532.25	22608.75
893.8787	1548.4003	23435.45	22507.65
894.0214	1550.1867	23398.95	22470.5
894.1642	1551.9723	23356.1	22435.1
894.3069	1553.7572	23310.95	22391.8
894.4496	1555.5414	23241.6	22322.55
894.5923	1557.3247	23254.7	22339.05
894.735	1559.1074	23199.35	22286.8
894.8777	1560.8893	23161.8	22249.95
895.0204	1562.6705	23130.4	22214.05
895.163	1564.4509	23164.2	22251.4
895.3056	1566.2305	23187.4	22277.75
895.4482	1568.0094	23272.05	22360.55
895.5908	1569.7876	23295.25	22384.8
895.7334	1571.565	23291.4	22375.55
895.876	1573.3417	23325.55	22411.35
896.0186	1575.1176	23291.9	22378.9
896.1611	1576.8928	23229.1	22317.9
896.3036	1578.6672	23071.05	22164.05
896.4461	1580.4409	22898.45	21995.05
896.5886	1582.2138	22681.2	21767.35
896.7311	1583.986	22491.3	21580.55
896.8736	1585.7575	22364.2	21450.8
897.0161	1587.5282	22205.15	21296.35
897.1585	1589.2981	22104.35	21196.4
897.3009	1591.0673	21940.6	21034.35
897.4433	1592.8358	21890.4	20981.1
897.5857	1594.6035	21858.8	20942.7
897.7281	1596.3704	21768.5	20857.1
897.8705	1598.1366	21723.1	20813.05
898.0128	1599.9021	21676.55	20765.6
898.1551	1601.6668	21599.3	20686.55
898.2975	1603.4308	21622.7	20713.2
898.4398	1605.194	21662.8	20747.6
898.5821	1606.9564	21662	20757.6
898.7243	1608.7182	21694.75	20789.1
898.8666	1610.4791	21781.8	20882.15
899.0088	1612.2394	21852.75	20953.55
899.1511	1613.9988	22006.35	21106.25
899.2933	1615.7576	22201.9	21299.4
899.4355	1617.5156	22361.4	21448.2
899.5776	1619.2728	22570.8	21654.75
899.7198	1621.0293	22689.2	21777.15
899.862	1622.785	22713.25	21806.25
900.0041	1624.54	22522.3	21617.2
900.1462	1626.2942	22368	21463.6
900.2883	1628.0477	22053.3	21147.95
900.4304	1629.8005	21789.2	20880.1
900.5725	1631.5525	21498.25	20594.3
900.7145	1633.3037	21230.2	20325.25
900.8566	1635.0542	21007.55	20105.85
900.9986	1636.804	20802.45	19899.25
901.1406	1638.553	20741.15	19775.45
901.2826	1640.3013	20559.95	19655.65
901.4245	1642.0488	20418.7	19512.75
901.5665	1643.7955	20353.25	19451.3
901.7085	1645.5416	20312.9	19412.55
901.8504	1647.2868	20382.5	19478
901.9923	1649.0313	20375	19469
902.1342	1650.7751	20456.4	19549.95
902.2761	1652.5181	20578.25	19678
902.4179	1654.2604	20718.15	19818.35
902.5598	1656.0019	21024.3	20121.85
902.7016	1657.7427	21362.1	20458.4
902.8434	1659.4828	21679.6	20773.5
902.9852	1661.222	21881.7	20977.6
903.127	1662.9606	21900.05	20993.7
903.2687	1664.6984	21717.45	20810.25
903.4105	1666.4354	21344.2	20436.25
903.5522	1668.1717	20879.45	19974.65
903.6939	1669.9072	20320.55	19413.5
903.8356	1671.642	19912.6	19001.7
903.9773	1673.3761	19628.85	18723.65
904.119	1675.1094	19336.05	18431.1
904.2606	1676.8419	19105.4	18201.1
904.4022	1678.5737	18905.6	17999.65
904.5439	1680.3048	18759.5	17853.85
904.6855	1682.0351	18598.65	17694.5
904.827	1683.7646	18490	17582.8
904.9686	1685.4934	18373.9	17468.1
905.1101	1687.2215	18293.15	17388.25
905.2517	1688.9488	18183.2	17279.7
905.3932	1690.6754	18095.4	17193.05
905.5347	1692.4012	18049.65	17144.75
905.6761	1694.1263	17979.75	17075.75
905.8176	1695.8506	17914.75	17010.35
905.9591	1697.5742	17859.3	16957.5
906.1005	1699.297	17753.4	16852.95
906.2419	1701.0191	17659.85	16759.35
906.3833	1702.7404	17540.15	16642.15
906.5246	1704.461	17448.7	16545.7
906.666	1706.1808	17407.05	16505.75
906.8073	1707.8999	17330.1	16430.95
906.9487	1709.6182	17290.5	16391.1
907.09	1711.3358	17226.35	16329.65
907.2313	1713.0527	17161.4	16265.9
907.3725	1714.7688	17067.3	16164.8
907.5138	1716.4841	17015	16114.4
907.655	1718.1987	16993.15	16089.8
907.7962	1719.9126	16906.15	16010.7
907.9374	1721.6257	16829.3	15928.15
908.0786	1723.338	16796.95	15901.3
908.2198	1725.0496	16718.45	15819.9
908.3609	1726.7605	16674.25	15775.55
908.502	1728.4706	16611	15714.45
908.6431	1730.18	16522.3	15624.2
908.7842	1731.8886	16480.35	15586.8
908.9253	1733.5964	16461.7	15545.7
909.0664	1735.3036	16411	15512.55
909.2074	1737.0099	16365.35	15468.65
909.3484	1738.7156	16338.9	15443.1
909.4894	1740.4204	16222.15	15323.25
909.6304	1742.1246	16189.5	15290.7
909.7714	1743.8279	16158.25	15262.3
909.9123	1745.5306	16155.25	15260.15
910.0532	1747.2325	16048.9	15153.85
910.1941	1748.9336	16013.5	15117.8
910.335	1750.634	15929.8	15031.35
910.4759	1752.3336	15894.35	14999.65
910.6168	1754.0325	15878.85	14985.3
910.7576	1755.7307	15854.4	14958.5
910.8984	1757.4281	15842.6	14948.75
911.0392	1759.1247	15810.35	14905.1
911.18	1760.8206	15740.25	14835.5
911.3208	1762.5158	15713.2	14809.4
911.4615	1764.2102	15634.45	14738
911.6022	1765.9039	15592.95	14697.5
911.7429	1767.5968	15535.7	14642.05
911.8836	1769.289	15482.35	14585.4
912.0243	1770.9804	15457.5	14560.3
912.1649	1772.6711	15472.3	14574.2
912.3056	1774.361	15388.25	14490.5
912.4462	1776.0502	15369.2	14470.55
912.5868	1777.7386	15333.4	14435.15
912.7274	1779.4263	15266	14371.1
912.8679	1781.1132	15217.05	14324.9
913.0084	1782.7994	15162.85	14270.35
913.149	1784.4849	15134.2	14242.25
913.2895	1786.1696	15104.75	14205.2
913.4299	1787.8535	15085.7	14194.05
913.5704	1789.5367	15003.45	14110.05
913.7108	1791.2192	14995.35	14102.2
913.8513	1792.9009	14976.6	14053.7
913.9917	1794.5818	14908.95	14013.1
914.132	1796.2621	14861.25	13969.05
914.2724	1797.9415	14831.1	13936.15
914.4128	1799.6202	14780.6	13883.2
914.5531	1801.2982	14734.4	13837.05
914.6934	1802.9755	14713.5	13818.2
914.8337	1804.6519	14692.6	13796.8
914.9739	1806.3277	14605.05	13711.8
915.1142	1808.0027	14559.25	13668.9
915.2544	1809.6769	14534.55	13642.4
915.3946	1811.3504	14497.4	13604.9
915.5348	1813.0231	14451.15	13556.7
915.675	1814.6951	14414.65	13522.65
915.8151	1816.3664	14444.45	13548.3
915.9553	1818.0369	14376.5	13482.45
916.0954	1819.7067	14304.9	13410.65
916.2355	1821.3757	14258.75	13362.4
916.3755	1823.044	14271.85	13376.65
916.5156	1824.7115	14212.3	13318.15
916.6556	1826.3783	14178.3	13283.65
916.7956	1828.0443	14141.8	13249.45
916.9356	1829.7096	14083.4	13187.45
917.0756	1831.3741	14074.35	13178.5
917.2155	1833.0379	14034.25	13143
917.3555	1834.701	13972.9	13080.35
917.4954	1836.3633	13963.9	13070.75
917.6353	1838.0248	13911	13016.15
917.7751	1839.6856	13907.45	13014.5
917.915	1841.3457	13881.65	12988
918.0548	1843.005	13839.05	12945.25
918.1946	1844.6636	13827.95	12933.2
918.3344	1846.3214	13780.4	12886.5
918.4742	1847.9785	13770.45	12876.05
918.6139	1849.6349	13762.85	12864.9
918.7537	1851.2904	13683.3	12777.2
918.8934	1852.9453	13641.45	12746.9
919.0331	1854.5994	13623	12727.25
919.1727	1856.2528	13623.25	12724.5
919.3124	1857.9054	13570.1	12676.35
919.452	1859.5572	13567.5	12676.65
919.5916	1861.2083	13562.95	12667.8
919.7312	1862.8587	13484.05	12590.35
919.8708	1864.5084	13491.1	12594.85
920.0103	1866.1572	13427.5	12532.3
920.1498	1867.8054	13397.5	12501.4
920.2893	1869.4528	13350.9	12453.8
920.4288	1871.0994	13289.2	12392.35
920.5683	1872.7453	13304.15	12407.95
920.7077	1874.3905	13269.3	12358.55
920.8471	1876.0349	13195.2	12299.9
920.9865	1877.6786	13174.05	12277.6
921.1259	1879.3215	13176.2	12282
921.2653	1880.9637	13157.8	12264.4
921.4046	1882.6051	13086.65	12194.1
921.5439	1884.2458	13064.8	12170.7
921.6832	1885.8858	13016.65	12123.85
921.8225	1887.525	13012.2	12119
921.9617	1889.1634	12914.05	12018.7
922.101	1890.8011	12895.3	12001.4
922.2402	1892.4381	12864.95	11969.1
922.3794	1894.0743	12836.55	11943.15
922.5185	1895.7098	12812.25	11918.5
922.6577	1897.3446	12785.35	11890
922.7968	1898.9786	12766.35	11869.4
922.9359	1900.6118	12709.85	11815.6
923.075	1902.2443	12629.05	11731.5
923.214	1903.8761	12631.75	11737.8
923.3531	1905.5071	12562.95	11668.8
923.4921	1907.1374	12500.4	11606.4
923.6311	1908.7669	12539.8	11645.15
923.77	1910.3957	12499.4	11608.65
923.909	1912.0237	12391.95	11498.9
924.0479	1913.651	12398	11503.65
924.1868	1915.2776	12347.05	11456.05
924.3257	1916.9034	12276.5	11384.65
924.4646	1918.5285	12253.5	11363.9
924.6034	1920.1528	12182	11289.45
924.7422	1921.7764	12154.55	11260.65
924.881	1923.3992	12123	11229.7
925.0198	1925.0213	12050.6	11156.5
925.1586	1926.6427	12005.25	11114.3
925.2973	1928.2633	12044.55	11081.85
925.436	1929.8832	11980.9	11085.85
925.5747	1931.5023	11916.8	11025.75
925.7134	1933.1207	11882.85	10989.75
925.852	1934.7383	11858	10965.95
925.9906	1936.3552	11813.4	10921.8
926.1292	1937.9714	11781.85	10888
926.2678	1939.5868	11737.5	10844.45
926.4064	1941.2015	11660.95	10767.25
926.5449	1942.8154	11614.35	10722.05
926.6834	1944.4286	11572	10679.85
926.8219	1946.041	11545.7	10634.4
926.9604	1947.6528	11505.4	10605.2
927.0988	1949.2637	11486.65	10596.7
927.2372	1950.8739	11429.55	10536.45
927.3756	1952.4834	11400.85	10508.7
927.514	1954.0921	11367.45	10474.95
927.6523	1955.7001	11323.25	10428
927.7907	1957.3074	11278.75	10389.25
927.929	1958.9139	11239.45	10352.25
928.0673	1960.5197	11218.45	10327.3
928.2055	1962.1247	11161.45	10272.35
928.3438	1963.729	11120.55	10231.3
928.482	1965.3325	11082.3	10167.15
928.6202	1966.9353	11055.75	10165.4
928.7584	1968.5374	11004.15	10112.7
928.8965	1970.1387	10955.9	10062.85
929.0346	1971.7393	10918.7	10028.4
929.1727	1973.3392	10876.15	9986.15
929.3108	1974.9383	10863.05	9976
929.4489	1976.5366	10805.2	9918.65
929.5869	1978.1342	10792.25	9901.95
929.7249	1979.7311	10743.8	9855.2
929.8629	1981.3273	10725.2	9835.9
930.0009	1982.9227	10673.4	9783.6
930.1388	1984.5173	10655.8	9768.15
930.2767	1986.1112	10592.9	9706.55
930.4146	1987.7044	10594.75	9706.6
930.5525	1989.2968	10563.4	9673.8
930.6904	1990.8885	10547.95	9656.95
930.8282	1992.4795	10500.05	9614.05
930.966	1994.0697	10451.1	9565.7
931.1038	1995.6592	10423.75	9537.4
931.2415	1997.2479	10405.6	9517.95
931.3793	1998.8359	10380.8	9494.45
931.517	2000.4232	10337.5	9453
931.6547	2002.0097	10290.2	9405.7
931.7923	2003.5955	10246.7	9362.15
931.93	2005.1805	10239.2	9351.25
932.0676	2006.7648	10225.85	9338.85
932.2052	2008.3484	10170.2	9284.7
932.3427	2009.9312	10205	9319.15
932.4803	2011.5133	10121.55	9237.25
932.6178	2013.0946	10087.5	9203.45
932.7553	2014.6752	10060.75	9176.4
932.8928	2016.2551	10043.6	9158.3
933.0302	2017.8342	9988.4	9103.55
933.1676	2019.4126	9976.95	9093.7
933.305	2020.9902	9921.85	9040.95
933.4424	2022.5672	9926.25	9040.65
933.5798	2024.1433	9880.25	8991.2
933.7171	2025.7188	9847.9	8965.75
933.8544	2027.2935	9821.55	8937.95
933.9917	2028.8674	9776.7	8895.5
934.129	2030.4406	9753.05	8871.15
934.2662	2032.0131	9710.95	8830.3
934.4034	2033.5849	9686.5	8797.7
934.5406	2035.1559	9679.4	8796.2
934.6778	2036.7261	9648.1	8763.2
934.8149	2038.2957	9609.7	8721.25
934.952	2039.8645	9599.15	8713.75
935.0891	2041.4325	9596.75	8708.25
935.2262	2042.9998	9541	8656.75
935.3632	2044.5664	9522.55	8637.85
935.5002	2046.1323	9497.05	8613.45
935.6372	2047.6974	9440.4	8557.7
935.7742	2049.2617	9445.55	8562.85
935.9111	2050.8254	9440.15	8549.7
936.048	2052.3883	9439.6	8554.3
936.1849	2053.9504	9378.5	8492.55
936.3218	2055.5118	9355.55	8468.05
936.4586	2057.0725	9323.2	8433.8
936.5955	2058.6325	9303.9	8418.6
936.7323	2060.1917	9292.85	8410.05
936.869	2061.7502	9265.5	8379.5
937.0058	2063.3079	9204.15	8321.4
937.1425	2064.8649	9205.45	8318.75
937.2792	2066.4212	9186.85	8300.05
937.4159	2067.9767	9126.65	8242.95
937.5525	2069.5315	9115.35	8228
937.6891	2071.0856	9054.15	8170
937.8257	2072.6389	9042.05	8157.85
937.9623	2074.1915	8984.5	8101.6
938.0989	2075.7433	8947.45	8060.7
938.2354	2077.2945	8953.35	8070.6
938.3719	2078.8448	8907.2	8022.3
938.5084	2080.3945	8858	7972.15
938.6448	2081.9434	8851.6	7963.75
938.7812	2083.4916	8806.3	7918.95
938.9176	2085.039	8806.75	7914.5
939.054	2086.5857	8756.45	7865.6
939.1903	2088.1317	8768.95	7878.85
939.3267	2089.677	8725.4	7833
939.463	2091.2215	8725.85	7836.2
939.5992	2092.7652	8673.25	7780.9
939.7355	2094.3083	8671.8	7781.4
939.8717	2095.8506	8636.4	7747.35
940.0079	2097.3921	8636.55	7748
940.1441	2098.933	8597.95	7710.3
940.2802	2100.4731	8575.1	7690.05
940.4163	2102.0124	8579.85	7684.35
940.5524	2103.5511	8561.2	7675.5
940.6885	2105.089	8556.35	7667.05
940.8245	2106.6261	8530.8	7644.4
940.9606	2108.1626	8484.75	7596.1
941.0965	2109.6983	8485.3	7569.8
941.2325	2111.2332	8462.7	7574.6
941.3684	2112.7675	8424.55	7535.75
941.5044	2114.301	8397.9	7507.2
941.6403	2115.8337	8364.5	7475.15
941.7761	2117.3657	8336.9	7449.15
941.912	2118.897	8339.25	7450.55
942.0478	2120.4276	8304	7409.2
942.1835	2121.9575	8269.3	7379.75
942.3193	2123.4866	8284.2	7380.9
942.455	2125.0149	8250.15	7357.3
942.5907	2126.5426	8213.05	7328.3
942.7264	2128.0695	8181.55	7292.45
942.8621	2129.5956	8159.4	7276.8
942.9977	2131.1211	8155.65	7266.65
943.1333	2132.6458	8122.5	7235.1
943.2689	2134.1698	8108.3	7219.85
943.4044	2135.693	8083.75	7194.95
943.54	2137.2155	8071.35	7180.35
943.6755	2138.7373	8053.5	7166.8
943.8109	2140.2584	8014.35	7126.15
943.9464	2141.7787	8016.1	7125.8
944.0818	2143.2983	7955.8	7072.4
944.2172	2144.8171	7932.25	7048.65
944.3526	2146.3353	7921.2	7034.85
944.4879	2147.8527	7871.9	6986.75
944.6232	2149.3693	7891.4	7002.85
944.7585	2150.8853	7842	6951.3
944.8938	2152.4005	7805.75	6916.65
945.029	2153.9149	7810.55	6920.8
945.1642	2155.4287	7892.1	6888.25
945.2994	2156.9417	7770.8	6880.85
945.4346	2158.454	7749.45	6861
945.5697	2159.9655	7716.8	6831.65
945.7048	2161.4764	7701.55	6815.75
945.8399	2162.9865	7681.6	6795.75
945.9749	2164.4958	7643.3	6756.1
946.1099	2166.0045	7618.6	6729.5
946.2449	2167.5124	7627.35	6739.55
946.3799	2169.0195	7601.8	6715.45
946.5148	2170.526	7594.35	6704.65
946.6498	2172.0317	7569.6	6681.45
946.7846	2173.5367	7528.5	6640.1
946.9195	2175.0409	7501.55	6614.7
947.0543	2176.5445	7513.1	6626.4
947.1891	2178.0473	7474.5	6584.65
947.3239	2179.5494	7451.75	6559.95
947.4587	2181.0507	7446.1	6558.1
947.5934	2182.5513	7405.2	6520.45
947.7281	2184.0512	7379	6488.4
947.8628	2185.5504	7358.05	6469.9
947.9974	2187.0488	7303.95	6417.9
948.132	2188.5465	7296.1	6410.9
948.2666	2190.0435	7277.75	6390.85
948.4012	2191.5397	7275.85	6389.35
948.5357	2193.0353	7260.7	6372.3
948.6702	2194.5301	7215.1	6320.7
948.8047	2196.0241	7201.55	6311.85
948.9392	2197.5175	7167.8	6276.85
949.0736	2199.0101	7152.2	6260.35
949.208	2200.502	7118.15	6230.2
949.3424	2201.9931	7097.45	6210.85
949.4767	2203.4835	7072	6184.15
949.611	2204.9733	7059.45	6166.65
949.7453	2206.4622	7042.25	6155
949.8796	2207.9505	7019.6	6131.25
950.0138	2209.438	6973.75	6089.65
950.148	2210.9248	6965.35	6076.45
950.2822	2212.4109	6943.65	6055.85
950.4164	2213.8962	6882.9	5992.65
950.5505	2215.3809	6894.95	6001.5
950.6846	2216.8648	6870.7	5976.65
950.8186	2218.3479	6857.35	5960.5
950.9527	2219.8304	6839.35	5945.6
951.0867	2221.3121	6805.4	5911.4
951.2207	2222.7931	6807.15	5917.6
951.3546	2224.2733	6776.8	5885.65
951.4886	2225.7529	6751	5863.5
951.6225	2227.2317	6711.8	5821.95
951.7563	2228.7098	6720.85	5834.85
951.8902	2230.1872	6671.7	5788.3
952.024	2231.6638	6684.8	5799
952.1578	2233.1397	6650.4	5760.1
952.2916	2234.6149	6615.05	5727.45
952.4253	2236.0894	6611.1	5722.9
952.559	2237.5632	6595.5	5703.85
952.6927	2239.0362	6567.35	5678.85
952.8263	2240.5085	6548.2	5660.8
952.9599	2241.9801	6501.65	5612.3
953.0935	2243.4509	6489.75	5599.05
953.2271	2244.921	6471.95	5581
953.3606	2246.3904	6468.75	5577
953.4941	2247.8591	6443.85	5556.35
953.6276	2249.3271	6432.65	5543.3
953.7611	2250.7943	6415.9	5525.55
953.8945	2252.2608	6405.6	5515.5
954.0279	2253.7266	6392.75	5503.55
954.1612	2255.1917	6356.45	5467.8
954.2946	2256.656	6319.65	5431.8
954.4279	2258.1197	6303.9	5421.65
954.5612	2259.5826	6288.35	5401.1
954.6944	2261.0447	6271.65	5379.85
954.8276	2262.5062	6257.2	5366.6
954.9608	2263.9669	6245.35	5352.1
955.094	2265.4269	6240.35	5352.2
955.2271	2266.8862	6201.75	5313.25
955.3602	2268.3448	6185.5	5298.4
955.4933	2269.8026	6186.4	5300.1
955.6264	2271.2598	6177.9	5291.75
955.7594	2272.7162	6134.15	5246.75
955.8924	2274.1719	6140.35	5252.3
956.0253	2275.6268	6127	5235.75
956.1583	2277.0811	6115.6	5226.15
956.2912	2278.5346	6080.4	5193.45
956.4241	2279.9874	6072.3	5183.15
956.5569	2281.4395	6072.6	5186.7
956.6897	2282.8908	6050.2	5156.45
956.8225	2284.3414	6009.85	5119.65
956.9553	2285.7914	6012.9	5125.75
957.088	2287.2406	5995.4	5103.8
957.2207	2288.689	5990.7	5099.85
957.3534	2290.1368	5960.45	5068.6
957.486	2291.5838	5961.1	5065.7
957.6186	2293.0302	5947.45	5054.2
957.7512	2294.4758	5921.6	5028.85
957.8838	2295.9206	5892.25	5000.85
958.0163	2297.3648	5864.75	4975.95
958.1488	2298.8082	5857.3	4967.4
958.2813	2300.251	5858.95	4970.4
958.4137	2301.693	5831.6	4937
958.5461	2303.1343	5817.1	4926.1
958.6785	2304.5748	5801.05	4912.45
958.8108	2306.0147	5769.7	4881.9
958.9432	2307.4538	5763.85	4876.55
959.0754	2308.8922	5738.4	4851.25
959.2077	2310.3299	5725.45	4837.65
959.3399	2311.7669	5696.15	4808.15
959.4721	2313.2031	5694.2	4804.8
959.6043	2314.6387	5667.95	4779.15
959.7365	2316.0735	5649.9	4757.15
959.8686	2317.5076	5638.85	4750.55
960.0006	2318.941	5629	4738.1
960.1327	2320.3737	5599.25	4707.6
960.2647	2321.8056	5590.15	4697.35
960.3967	2323.2369	5566.5	4673.6
960.5287	2324.6674	5549.95	4659.1
960.6606	2326.0972	5551.75	4661.6
960.7925	2327.5263	5519.4	4631.55
960.9244	2328.9547	5526.9	4635.4
961.0562	2330.3823	5505.5	4612.9
961.1881	2331.8092	5495.05	4601.7
961.3198	2333.2355	5482.05	4591.55
961.4516	2334.661	5452.85	4560.45
961.5833	2336.0858	5452	4560.35
961.715	2337.5098	5426.65	4535.6
961.8467	2338.9332	5410.65	4521.8
961.9783	2340.3558	5420.65	4529.3
962.1099	2341.7778	5391.9	4503.1
962.2415	2343.199	5382.55	4491.3
962.373	2344.6195	5350.7	4461.25
962.5045	2346.0393	5346.1	4458.1
962.636	2347.4583	5326.05	4435.55
962.7675	2348.8767	5309.85	4418.85
962.8989	2350.2943	5310.55	4421.2
963.0303	2351.7113	5309.75	4416.35
963.1617	2353.1275	5281.4	4391.25
963.293	2354.543	5266.9	4350.85
963.4243	2355.9578	5238.2	4347
963.5556	2357.3718	5219.8	4332.3
963.6868	2358.7852	5193.55	4303.9
963.818	2360.1978	5175	4287.9
963.9492	2361.6098	5178.25	4287.8
964.0803	2363.021	5165.25	4270.45
964.2114	2364.4315	5127.4	4237.9
964.3425	2365.8413	5128.95	4233.5
964.4736	2367.2504	5126.6	4239.4
964.6046	2368.6587	5092.75	4207.5
964.7356	2370.0664	5067.65	4178.85
964.8666	2371.4733	5045.35	4157.1
964.9975	2372.8795	5051.2	4162.65
965.1284	2374.285	5014.2	4124.8
965.2593	2375.6899	4987.5	4099.3
965.3901	2377.0939	4966.2	4077.75
965.5209	2378.4973	4963.65	4076.75
965.6517	2379.9	4953.85	4066.1
965.7825	2381.3019	4936.25	4049.55
965.9132	2382.7032	4912.6	4025.7
966.0439	2384.1037	4894.25	4010.35
966.1745	2385.5035	4879.45	3993.1
966.3051	2386.9027	4851.85	3967.2
966.4357	2388.3011	4853.55	3962.35
966.5663	2389.6987	4842.95	3956.75
966.6968	2391.0957	4835.75	3948.35
966.8273	2392.492	4818.1	3932.25
966.9578	2393.8876	4781.5	3893.95
967.0882	2395.2824	4763.55	3877.45
967.2186	2396.6765	4768.45	3883.45
967.349	2398.07	4740.55	3854.15
967.4793	2399.4627	4719.4	3828.55
967.6097	2400.8547	4745.45	3856.85
967.7399	2402.246	4708.7	3812.95
967.8702	2403.6366	4682.95	3792.7
968.0004	2405.0265	4665.05	3777.95
968.1306	2406.4156	4656.85	3767.05
968.2607	2407.8041	4644.35	3754.25
968.3909	2409.1918	4621.95	3732.65
968.521	2410.5789	4618.45	3730.8
968.651	2411.9652	4595.2	3704.8
968.781	2413.3508	4599.5	3711.65
968.911	2414.7358	4568.1	3678.7
969.041	2416.12	4545.45	3657.5
969.1709	2417.5035	4554.9	3667.4
969.3008	2418.8863	4527.15	3637.85
969.4307	2420.2684	4517.25	3626.8
969.5606	2421.6497	4507.7	3618.15
969.6904	2423.0304	4462.9	3575.85
969.8201	2424.4104	4467.05	3577.45
969.9499	2425.7896	4440	3550.15
970.0796	2427.1682	4444.05	3556.05
970.2093	2428.546	4421.8	3532.5
970.3389	2429.9232	4418.6	3528.75
970.4685	2431.2996	4410.15	3521.7
970.5981	2432.6753	4402.4	3515.5
970.7277	2434.0503	4392.4	3503.1
970.8572	2435.4246	4363.9	3475.8
970.9867	2436.7982	4357	3464.75
971.1161	2438.1711	4337.5	3449.8
971.2456	2439.5433	4333.05	3444.25
971.375	2440.9148	4322.9	3428.05
971.5043	2442.2856	4296.15	3408.9
971.6336	2443.6557	4296.65	3407.45
971.7629	2445.025	4280.75	3392.2
971.8922	2446.3937	4274.4	3384.65
972.0214	2447.7617	4264	3373.2
972.1506	2449.1289	4249.15	3361.8
972.2798	2450.4955	4236.55	3344.8
972.4089	2451.8613	4227.25	3339.4
972.538	2453.2265	4211.65	3324.3
972.6671	2454.5909	4233.15	3343.8
972.7961	2455.9546	4206.75	3319.25
972.9251	2457.3177	4200.7	3313.35
973.0541	2458.68	4179.05	3290.25
973.1831	2460.0416	4170.2	3284.9
973.312	2461.4025	4163.85	3274.75
973.4408	2462.7627	4168.6	3269.2
973.5697	2464.1222	4151.2	3265.55
973.6985	2465.4811	4131.4	3244.75
973.8273	2466.8392	4112	3225.75
973.956	2468.1966	4104.4	3213.85
974.0847	2469.5533	4108.8	3218.05
974.2134	2470.9093	4092.25	3204.75
974.3421	2472.2645	4078.75	3188.25
974.4707	2473.6191	4077.5	3191.4
974.5993	2474.973	4056.3	3167.4
974.7278	2476.3262	4049.05	3159.25
974.8563	2477.6787	4037.95	3152.85
974.9848	2479.0305	4015.1	3126.6
975.1132	2480.3816	4002.3	3113.5
975.2417	2481.7319	3992.65	3102.3
975.37	2483.0816	3981	3090.85
975.4984	2484.4306	3971.4	3081.55
975.6267	2485.7789	3951.75	3064.95
975.755	2487.1264	3946.25	3057.8
975.8833	2488.4733	3922.7	3036.1
976.0115	2489.8195	3932.35	3029.75
976.1397	2491.165	3908.65	3017.7
976.2678	2492.5097	3900.8	3011.6
976.3959	2493.8538	3885.95	2998.75
976.524	2495.1972	3860.7	2970.65
976.6521	2496.5398	3850	2959.15
976.7801	2497.8818	3844.55	2954.4
976.9081	2499.2231	3845	2955.9
977.036	2500.5637	3836.05	2944.15
977.164	2501.9035	3804.75	2915.05
977.2918	2503.2427	3810.4	2917.8
977.4197	2504.5812	3794.2	2905.75
977.5475	2505.919	3789.3	2898.4
977.6753	2507.256	3787.05	2900.55
977.8031	2508.5924	3763.8	2875.95
977.9308	2509.9281	3758	2862.4
978.0585	2511.2631	3747.3	2859.9
978.1861	2512.5974	3724.85	2839.55
978.3137	2513.9309	3735.05	2847.25
978.4413	2515.2638	3742.8	2832.5
978.5689	2516.596	3710.4	2820.3
978.6964	2517.9275	3692.7	2804.55
978.8239	2519.2583	3678.75	2789.35
978.9513	2520.5884	3671.9	2781.9
979.0788	2521.9178	3654.3	2766.3
979.2062	2523.2465	3653.35	2766
979.3335	2524.5745	3639.55	2752.25
979.4608	2525.9018	3625.6	2739.45
979.5881	2527.2284	3622.1	2734.25
979.7154	2528.5543	3618.5	2730.7
979.8426	2529.8796	3606.15	2717.8
979.9698	2531.2041	3601.75	2714.3
980.0969	2532.5279	3616.75	2728.45
980.224	2533.851	3594.7	2702.65
980.3511	2535.1735	3568.05	2679.9
980.4781	2536.4952	3568.3	2679.55
980.6052	2537.8163	3553.35	2663.5
980.7321	2539.1366	3537	2648.4
980.8591	2540.4562	3538.95	2647.6
980.986	2541.7752	3534.4	2646.6
981.1129	2543.0935	3525.15	2635.25
981.2397	2544.411	3511.4	2621.55
981.3665	2545.7279	3510.4	2621.35
981.4933	2547.0441	3513.55	2625.5
981.62	2548.3596	3510.3	2618.8
981.7467	2549.6744	3500.95	2612.85
981.8734	2550.9885	3494.2	2602.55
982.0001	2552.3019	3482.65	2594.35
982.1267	2553.6146	3477.6	2588
982.2532	2554.9266	3461.65	2574.8
982.3798	2556.2379	3449.85	2560.1
982.5063	2557.5485	3446.4	2558.65
982.6327	2558.8585	3430.7	2534.2
982.7592	2560.1677	3430.7	2538.25
982.8856	2561.4762	3421.15	2533.45
983.0119	2562.7841	3417.05	2524.25
983.1383	2564.0913	3411	2522.15
983.2646	2565.3977	3402.5	2515.55
983.3908	2566.7035	3391.35	2501.55
983.517	2568.0086	3390.55	2498.9
983.6432	2569.313	3380	2489.4
983.7694	2570.6167	3379.7	2486
983.8955	2571.9197	3368.5	2479.85
984.0216	2573.222	3370.25	2479
984.1476	2574.5236	3365.75	2477.65
984.2737	2575.8246	3350.9	2459.15
984.3996	2577.1248	3355.8	2463.7
984.5256	2578.4244	3334.55	2445.35
984.6515	2579.7232	3348.35	2459.5
984.7774	2581.0214	3364.25	2444.05
984.9032	2582.3189	3317.95	2429.9
985.029	2583.6157	3322.7	2431.2
985.1548	2584.9118	3318.25	2429.2
985.2806	2586.2072	3306.1	2415.8
985.4063	2587.5019	3301.95	2414.55
985.5319	2588.7959	3303.2	2414.15
985.6576	2590.0893	3298.2	2407
985.7832	2591.3819	3288.85	2398.6
985.9087	2592.6739	3278.55	2392.1
986.0343	2593.9652	3285.35	2396.95
986.1597	2595.2557	3261.55	2371.6
986.2852	2596.5456	3259.9	2369.45
986.4106	2597.8348	3257.5	2368.75
986.536	2599.1234	3239.8	2351.65
986.6614	2600.4112	3238.85	2351.35
986.7867	2601.6983	3242.4	2348.1
986.912	2602.9848	3239.9	2351.8
987.0372	2604.2705	3233.2	2339.4
987.1624	2605.5556	3210.3	2320.8
987.2876	2606.84	3187.4	2298.35
987.4128	2608.1237	3180.45	2291.8
987.5379	2609.4067	3185.15	2297.05
987.6629	2610.689	3188.4	2289.75
987.788	2611.9707	3162	2269.25
987.913	2613.2516	3150.5	2259.55
988.0379	2614.5319	3140.9	2252.1
988.1629	2615.8115	3147.75	2257.65
988.2878	2617.0903	3127.55	2236.3
988.4126	2618.3685	3115.6	2227.4
988.5375	2619.6461	3109.2	2216.9
988.6622	2620.9229	3104.7	2216.5
988.787	2622.199	3103.95	2214.2
988.9117	2623.4745	3102.5	2214.25
989.0364	2624.7493	3079.05	2191.2
989.161	2626.0234	3082.2	2194
989.2857	2627.2968	3066.45	2178.3
989.4102	2628.5695	3074.65	2183.95
989.5348	2629.8415	3046.3	2158.35
989.6593	2631.1128	3052.55	2162.45
989.7837	2632.3835	3048.25	2160.15
989.9082	2633.6535	3017.55	2131.8
990.0326	2634.9228	3031.05	2144.15
990.1569	2636.1914	3009.5	2122.25
990.2812	2637.4593	3001.8	2110.05
990.4055	2638.7265	3003.35	2112.55
990.5298	2639.9931	2996.75	2106.45
990.654	2641.259	2979.5	2090.4
990.7782	2642.5242	2974	2086.2
990.9023	2643.7887	2987.15	2099.3
991.0264	2645.0525	2970.05	2080.85
991.1505	2646.3156	2961.85	2071.5
991.2745	2647.5781	2957	2068.7
991.3985	2648.8398	2934.5	2047.45
991.5225	2650.1009	2958.5	2045.65
991.6464	2651.3613	2935.55	2045.25
991.7703	2652.6211	2922	2031.7
991.8942	2653.8801	2911.45	2022.65
992.018	2655.1385	2919.25	2028.3
992.1418	2656.3961	2899.25	2009.85
992.2655	2657.6531	2900.55	2013.2
992.3892	2658.9094	2893	2003
992.5129	2660.1651	2897.2	2008.25
992.6366	2661.42	2889.1	2000.3
992.7602	2662.6743	2883.35	1993.35
992.8837	2663.9279	2883.15	1994.9
993.0073	2665.1808	2880.25	1990.5
993.1307	2666.433	2866.2	1977.7
993.2542	2667.6846	2864.5	1975.55
993.3776	2668.9354	2880.45	1989.2
993.501	2670.1856	2865.85	1974.65
993.6244	2671.4351	2859.05	1971.75
993.7477	2672.6839	2861.35	1971.25
993.8709	2673.9321	2847.85	1962.2
993.9942	2675.1795	2850.95	1961.5
994.1174	2676.4263	2846.7	1958.3
994.2405	2677.6724	2832.05	1943.45
994.3637	2678.9179	2829.2	1939.8
994.4868	2680.1626	2819.5	1931.05
994.6098	2681.4067	2817.9	1930.25
994.7328	2682.6501	2823.3	1934.5
994.8558	2683.8928	2806.2	1918.75
994.9788	2685.1348	2809.4	1923.25
995.1017	2686.3761	2786.4	1899
995.2245	2687.6168	2788.5	1901
995.3474	2688.8568	2778.35	1889.05
995.4702	2690.0961	2770.5	1883.55
995.5929	2691.3348	2769	1880.9
995.7156	2692.5727	2765.15	1878.1
995.8383	2693.81	2746.65	1859.4
995.961	2695.0466	2730.45	1843.55
996.0836	2696.2826	2731	1839.1
996.2062	2697.5178	2745.55	1852.8
996.3287	2698.7524	2719.55	1831.3
996.4512	2699.9863	2724.15	1834.75
996.5737	2701.2195	2704.65	1819.1
996.6961	2702.452	2716.25	1827.5
996.8185	2703.6839	2721.25	1832.85
996.9408	2704.9151	2708.1	1821.3
997.0631	2706.1456	2716.7	1828.1
997.1854	2707.3755	2710	1822.3
997.3077	2708.6046	2709.1	1819.6
997.4299	2709.8331	2715.15	1825.95
997.552	2711.0609	2718.5	1830.05
997.6742	2712.2881	2721.85	1835.95
997.7963	2713.5145	2738.65	1850.9
997.9183	2714.7403	2723.2	1837.6
998.0403	2715.9654	2740.25	1852.7
998.1623	2717.1899	2745.05	1843.95
998.2842	2718.4136	2737.5	1851
998.4062	2719.6367	2746.65	1861.65
998.528	2720.8591	2747.35	1852.75
998.6498	2722.0809	2756	1867.15
998.7716	2723.3019	2756.8	1865.2
998.8934	2724.5223	2759.05	1873.05
999.0151	2725.7421	2767.65	1878.8
999.1368	2726.9611	2766.6	1876.75
999.2584	2728.1795	2740.25	1848.1
999.38	2729.3972	2748.45	1860.25
999.5016	2730.6142	2717.7	1817
999.6231	2731.8306	2692.45	1803.3
999.7446	2733.0462	2681.75	1791.3
999.8661	2734.2612	2677.5	1784.15
999.9875	2735.4756	2643.3	1754.8
1000.1089	2736.6892	2623.55	1737.2
1000.2302	2737.9022	2601.95	1716.75
1000.3515	2739.1145	2573.3	1685.45
1000.4728	2740.3262	2578.05	1688.2
1000.594	2741.5372	2550.05	1664.9
1000.7152	2742.7475	2539.05	1650.75
1000.8363	2743.9571	2517.9	1629.5
1000.9575	2745.1661	2508.15	1616.4
1001.0785	2746.3744	2504.5	1616.85
1001.1996	2747.582	2486.25	1599.55
1001.3206	2748.7889	2461.15	1572.3
1001.4415	2749.9952	2452.65	1567.9
1001.5625	2751.2008	2444.95	1558.05
1001.6833	2752.4057	2446.25	1558
1001.8042	2753.61	2436.25	1551.15
1001.925	2754.8136	2425.2	1536.35
1002.0458	2756.0165	2423.15	1537
1002.1665	2757.2188	2414.2	1527.8
1002.2872	2758.4204	2413.9	1527
1002.4078	2759.6213	2409.7	1520.15
1002.5285	2760.8215	2408.75	1516.4
1002.649	2762.0211	2398.5	1511.6
1002.7696	2763.22	2392.9	1501.25
1002.8901	2764.4182	2385.25	1498.4
1003.0106	2765.6158	2385.95	1498.65
1003.131	2766.8127	2378.2	1492.35
1003.2514	2768.009	2362.8	1475.75
1003.3717	2769.2045	2355.5	1466.75
1003.492	2770.3994	2368.25	1478.8
1003.6123	2771.5936	2346.85	1461.95
1003.7325	2772.7872	2331.1	1445.75
1003.8527	2773.9801	2325.45	1438.5
1003.9729	2775.1723	2340.4	1435.3
1004.093	2776.3639	2320.3	1435.85
1004.2131	2777.5548	2323.2	1434.8
1004.3331	2778.745	2325.5	1437
1004.4531	2779.9346	2322.45	1437.15
1004.5731	2781.1235	2305.65	1420.1
1004.693	2782.3117	2321.3	1435.65
1004.8129	2783.4992	2307.6	1422.1
1004.9328	2784.6861	2325.8	1438.45
1005.0526	2785.8723	2327.25	1440.15
1005.1723	2787.0579	2315.5	1429
1005.2921	2788.2428	2326.4	1437.8
1005.4118	2789.427	2327.5	1441.3
1005.5314	2790.6106	2331.35	1448.6
1005.651	2791.7935	2336.35	1450.95
1005.7706	2792.9757	2353.05	1467.8
1005.8902	2794.1573	2354.75	1466.55
1006.0097	2795.3382	2365.6	1481.2
1006.1291	2796.5184	2374.05	1489.85
1006.2485	2797.698	2386.25	1498.15
1006.3679	2798.8769	2402.7	1514.75
1006.4873	2800.0551	2412	1527.7
1006.6066	2801.2327	2428	1540.25
1006.7258	2802.4096	2456.25	1570.8
1006.8451	2803.5859	2450.1	1563.2
1006.9642	2804.7615	2471.95	1585
1007.0834	2805.9364	2494.2	1608.95
1007.2025	2807.1106	2528.1	1644.6
1007.3216	2808.2842	2539.3	1653.6
1007.4406	2809.4572	2579.2	1695.05
1007.5596	2810.6294	2618.95	1733.65
1007.6785	2811.801	2661.25	1777.45
1007.7975	2812.972	2687.5	1805.2
1007.9163	2814.1423	2744.1	1860.5
1008.0352	2815.3119	2784.85	1898.7
1008.154	2816.4808	2830.2	1946.25
1008.2727	2817.6491	2861.55	1974.35
1008.3914	2818.8167	2917.25	2032.15
1008.5101	2819.9837	2963.45	2072.5
1008.6288	2821.15	2996.8	2110.25
1008.7474	2822.3157	3042.45	2158.75
1008.8659	2823.4807	3092.05	2206.35
1008.9844	2824.645	3133.65	2247.2
1009.1029	2825.8086	3180.1	2296.5
1009.2214	2826.9716	3214.95	2329.7
1009.3398	2828.134	3260.65	2376.55
1009.4581	2829.2957	3279.45	2396.2
1009.5764	2830.4567	3303.4	2419.8
1009.6947	2831.617	3311.8	2426.65
1009.813	2832.7767	3316.45	2431.45
1009.9312	2833.9358	3324.55	2438.85
1010.0493	2835.0941	3298.15	2411.4
1010.1675	2836.2519	3300.85	2415.8
1010.2855	2837.4089	3287.7	2399.65
1010.4036	2838.5653	3278	2392.75
1010.5216	2839.7211	3274.4	2390
1010.6396	2840.8761	3282.45	2393.9
1010.7575	2842.0306	3315.65	2431.1
1010.8754	2843.1843	3343.85	2456.3
1010.9932	2844.3374	3382.75	2500.05
1011.111	2845.4899	3446.3	2560.4
1011.2288	2846.6417	3535.75	2650.75
1011.3465	2847.7928	3607.3	2722.75
1011.4642	2848.9433	3673.8	2789.75
1011.5818	2850.0931	3759.1	2874.7
1011.6995	2851.2422	3846.55	2959.6
1011.817	2852.3907	3909.5	3024.45
1011.9345	2853.5385	3972.3	3084.9
1012.052	2854.6857	4019.7	3124.95
1012.1695	2855.8323	4065	3180.6
1012.2869	2856.9781	4103.15	3217.35
1012.4042	2858.1233	4157.25	3271.75
1012.5216	2859.2679	4193.2	3308.75
1012.6389	2860.4118	4243.25	3360.6
1012.7561	2861.555	4289.25	3399.2
1012.8733	2862.6976	4317.45	3432.7
1012.9905	2863.8395	4341.05	3456.65
1013.1076	2864.9808	4365.6	3482.35
1013.2247	2866.1214	4390.8	3505.8
1013.3417	2867.2614	4398.05	3511.25
1013.4587	2868.4007	4398.15	3513.9
1013.5757	2869.5393	4398.7	3513.3
1013.6926	2870.6773	4416.95	3528.95
1013.8095	2871.8146	4439.3	3551.7
1013.9263	2872.9513	4422.85	3536.15
1014.0431	2874.0874	4423.7	3539.15
1014.1599	2875.2227	4410.2	3523.8
1014.2766	2876.3574	4381.3	3496.8
1014.3933	2877.4915	4362	3478.7
1014.51	2878.6249	4323.9	3439.85
1014.6266	2879.7577	4312.35	3428
1014.7431	2880.8898	4277.8	3383.3
1014.8596	2882.0212	4260.2	3377.9
1014.9761	2883.152	4240.1	3354.1
1015.0925	2884.2821	4238.2	3356.7
1015.2089	2885.4116	4222.6	3338
1015.3253	2886.5405	4218.6	3335.35
1015.4416	2887.6686	4216.3	3328.8
1015.5579	2888.7962	4226.9	3344.75
1015.6741	2889.923	4232.9	3349.75
1015.7903	2891.0493	4230.55	3348.7
1015.9065	2892.1748	4240.05	3355.25
1016.0226	2893.2997	4250.1	3366.35
1016.1387	2894.424	4269.3	3386.65
1016.2547	2895.5476	4285.15	3402.35
1016.3707	2896.6706	4308.05	3426.8
1016.4866	2897.7929	4336.1	3449.55
1016.6025	2898.9145	4359.3	3476.25
1016.7184	2900.0355	4383.1	3496.95
1016.8342	2901.1559	4413.25	3527.95
1016.95	2902.2756	4434.45	3549.85
1017.0658	2903.3946	4467.55	3583.05
1017.1815	2904.513	4488	3601.85
1017.2971	2905.6308	4516.2	3632.55
1017.4127	2906.7479	4543.8	3660
1017.5283	2907.8643	4571.25	3685.55
1017.6439	2908.9801	4582.45	3698.65
1017.7594	2910.0953	4565.4	3683.2
1017.8748	2911.2098	4568.35	3681.1
1017.9902	2912.3236	4562.25	3667.55
1018.1056	2913.4368	4551.9	3665
1018.2209	2914.5494	4535.5	3651.95
1018.3362	2915.6613	4493.7	3605.15
1018.4515	2916.7725	4459.65	3573.65
1018.5667	2917.8831	4435.3	3551.3
1018.6819	2918.9931	4403.55	3519.5
1018.797	2920.1024	4387.25	3502.05
1018.9121	2921.211	4357.7	3473.5
1019.0271	2922.319	4321.4	3437.2
1019.1421	2923.4264	4311.15	3428.7
1019.2571	2924.5331	4292.1	3408.5
1019.372	2925.6391	4282.5	3397.65
1019.4869	2926.7445	4277.3	3396.4
1019.6017	2927.8493	4247.75	3365.4
1019.7165	2928.9534	4244.65	3360.45
1019.8313	2930.0569	4231.5	3344.35
1019.946	2931.1597	4223.55	3339.8
1020.0606	2932.2619	4214.85	3332.05
1020.1753	2933.3634	4199.9	3315.95
1020.2899	2934.4643	4203.55	3312.8
1020.4044	2935.5645	4165.85	3276.25
1020.5189	2936.6641	4134.45	3247.9
1020.6334	2937.763	4075.1	3192.45
1020.7478	2938.8613	4035.3	3152.2
1020.8622	2939.959	3984.55	3095.45
1020.9765	2941.056	3895.65	3013.2
1021.0908	2942.1523	3815.85	2929.7
1021.2051	2943.248	3717.3	2833.2
1021.3193	2944.3431	3615.6	2734.75
1021.4334	2945.4375	3513.35	2630.5
1021.5476	2946.5313	3393.5	2510.4
1021.6617	2947.6244	3297.8	2413.55
1021.7757	2948.7169	3188	2303
1021.8897	2949.8087	3098.85	2215.75
1022.0037	2950.8999	2999.05	2114.4
1022.1176	2951.9904	2925.55	2042.7
1022.2315	2953.0803	2845.95	1962.95
1022.3453	2954.1696	2767.15	1882.85
1022.4591	2955.2582	2721.5	1841.3
1022.5728	2956.3462	2662.55	1779.95
1022.6865	2957.4335	2624.8	1742
1022.8002	2958.5202	2595.85	1710.6
1022.9138	2959.6062	2552.8	1669.3
1023.0274	2960.6916	2529	1645.55
1023.141	2961.7764	2532.25	1646.5
1023.2545	2962.8605	2512.2	1628.85
1023.3679	2963.9439	2487.35	1606.1
1023.4813	2965.0267	2479.75	1594.6
1023.5947	2966.1089	2485.95	1580.5
1023.708	2967.1905	2463.95	1580
1023.8213	2968.2714	2451	1570.25
1023.9346	2969.3516	2451.8	1570.15
1024.0478	2970.4312	2451.3	1561.4
1024.1609	2971.5102	2447.6	1564.35
1024.274	2972.5885	2441.15	1558.45
1024.3871	2973.6662	2447.95	1557.35
1024.5002	2974.7432	2429.35	1546.45
1024.6132	2975.8196	2423.15	1539.85
1024.7261	2976.8954	2424.05	1540.15
1024.839	2977.9705	2400.05	1515.1
1024.9519	2979.045	2387.05	1505.05
1025.0647	2980.1188	2373.35	1490
1025.1775	2981.192	2352.6	1470.2
1025.2902	2982.2645	2328.2	1446.15
1025.4029	2983.3364	2302.4	1419.4
1025.5156	2984.4077	2269.95	1388.8
1025.6282	2985.4783	2236.75	1349.15
1025.7407	2986.5483	2196.3	1315.65
1025.8532	2987.6177	2161.4	1279.1
1025.9657	2988.6864	2134.2	1252.5
1026.0782	2989.7545	2092.9	1209.8
1026.1906	2990.8219	2066.4	1185.35
1026.3029	2991.8887	2026	1142.15
1026.4152	2992.9548	1995.2	1112.3
1026.5275	2994.0204	1957.2	1076.45
1026.6397	2995.0852	1929.9	1047.8
1026.7519	2996.1495	1903.95	1018.55
1026.864	2997.2131	1891.25	1008.25
1026.9761	2998.276	1854.5	970.2
1027.0882	2999.3383	1832.45	950.4
1027.2002	3000.4	1820.85	937.15
1027.3122	3001.4611	1793.45	908.9
1027.4241	3002.5215	1787.4	905.5
1027.536	3003.5812	1757	875.05
1027.6478	3004.6404	1758.3	876.5
1027.7596	3005.6989	1747.35	862.25
1027.8714	3006.7567	1727.5	844.15
1027.9831	3007.8139	1738.3	833.5
1028.0947	3008.8705	1711.4	827.85
1028.2064	3009.9264	1728.05	829.2
1028.3179	3010.9818	1707.85	824.8
1028.4295	3012.0364	1701.6	817.25
1028.541	3013.0905	1712.4	829.65
1028.6524	3014.1439	1700	817.9
1028.7638	3015.1966	1688.55	808.95
1028.8752	3016.2487	1684.75	802.5
1028.9865	3017.3002	1693.35	803.15
1029.0978	3018.3511	1683.75	802.65
1029.209	3019.4013	1684.8	801.05
1029.3202	3020.4509	1685.4	802.3
1029.4314	3021.4998	1689.95	807.65
1029.5425	3022.5481	1678.8	797.4
1029.6535	3023.5958	1683.65	800.1
1029.7645	3024.6428	1689.45	804.65
1029.8755	3025.6892	1689.65	809.25
1029.9864	3026.735	1681.75	799.7
1030.0973	3027.7802	1679.95	795.9
1030.2082	3028.8247	1686.35	804
1030.319	3029.8685	1688.4	806.95
1030.4297	3030.9118	1690.85	808.5
1030.5404	3031.9544	1694.6	815.55
1030.6511	3032.9963	1695.5	813.25
1030.7617	3034.0376	1692.65	810.35
1030.8723	3035.0783	1702.95	817.3
1030.9829	3036.1184	1702.9	818.15
1031.0934	3037.1578	1706.45	824.15
1031.2038	3038.1966	1714.8	829.75
1031.3142	3039.2348	1704.95	826
1031.4246	3040.2723	1711.45	818.8
1031.5349	3041.3092	1704.5	824.4
1031.6452	3042.3455	1700.35	819.3
1031.7554	3043.3811	1694.15	810.85
1031.8656	3044.4161	1690.7	807.8
1031.9758	3045.4505	1666.4	785.55
1032.0859	3046.4842	1674.5	793.45
1032.1959	3047.5173	1664.35	782.6
1032.3059	3048.5498	1656.5	775.55
1032.4159	3049.5816	1653.85	772.55
1032.5258	3050.6128	1643.15	759.95
1032.6357	3051.6434	1643.7	759.7
1032.7455	3052.6734	1626	741.9
1032.8553	3053.7027	1621.6	738.05
1032.9651	3054.7314	1612.75	731.9
1033.0748	3055.7594	1603	721.25
1033.1845	3056.7868	1590.8	708.8
1033.2941	3057.8136	1590.95	709.75
1033.4037	3058.8398	1587.5	706.65
1033.5132	3059.8653	1579.9	699.4
1033.6227	3060.8902	1568.95	686.05
1033.7321	3061.9145	1555.6	675.5
1033.8415	3062.9381	1568.1	686.95
1033.9509	3063.9612	1568.6	673.35
1034.0602	3064.9835	1543	660
1034.1694	3066.0053	1536.15	652.15
1034.2787	3067.0264	1525.7	642.85
1034.3878	3068.0469	1525.5	643.35
1034.497	3069.0668	1512.95	628.55
1034.6061	3070.086	1496.5	615.55
1034.7151	3071.1046	1485.4	601.1
1034.8241	3072.1226	1481	598.55
1034.9331	3073.1399	1469.35	588.05
1035.042	3074.1567	1460.8	578.75
1035.1508	3075.1727	1453.8	570.55
1035.2597	3076.1882	1436.9	555.35
1035.3684	3077.203	1435	552.05
1035.4772	3078.2173	1426.15	542.55
1035.5859	3079.2308	1418.9	532.7
1035.6945	3080.2438	1407.8	524.15
1035.8031	3081.2561	1393.6	511.5
1035.9117	3082.2678	1381.45	498.75
1036.0202	3083.2789	1377.65	494.7
1036.1286	3084.2893	1376.15	494.7
1036.2371	3085.2991	1369.7	486.85
1036.3454	3086.3083	1359.85	472.9
1036.4538	3087.3169	1356.6	473.6
1036.562	3088.3248	1348.4	465.6
1036.6703	3089.3321	1348.15	466.5
1036.7785	3090.3388	1339.2	458.1
1036.8866	3091.3449	1331.1	448.25
1036.9948	3092.3503	1327.55	443.15
1037.1028	3093.3551	1321.05	441.35
1037.2108	3094.3593	1314.35	434.5
1037.3188	3095.3629	1310.85	431.3
1037.4267	3096.3658	1306.9	424.35
1037.5346	3097.3681	1303.6	422.1
1037.6425	3098.3698	1304	420.7
1037.7503	3099.3708	1302.65	417.1
1037.858	3100.3713	1285.65	404.75
1037.9657	3101.3711	1289.5	407.25
1038.0734	3102.3702	1418.95	400.6
1038.181	3103.3688	1284.2	400.05
1038.2886	3104.3667	1280.25	398.05
1038.3961	3105.364	1279.05	397.65
1038.5036	3106.3607	1273.6	390.45
1038.611	3107.3568	1272.5	388.7
1038.7184	3108.3522	1265.6	383.2
1038.8257	3109.347	1269.25	387.85
1038.933	3110.3412	1261.1	375.9
1039.0403	3111.3348	1254.55	373.8
1039.1475	3112.3277	1254.9	376.4
1039.2547	3113.32	1249.3	369.05
1039.3618	3114.3117	1252.75	370.95
1039.4689	3115.3028	1250.35	370.1
1039.5759	3116.2932	1246.05	363.1
1039.6829	3117.2831	1255.4	367.8
1039.7898	3118.2723	1244	364.2
1039.8967	3119.2608	1241.1	359.6
1040.0035	3120.2488	1238.95	356
1040.1103	3121.2361	1235.45	354.8
1040.2171	3122.2229	1237.2	357.1
1040.3238	3123.209	1228.35	347.1
1040.4305	3124.1944	1229.4	346.85
1040.5371	3125.1793	1231.1	347.85
1040.6437	3126.1635	1216.25	335.8
1040.7502	3127.1471	1216.35	334.5
1040.8567	3128.1301	1215.4	334.25
1040.9631	3129.1125	1217.65	335.55
1041.0695	3130.0942	1216.45	335.1
1041.1759	3131.0753	1221.45	330.95
1041.2822	3132.0558	1216.25	331.3
1041.3884	3133.0357	1209.9	327.8
1041.4946	3134.015	1210.65	329.9
1041.6008	3134.9936	1207.4	326.25
1041.7069	3135.9716	1221.95	322.45
1041.813	3136.949	1207.1	326.15
1041.919	3137.9258	1221.2	321.05
1042.025	3138.902	1197.4	310.55
1042.1309	3139.8775	1193.85	311.35
1042.2368	3140.8524	1192.1	312.4
1042.3427	3141.8267	1194.75	310.25
1042.4485	3142.8004	1192.2	309.5
1042.5542	3143.7735	1194.8	308.05
1042.6599	3144.7459	1189.8	306.6
1042.7656	3145.7178	1188.25	306.7
1042.8712	3146.689	1181.15	301.6
1042.9768	3147.6596	1182.25	298.15
1043.0823	3148.6295	1179.9	295.8
1043.1878	3149.5989	1175.25	293.3
1043.2932	3150.5676	1173.85	294.15
1043.3986	3151.5357	1174.5	295.1
1043.5039	3152.5032	1165.3	285.05
1043.6092	3153.4701	1168	286.2
1043.7145	3154.4364	1172.65	288.25
1043.8197	3155.402	1165.25	285.85
1043.9248	3156.367	1165.45	281.05
1044.03	3157.3315	1189.7	283.8
1044.135	3158.2952	1163.75	283.9
1044.24	3159.2584	1162.75	281.8
1044.345	3160.221	1158.7	277.45
1044.4499	3161.1829	1152.65	271.85
1044.5548	3162.1442	1155.1	272.45
1044.6596	3163.105	1158.75	278.1
1044.7644	3164.065	1148.6	265.35
1044.8692	3165.0245	1150.7	267.4
1044.9739	3165.9834	1143.85	261.4
1045.0785	3166.9416	1143.15	261.4
1045.1831	3167.8993	1145.35	263.5
1045.2877	3168.8563	1145.5	264.45
1045.3922	3169.8127	1142.4	261.2
1045.4966	3170.7684	1140.6	260.95
1045.6011	3171.7236	1139.05	256.3
1045.7054	3172.6782	1136.25	255.5
1045.8098	3173.6321	1136.05	254.35
1045.914	3174.5854	1140.1	255.25
1046.0183	3175.5381	1133.25	251.75
1046.1224	3176.4902	1132.25	253.35
1046.2266	3177.4417	1136.1	255.45
1046.3307	3178.3926	1127.5	247.7
1046.4347	3179.3428	1123.3	242.45
1046.5387	3180.2924	1124.75	244.75
1046.6427	3181.2415	1124	242.9
1046.7466	3182.1899	1124.9	242.6
1046.8504	3183.1377	1120.95	240.3
1046.9542	3184.0848	1122	238.55
1047.058	3185.0314	1120.05	238.8
1047.1617	3185.9773	1126.15	242.6
1047.2654	3186.9227	1116.55	233.95
1047.369	3187.8674	1115.8	232.65
1047.4726	3188.8115	1117.85	234.5
1047.5761	3189.755	1114.15	234.05
1047.6796	3190.6979	1108.75	228.8
1047.783	3191.6402	1102.3	224.25
1047.8864	3192.5818	1110	228.75
1047.9898	3193.5229	1112.15	225.65
1048.0931	3194.4633	1104.2	222.95
1048.1963	3195.4031	1104.6	222.35
1048.2995	3196.3423	1105.25	223.65
1048.4027	3197.2809	1103.55	220.85
1048.5058	3198.2189	1100.3	218.8
1048.6089	3199.1563	1104.4	217.45
1048.7119	3200.0931	1098.55	218.5
1048.8148	3201.0292	1096.9	216.8
1048.9178	3201.9648	1092.5	210.8
1049.0206	3202.8997	1101.15	215.85
1049.1235	3203.834	1093.8	213.45
1049.2262	3204.7677	1100.9	218.55
1049.329	3205.7008	1092.15	209.05
1049.4317	3206.6333	1089.95	213.1
1049.5343	3207.5652	1088.8	204.75
1049.6369	3208.4964	1095.05	216.4
1049.7394	3209.4271	1088.65	208.6
1049.8419	3210.3571	1085.7	206.3
1049.9444	3211.2865	1086.1	206.3
1050.0468	3212.2154	1084.95	202.4
1050.1491	3213.1436	1084.2	201.95
1050.2514	3214.0712	1089.05	200.8
1050.3537	3214.9982	1081.9	202.25
1050.4559	3215.9246	1079.05	197.15
1050.5581	3216.8503	1081.25	201.15
1050.6602	3217.7755	1077.35	195.3
1050.7623	3218.7001	1074.55	192.6
1050.8643	3219.624	1080.2	199.95
1050.9663	3220.5473	1075.85	195.1
1051.0682	3221.4701	1078.3	196.1
1051.1701	3222.3922	1077.8	196.05
1051.2719	3223.3137	1070.2	189.15
1051.3737	3224.2346	1074.1	193.9
1051.4754	3225.1549	1074.1	192.5
1051.5771	3226.0746	1071.05	190
1051.6788	3226.9937	1065.5	186.1
1051.7804	3227.9121	1065.5	186.55
1051.8819	3228.83	1064.2	183.5
1051.9834	3229.7473	1069.95	190.65
1052.0849	3230.6639	1061.95	180.45
1052.1863	3231.5799	1058.55	179.65
1052.2876	3232.4954	1063.2	179.85
1052.3889	3233.4102	1064.05	184.25
1052.4902	3234.3244	1061.2	178.65
1052.5914	3235.238	1054.9	174.55
1052.6926	3236.151	1087.65	180.2
1052.7937	3237.0634	1054.45	176.85
1052.8948	3237.9752	1056.55	176.55
1052.9958	3238.8864	1057.55	178.8
1053.0968	3239.797	1053.7	173.75
1053.1977	3240.7069	1054.85	172.85
1053.2986	3241.6163	1056.95	175.35
1053.3994	3242.5251	1047.55	167.15
1053.5002	3243.4332	1050.85	171.45
1053.6009	3244.3408	1045.8	163.6
1053.7016	3245.2477	1045.1	165.5
1053.8022	3246.154	1046.9	164.6
1053.9028	3247.0598	1040.95	159.5
1054.0034	3247.9649	1047	166.5
1054.1039	3248.8694	1045.45	164.85
1054.2043	3249.7733	1041.3	162.55
1054.3047	3250.6766	1039.8	161.3
1054.4051	3251.5793	1046.05	163.05
1054.5054	3252.4814	1039.7	159.3
1054.6056	3253.3829	1034.15	153.75
1054.7058	3254.2838	1036.7	157.1
1054.806	3255.1841	1035.6	156
1054.9061	3256.0838	1035.5	154.85
1055.0061	3256.9829	1032.15	154.55
1055.1062	3257.8814	1031.6	149.25
1055.2061	3258.7792	1036.25	154.3
1055.306	3259.6765	1029.8	147.65
1055.4059	3260.5731	1024.95	145.4
1055.5057	3261.4692	1023.45	143.45
1055.6055	3262.3647	1023.7	141.3
1055.7052	3263.2595	1021.75	141.85
1055.8049	3264.1538	1021.35	142.55
1055.9045	3265.0474	1014.75	132.45
1056.0041	3265.9404	1019.75	141.2
1056.1036	3266.8329	1014.15	134.45
1056.2031	3267.7247	1017.7	127.7
1056.3025	3268.616	1006.75	129.05
1056.4019	3269.5066	1002.9	122.05
1056.5013	3270.3966	1004.25	123.55
1056.6005	3271.286	1001.35	123
