Software Version:	3.9.2.0
Unit SN:	10000200
Spectrometer SN:	6960
Date:	3/26/2024 1:28:22 PM
Data Line Index:	25
Spectral Points:	2048
Integration time (ms):	125
Averages:	20
Delay (ms):	30000
Sequence Number:	1
Processing:	dark subtract
Laser Power (mW):	305
Laser Current (mA):	821
Laser Diode Temp (C):	25
Laser Case Temp (C):	26.8
System Temp (C):	26.8
Spectrometer Temp (C):	24.5
CCD Temp (C):	0
Secondary Temp (C):	20.008
Heatsink Temp (C):	22.433
CCDPCB Temp (C):	36.54
SecondaryPCB Temp (C):	33.539

Wavelength	RamanShift	Raw Counts	Dark Subtracted
787.061	30.1047	496.85	86.35
787.2016	32.3739	501.3	91.25
787.3422	34.6426	510.95	99.35
787.4828	36.9109	523	110.4
787.6235	39.1787	528.9	112.95
787.7642	41.4461	538.95	118.15
787.9049	43.7131	552.05	129
788.0456	45.9796	561.7	133.6
788.1863	48.2456	570.05	139.6
788.3271	50.5112	584.2	148.7
788.4679	52.7764	594.3	154.7
788.6087	55.0411	607.95	166.7
788.7496	57.3054	620.15	173.55
788.8904	59.5692	636.85	187.75
789.0313	61.8326	652.15	200.2
789.1722	64.0955	668.3	211.35
789.3132	66.3579	691.85	231.45
789.4541	68.6199	713.4	248.55
789.5951	70.8815	759.15	292.05
789.7361	73.1426	845.4	374.9
789.8771	75.4032	1074.55	599.05
790.0181	77.6634	1634.2	1151.8
790.1592	79.9231	2991.6	2501.85
790.3003	82.1824	5985.7	5484.1
790.4414	84.4412	11502.9	10985.9
790.5825	86.6995	19314.05	18766
790.7237	88.9574	27131.95	26564.3
790.8648	91.2148	32931.45	32349.3
791.006	93.4717	35878.65	35281.4
791.1472	95.7282	37017.55	36417.35
791.2885	97.9842	37463.6	36858
791.4297	100.2398	37583.65	36978.4
791.571	102.4949	37298.45	36689.1
791.7123	104.7495	37251.25	36636.4
791.8536	107.0036	36894.35	36279.65
791.9949	109.2573	36980.95	36366.5
792.1363	111.5105	36605.75	35987.7
792.2777	113.7632	36625.7	36005.95
792.4191	116.0154	36536.5	35908.2
792.5605	118.2672	36642.25	36016.1
792.7019	120.5185	36557.45	35933.7
792.8434	122.7693	36538.65	35911.25
792.9849	125.0197	36498.2	35870.8
793.1264	127.2696	36665.75	36035.35
793.2679	129.519	36737.85	36101.25
793.4094	131.7679	36810.1	36172.15
793.551	134.0163	36366.7	35725.15
793.6926	136.2642	36499.95	35851.45
793.8342	138.5117	36607.25	35952.45
793.9758	140.7587	36509.95	35855.1
794.1175	143.0052	36489.4	35836.85
794.2591	145.2512	36203.95	35549.55
794.4008	147.4967	36335.15	35681.6
794.5425	149.7417	36213.5	35558
794.6842	151.9863	36111.9	35450.75
794.826	154.2304	35939.8	35279.5
794.9677	156.4739	35932.1	35264.35
795.1095	158.717	35998.55	35333.6
795.2513	160.9596	35889.9	35211.75
795.3931	163.2017	35683.6	35008.35
795.535	165.4433	35733.5	35055.55
795.6768	167.6844	35603.9	34926.75
795.8187	169.925	35596.65	34913.8
795.9606	172.1651	35393.35	34710
796.1025	174.4047	35280.35	34592.8
796.2445	176.6439	35281.05	34593.2
796.3864	178.8825	35245.75	34554.15
796.5284	181.1206	35276.65	34581.25
796.6704	183.3582	35198.05	34497.25
796.8124	185.5954	35089.3	34385.95
796.9544	187.832	35143.75	34434.75
797.0965	190.0681	35131.4	34422.8
797.2386	192.3037	35248.2	34534.65
797.3806	194.5388	35328.45	34613.75
797.5228	196.7734	35139.45	34421.85
797.6649	199.0075	35309.9	34591.6
797.807	201.2411	35481.8	34755.65
797.9492	203.4742	35552.6	34826.3
798.0914	205.7068	35622.85	34897
798.2336	207.9389	35637.6	34913.35
798.3758	210.1704	35717.4	34989.2
798.518	212.4015	35736.15	35003.85
798.6603	214.632	35681.85	34948.3
798.8025	216.862	35807.15	35082.1
798.9448	219.0915	35820.1	35106.45
799.0871	221.3205	35833.35	35118.8
799.2294	223.549	35924.25	35212.65
799.3718	225.777	36002.2	35292.25
799.5141	228.0044	36030.05	35319.8
799.6565	230.2314	36119.75	35408.8
799.7989	232.4578	36084.25	35375.8
799.9413	234.6837	36133.4	35415.15
800.0837	236.909	36325.35	35605.15
800.2262	239.1339	36141.25	35393.5
800.3687	241.3582	36225.5	35492.8
800.5111	243.582	36112.05	35350.9
800.6536	245.8053	36172.5	35423.75
800.7961	248.0281	36134.2	35390.5
800.9387	250.2503	36147.7	35397.65
801.0812	252.472	36155.25	35400.4
801.2238	254.6932	36228.55	35468.35
801.3664	256.9139	36153.45	35394.1
801.509	259.134	36283.3	35521.7
801.6516	261.3536	36127.7	35366.2
801.7942	263.5727	36406.3	35642.15
801.9369	265.7912	36348.5	35585.65
802.0795	268.0092	36428.15	35664.55
802.2222	270.2267	36426.55	35659.65
802.3649	272.4436	36452.8	35688.85
802.5076	274.6601	36498.4	35729.95
802.6504	276.8759	36387.9	35620.7
802.7931	279.0913	36415.05	35646.65
802.9359	281.3061	36333.8	35564.25
803.0787	283.5204	36403.95	35628.6
803.2215	285.7341	36418.25	35639.55
803.3643	287.9473	36512.35	35722.35
803.5071	290.16	36486.2	35700.9
803.6499	292.3721	36536.75	35760.55
803.7928	294.5837	36389.5	35607.2
803.9357	296.7947	36395.05	35613.9
804.0786	299.0052	36514.15	35731.45
804.2215	301.2152	36400.5	35617.75
804.3644	303.4246	36465.05	35688.4
804.5074	305.6334	36312.3	35536.2
804.6503	307.8418	36207.55	35422.6
804.7933	310.0495	36144.4	35362.3
804.9363	312.2568	35959.95	35175.35
805.0793	314.4635	35797.8	35007.25
805.2223	316.6696	35693.5	34907.1
805.3653	318.8752	35524.95	34730.05
805.5084	321.0802	35408.2	34617.2
805.6514	323.2847	35441.3	34648.2
805.7945	325.4887	35405.05	34613.85
805.9376	327.692	35366.45	34569.1
806.0807	329.8949	35438.35	34644.9
806.2238	332.0972	35323.05	34525.5
806.367	334.2989	35263.8	34462.8
806.5101	336.5001	35217.35	34415.8
806.6533	338.7007	35190.65	34394
806.7965	340.9008	35159.15	34357.35
806.9397	343.1003	35087.5	34283.5
807.0829	345.2992	35047.75	34244.3
807.2261	347.4976	35034.35	34227.65
807.3693	349.6955	34984.8	34175.9
807.5126	351.8927	35042.3	34231.7
807.6559	354.0895	34914.4	34096.9
807.7991	356.2856	34975.1	34161.3
807.9424	358.4812	34891.1	34080.5
808.0857	360.6763	34857.4	34042.35
808.2291	362.8707	34806.55	33996.9
808.3724	365.0646	34902.15	34088.45
808.5158	367.258	34800.35	33985.95
808.6591	369.4508	34748.75	33924.8
808.8025	371.643	34854.75	34031.2
808.9459	373.8346	34696.55	33870.3
809.0893	376.0257	34675.95	33851.8
809.2327	378.2162	34618.05	33792.95
809.3762	380.4062	34631.2	33805.35
809.5196	382.5956	34546.7	33717.35
809.6631	384.7844	34514.95	33687.55
809.8066	386.9726	34345.05	33518.15
809.9501	389.1603	34300.9	33469.95
810.0936	391.3474	34263.4	33400.05
810.2371	393.5339	34295.85	33465.55
810.3806	395.7199	34082.25	33263.8
810.5241	397.9052	34160.2	33340.7
810.6677	400.09	34099.35	33280.4
810.8113	402.2743	34078.15	33258.55
810.9548	404.4579	34040.35	33221.85
811.0984	406.641	34205.9	33383.1
811.2421	408.8235	34217.55	33398.95
811.3857	411.0054	34241.6	33418.15
811.5293	413.1868	34381.8	33552.7
811.673	415.3675	34317.9	33487.05
811.8166	417.5477	34306.25	33476
811.9603	419.7273	34248.35	33416.55
812.104	421.9064	34135.1	33296.45
812.2477	424.0848	34070.85	33237.35
812.3914	426.2627	33981.7	33143.85
812.5351	428.4399	33875.9	33035.5
812.6788	430.6166	33722.35	32878
812.8226	432.7928	33598	32750.25
812.9663	434.9683	33423.7	32583.65
813.1101	437.1432	33384.75	32546.05
813.2539	439.3176	33227	32386.3
813.3977	441.4914	33108.6	32269.85
813.5415	443.6645	33105.35	32263.95
813.6853	445.8371	32946.35	32100.35
813.8291	448.0091	32801.95	31956.55
813.973	450.1806	32729.35	31885.35
814.1168	452.3514	32623.2	31779.05
814.2607	454.5216	32675.15	31826.6
814.4046	456.6913	32496.1	31650.2
814.5485	458.8603	32525.55	31681.15
814.6924	461.0288	32561.35	31717.75
814.8363	463.1967	32443.45	31602.85
814.9802	465.3639	32510.7	31664.1
815.1241	467.5306	32456.85	31608.05
815.2681	469.6967	32385.6	31542.25
815.412	471.8622	32306.25	31460.95
815.556	474.0271	32285.8	31441.3
815.7	476.1914	32304.25	31452.9
815.844	478.3551	32250.3	31399.85
815.988	480.5182	32352.8	31505.5
816.132	482.6807	32310.1	31467.25
816.276	484.8426	32385.55	31546.1
816.4201	487.0039	32518.35	31672.95
816.5641	489.1647	32559.2	31706.7
816.7082	491.3248	32684.15	31831.5
816.8522	493.4843	32658.35	31808.7
816.9963	495.6432	32609.3	31761.05
817.1404	497.8015	32494.1	31637.4
817.2845	499.9592	32517.8	31660.55
817.4286	502.1163	32441.55	31583.45
817.5727	504.2728	32321.2	31465.95
817.7168	506.4287	32299.5	31448.85
817.861	508.5839	32103.9	31253
818.0051	510.7386	32042.1	31187.9
818.1493	512.8927	32066	31202.75
818.2935	515.0461	32044.05	31192.4
818.4377	517.199	32016.1	31154.8
818.5818	519.3512	31998.5	31138.2
818.726	521.5029	32078.45	31214.2
818.8703	523.6539	32126.4	31268.3
819.0145	525.8043	32092.35	31233.3
819.1587	527.9541	32064.2	31201.55
819.303	530.1033	31963.5	31101.65
819.4472	532.2519	31902.55	31040.1
819.5915	534.3999	31853.15	30991.3
819.7357	536.5472	31837.35	30977.05
819.88	538.694	31892.4	31031.1
820.0243	540.8401	31981.3	31117.95
820.1686	542.9856	32058.3	31188.4
820.3129	545.1305	31980.15	31107.2
820.4572	547.2748	32030.4	31157.3
820.6016	549.4185	31985.4	31110.25
820.7459	551.5615	31878.8	31005.5
820.8902	553.704	31875.7	31003.8
821.0346	555.8458	31810.25	30939.05
821.1789	557.987	31841.2	30973
821.3233	560.1276	31832.45	30961
821.4677	562.2675	31966.35	31094.2
821.6121	564.4069	32045	31173.35
821.7565	566.5456	32049.75	31181.85
821.9009	568.6837	32114	31242.45
822.0453	570.8212	31931.6	31061.85
822.1897	572.958	31713.7	30841.05
822.3342	575.0942	31502.45	30636.45
822.4786	577.2299	31331.1	30464.55
822.6231	579.3648	31227	30366.65
822.7675	581.4992	31042.45	30183.25
822.912	583.6329	30994.4	30137.5
823.0565	585.766	31003	30141.7
823.201	587.8985	31000.4	30137.45
823.3454	590.0304	30926.05	30045.4
823.4899	592.1616	30901.2	30027.5
823.6345	594.2922	30829.15	29953.7
823.779	596.4222	30712.5	29835.25
823.9235	598.5515	30597.6	29721.6
824.068	600.6802	30513.05	29634
824.2126	602.8083	30358.5	29480.45
824.3571	604.9358	30346.3	29467.15
824.5017	607.0626	30252.15	29374.35
824.6462	609.1888	30214.5	29333.65
824.7908	611.3144	30257.55	29374.9
824.9354	613.4393	30219.3	29338.95
825.08	615.5636	30265	29382.55
825.2246	617.6873	30202.2	29321.05
825.3692	619.8103	30209	29327.4
825.5138	621.9327	30118.05	29235.2
825.6584	624.0544	30067.9	29191.25
825.803	626.1756	30017.95	29142.35
825.9477	628.2961	29907.3	29025.5
826.0923	630.4159	29885.8	29003.65
826.237	632.5351	29852.6	28967.45
826.3816	634.6537	29795.6	28910.15
826.5263	636.7716	29760.85	28872.95
826.6709	638.8889	29815.25	28930.6
826.8156	641.0056	29844	28955.75
826.9603	643.1216	29772.9	28885.95
827.105	645.237	29772.7	28885.05
827.2497	647.3518	29642.7	28759.3
827.3944	649.4659	29687.35	28806.25
827.5391	651.5793	29589.45	28709.1
827.6838	653.6922	29555.45	28675.25
827.8285	655.8043	29487.25	28603.2
827.9733	657.9159	29475.1	28592.9
828.118	660.0268	29347.05	28463.65
828.2627	662.137	29363.3	28476.75
828.4075	664.2466	29347.85	28457.55
828.5522	666.3556	29306.7	28418.7
828.697	668.4639	29209.05	28318.05
828.8418	670.5716	29217.6	28333
828.9865	672.6786	29188.15	28301.95
829.1313	674.785	29070.95	28184.5
829.2761	676.8907	29013.8	28127.05
829.4209	678.9958	29076.15	28188.9
829.5657	681.1002	28955.65	28067.8
829.7105	683.204	28924.55	28031.5
829.8553	685.3072	28846.6	27957.4
830.0001	687.4097	28774.2	27882.7
830.1449	689.5115	28765.95	27870.65
830.2898	691.6127	28786.45	27895.15
830.4346	693.7132	28697.45	27805.9
830.5794	695.8131	28743.35	27836.5
830.7243	697.9123	28742.95	27849.35
830.8691	700.0109	28640.3	27742.25
831.014	702.1089	28631.85	27734.4
831.1588	704.2061	28635.25	27741.9
831.3037	706.3028	28614.15	27718.9
831.4486	708.3987	28611.5	27717
831.5935	710.4941	28529.8	27632.8
831.7383	712.5887	28544.75	27648.95
831.8832	714.6827	28519.45	27623
832.0281	716.7761	28543.95	27653.35
832.173	718.8688	28563.1	27667.5
832.3179	720.9608	28499.75	27603.9
832.4628	723.0522	28571.1	27669.7
832.6077	725.1429	28491.85	27593.25
832.7527	727.233	28522.55	27624.25
832.8976	729.3224	28533	27634.95
833.0425	731.4112	28378.55	27481.5
833.1874	733.4993	28309.9	27413.3
833.3324	735.5867	28134.65	27238.75
833.4773	737.6735	28100.85	27203.55
833.6222	739.7596	28034	27133.4
833.7672	741.845	27927.4	27029.1
833.9122	743.9298	27841.1	26940.95
834.0571	746.014	27807.65	26907.65
834.2021	748.0974	27750.95	26847.25
834.347	750.1802	27670.5	26767.15
834.492	752.2624	27614.1	26712.95
834.637	754.3439	27538.65	26635.05
834.782	756.4247	27479.75	26570.5
834.9269	758.5048	27357.5	26455.05
835.0719	760.5843	27413.7	26511.8
835.2169	762.6631	27400.55	26498.4
835.3619	764.7413	27460.1	26560.15
835.5069	766.8188	27636.7	26736.4
835.6519	768.8956	27647.3	26738.85
835.7969	770.9718	27827.35	26926.75
835.9419	773.0473	27617.8	26714.35
836.0869	775.1221	27599	26696.4
836.232	777.1962	27454	26550.75
836.377	779.2697	27334.75	26429.05
836.522	781.3426	27318.35	26396.9
836.667	783.4147	27260.55	26357
836.8121	785.4862	27295.8	26391.35
836.9571	787.557	27181.75	26274.6
837.1021	789.6271	27030.25	26126.4
837.2472	791.6966	26825.25	25922.1
837.3922	793.7654	26577.05	25671.3
837.5373	795.8335	26450.9	25545.85
837.6823	797.901	26325.7	25420.55
837.8274	799.9678	26256.75	25351.6
837.9724	802.0339	26127.4	25223.35
838.1175	804.0993	26120.45	25203.3
838.2626	806.1641	25994.75	25088.3
838.4076	808.2282	25935.15	25027.55
838.5527	810.2916	25873.2	24966.05
838.6978	812.3544	25860.5	24957
838.8428	814.4164	25785.45	24881.55
838.9879	816.4778	25818.6	24911.85
839.133	818.5385	25684	24777
839.2781	820.5986	25750.65	24842.45
839.4232	822.658	25764.8	24856.7
839.5682	824.7166	25719.9	24810.65
839.7133	826.7747	25861.6	24950.45
839.8584	828.832	25948.15	25040.65
840.0035	830.8886	25913.85	25005.4
840.1486	832.9446	25958.25	25047.4
840.2937	834.9999	25871.15	24961.9
840.4388	837.0545	25767.85	24857.25
840.5839	839.1085	25653.15	24743.65
840.729	841.1618	25456.95	24541.55
840.8741	843.2143	25364.55	24455.55
841.0192	845.2662	25258.8	24349.4
841.1643	847.3175	25228.3	24321.45
841.3095	849.368	25111.7	24200.15
841.4546	851.4179	25040.95	24130.9
841.5997	853.467	24878.1	23969.05
841.7448	855.5155	24821.3	23912.45
841.8899	857.5633	24793.65	23884.2
842.0351	859.6105	24672.4	23760.35
842.1802	861.6569	24597.7	23688.55
842.3253	863.7027	24543.35	23632.15
842.4704	865.7478	24552.75	23641.65
842.6156	867.7922	24510.2	23598.9
842.7607	869.8359	24438.2	23524.85
842.9058	871.8789	24399.35	23487.3
843.0509	873.9212	24388.35	23445.2
843.1961	875.9629	24291.25	23381.55
843.3412	878.0039	24361.25	23450.6
843.4863	880.0441	24272.25	23364.2
843.6315	882.0837	24298.75	23387.75
843.7766	884.1226	24258.05	23347.45
843.9218	886.1609	24258.55	23348.9
844.0669	888.1984	24215.9	23306.85
844.212	890.2352	24258.05	23346.4
844.3572	892.2714	24195.9	23278.25
844.5023	894.3069	24163.95	23254.45
844.6475	896.3416	24013.7	23100.3
844.7926	898.3757	23951.1	23037.25
844.9377	900.4091	23887.45	22970.9
845.0829	902.4418	23844.2	22927.95
845.228	904.4739	23761.95	22847.25
845.3732	906.5052	23763.85	22847.4
845.5183	908.5358	23703.35	22791.1
845.6635	910.5658	23598	22681.25
845.8086	912.595	23525.7	22611.5
845.9538	914.6236	23378.9	22463.75
846.0989	916.6515	23344.1	22431.15
846.2441	918.6786	23237.15	22320.2
846.3892	920.7051	23191.45	22276.2
846.5344	922.7309	23173.7	22258.8
846.6795	924.756	23053.7	22138.4
846.8246	926.7804	23062	22148.05
846.9698	928.8041	22888.35	21971.5
847.1149	930.8272	22898.95	21984.9
847.2601	932.8495	22786.85	21867.9
847.4052	934.8711	22773.15	21857.05
847.5504	936.892	22688.8	21773.35
847.6955	938.9123	22592.95	21675.1
847.8407	940.9318	22556.9	21642.2
847.9858	942.9506	22521.9	21605.85
848.131	944.9688	22343.05	21425.45
848.2761	946.9862	22299	21383.65
848.4213	949.003	22163.95	21248.3
848.5664	951.019	22076.5	21159.85
848.7115	953.0344	21982.45	21064.55
848.8567	955.0491	21962.95	21045.25
849.0018	957.063	21907.75	20989.8
849.147	959.0763	21976.65	21055
849.2921	961.0888	21881.95	20965.3
849.4373	963.1007	21881.65	20968.1
849.5824	965.1119	21835.85	20924.85
849.7275	967.1223	21772.1	20864.75
849.8727	969.1321	21742.7	20832.85
850.0178	971.1412	21694.65	20783.65
850.1629	973.1495	21636.95	20723.6
850.3081	975.1572	21577.05	20643.35
850.4532	977.1641	21548.25	20633.25
850.5983	979.1704	21488.5	20572.25
850.7435	981.1759	21377.55	20459.25
850.8886	983.1808	21372.4	20455.2
851.0337	985.1849	21289.5	20362.35
851.1788	987.1884	21239.85	20320.95
851.324	989.1911	21220.05	20302.85
851.4691	991.1932	21185.95	20270.95
851.6142	993.1945	21139.4	20224.75
851.7593	995.1951	21008.85	20093.55
851.9045	997.1951	20981	20056.15
852.0496	999.1943	20852.65	19936.95
852.1947	1001.1928	20763.45	19844.7
852.3398	1003.1906	20643.7	19727
852.4849	1005.1877	20690.7	19771.65
852.63	1007.1841	20604.9	19687.85
852.7751	1009.1798	20551.85	19637.3
852.9202	1011.1748	20454.05	19539.25
853.0653	1013.1691	20342.6	19427.9
853.2104	1015.1627	20225.6	19308.9
853.3555	1017.1556	20067.5	19150.4
853.5006	1019.1477	19964.25	19045.4
853.6457	1021.1392	19838.2	18925.65
853.7908	1023.1299	19727.85	18816
853.9359	1025.12	19689.95	18779.9
854.081	1027.1093	19588.1	18687.6
854.2261	1029.0979	19567.4	18667.65
854.3712	1031.0859	19508.7	18606.4
854.5163	1033.0731	19489	18582.25
854.6613	1035.0596	19396.45	18483.8
854.8064	1037.0454	19266.5	18350
854.9515	1039.0304	19185.95	18271.8
855.0965	1041.0148	19065.9	18150.55
855.2416	1042.9985	18973.15	18058.55
855.3867	1044.9814	18939.35	18026.6
855.5317	1046.9636	18880.4	17962.9
855.6768	1048.9452	18757.7	17843.6
855.8219	1050.926	18728.5	17818.8
855.9669	1052.9061	18694.7	17779.8
856.112	1054.8855	18635.7	17722.9
856.257	1056.8642	18631.55	17712.8
856.4021	1058.8421	18603.55	17684.3
856.5471	1060.8194	18537.05	17623.4
856.6921	1062.7959	18483.4	17566.35
856.8372	1064.7717	18477.25	17562
856.9822	1066.7469	18458.05	17541.95
857.1272	1068.7213	18431.85	17511.9
857.2723	1070.695	18426.6	17512.6
857.4173	1072.6679	18315.35	17397.4
857.5623	1074.6402	18290.9	17370.85
857.7073	1076.6117	18311.75	17390.65
857.8523	1078.5826	18230.65	17314.25
857.9973	1080.5527	18125.6	17204.3
858.1423	1082.5221	18036.85	17120.9
858.2873	1084.4908	17956.8	17041.1
858.4323	1086.4587	17886.8	16969.25
858.5773	1088.426	17880.95	16963.55
858.7223	1090.3925	17792.1	16868.9
858.8673	1092.3584	17795.35	16877.1
859.0123	1094.3235	17753.7	16837.8
859.1573	1096.2879	17661.7	16745.6
859.3022	1098.2515	17659.55	16742.85
859.4472	1100.2145	17706.05	16791.05
859.5922	1102.1767	17692.1	16775.95
859.7371	1104.1382	17702.3	16788.9
859.8821	1106.099	17689.7	16770.4
860.027	1108.0591	17726.8	16812.9
860.172	1110.0185	17689.5	16772.65
860.3169	1111.9771	17687.05	16774.15
860.4619	1113.9351	17621.35	16705.1
860.6068	1115.8923	17549	16631.6
860.7517	1117.8488	17462.85	16544.15
860.8967	1119.8045	17272.75	16354.75
861.0416	1121.7596	17257.9	16342.6
861.1865	1123.7139	17139.15	16226.3
861.3314	1125.6675	17073.85	16160.5
861.4763	1127.6204	17080.7	16168.25
861.6212	1129.5726	17017.65	16100.2
861.7661	1131.524	16953.4	16038
861.911	1133.4748	16908.25	15992.5
862.0559	1135.4248	16769.4	15853.05
862.2008	1137.3741	16712.35	15796.95
862.3457	1139.3226	16610.7	15693.4
862.4905	1141.2705	16608.15	15689.65
862.6354	1143.2176	16503.5	15581.2
862.7803	1145.164	16481.1	15565.05
862.9251	1147.1097	16399.15	15483.4
863.07	1149.0546	16337.8	15423.05
863.2148	1150.9989	16292.75	15376.8
863.3597	1152.9424	16239.6	15324.25
863.5045	1154.8852	16187.2	15270.1
863.6493	1156.8272	16131.7	15214.85
863.7942	1158.7686	16135.45	15212.65
863.939	1160.7092	16064.7	15147.1
864.0838	1162.6491	15991.45	15076.55
864.2286	1164.5883	16024.75	15107.55
864.3734	1166.5267	15969.95	15055.1
864.5182	1168.4644	16038.95	15123.15
864.663	1170.4014	16082.45	15159.45
864.8078	1172.3377	16094.95	15183.1
864.9526	1174.2732	16118.4	15206.6
865.0974	1176.2081	16170.55	15255.8
865.2421	1178.1421	16250.7	15332.95
865.3869	1180.0755	16414.95	15503.45
865.5317	1182.0082	16437.75	15524.15
865.6764	1183.9401	16425.45	15513.1
865.8212	1185.8713	16399.5	15489.15
865.9659	1187.8017	16250.4	15344.05
866.1106	1189.7315	16132.55	15227.65
866.2554	1191.6605	15921	15013.1
866.4001	1193.5888	15771.95	14861.2
866.5448	1195.5163	15738.95	14826.65
866.6895	1197.4432	15634.85	14722.15
866.8342	1199.3693	15595.7	14682
866.9789	1201.2947	15472.4	14555.6
867.1236	1203.2193	15432.95	14518.7
867.2683	1205.1432	15400.75	14486.4
867.413	1207.0664	15323.65	14411.2
867.5576	1208.9889	15269.2	14351.6
867.7023	1210.9106	15178.35	14266.5
867.847	1212.8316	15158.75	14245.8
867.9916	1214.7519	15143.45	14222.2
868.1363	1216.6715	15103.45	14190.55
868.2809	1218.5903	15085.75	14171.15
868.4255	1220.5084	15053.85	14139.85
868.5701	1222.4257	15066.3	14151.2
868.7148	1224.3424	15019.2	14107.05
868.8594	1226.2583	15011.9	14091.65
869.004	1228.1735	15007.75	14094.05
869.1486	1230.0879	14998.45	14084.5
869.2932	1232.0016	14999.1	14084.25
869.4377	1233.9146	15008.35	14096
869.5823	1235.8269	14969.6	14057.3
869.7269	1237.7384	14983.75	14070.2
869.8715	1239.6492	14876.9	13966.75
870.016	1241.5592	14839.45	13924.3
870.1606	1243.4686	14792	13879.6
870.3051	1245.3772	14835.15	13920
870.4496	1247.285	14837.5	13920.9
870.5941	1249.1922	14832.05	13919.65
870.7387	1251.0986	14879.3	13965.35
870.8832	1253.0042	14841.4	13929.7
871.0277	1254.9092	14897.75	13986
871.1722	1256.8134	14866.95	13955.6
871.3167	1258.7169	14890.4	13978.8
871.4611	1260.6196	14895.45	13983
871.6056	1262.5216	14952.7	14037.2
871.7501	1264.4229	14927.1	14014.4
871.8945	1266.3234	14982.7	14070.5
872.039	1268.2232	14982.25	14067.8
872.1834	1270.1223	14984.95	14069.4
872.3278	1272.0207	14955.25	14042.95
872.4723	1273.9183	14902.7	13983.1
872.6167	1275.8151	14841.95	13928.75
872.7611	1277.7113	14812.2	13899.15
872.9055	1279.6067	14800.25	13891.25
873.0499	1281.5014	14876.7	13963.45
873.1943	1283.3953	14960.35	14044.65
873.3386	1285.2885	15068.45	14156.3
873.483	1287.181	15249.75	14336.55
873.6274	1289.0727	15413.95	14504.3
873.7717	1290.9637	15435.85	14520.9
873.9161	1292.854	15525.15	14613.7
874.0604	1294.7435	15502.45	14590.25
874.2047	1296.6323	15416.05	14507.4
874.349	1298.5204	15347.1	14430.2
874.4933	1300.4077	15248.85	14332.9
874.6376	1302.2943	15138.05	14225.6
874.7819	1304.1802	15038.55	14125.85
874.9262	1306.0653	14855.4	13941.85
875.0705	1307.9497	14653.65	13741.3
875.2147	1309.8333	14518.65	13606.9
875.359	1311.7162	14383.35	13468.1
875.5032	1313.5984	14315.1	13400.6
875.6475	1315.4798	14225	13293.8
875.7917	1317.3605	14167.15	13247.05
875.9359	1319.2405	14128.7	13211.5
876.0801	1321.1197	14057.85	13141.05
876.2243	1322.9982	13964.6	13046.9
876.3685	1324.876	13840.4	12927
876.5127	1326.753	13718.05	12805.2
876.6569	1328.6293	13620.2	12706.05
876.801	1330.5048	13559.7	12646.95
876.9452	1332.3796	13460.65	12547.45
877.0893	1334.2537	13436.95	12501.55
877.2335	1336.127	13369.5	12454.8
877.3776	1337.9996	13285.65	12371.65
877.5217	1339.8714	13240.1	12327.4
877.6658	1341.7426	13238.55	12282
877.8099	1343.6129	13209.95	12295.7
877.954	1345.4826	13166.35	12253.25
878.0981	1347.3515	13151	12237.3
878.2422	1349.2196	13104.6	12190.45
878.3862	1351.087	13121.6	12207.65
878.5303	1352.9537	13098.35	12185.25
878.6743	1354.8197	13103.25	12189.6
878.8184	1356.6849	13139.25	12225.5
878.9624	1358.5493	13125.15	12214.3
879.1064	1360.4131	13170.95	12258.85
879.2504	1362.276	13190.4	12277.85
879.3944	1364.1383	13153.6	12242.6
879.5384	1365.9998	13132.15	12211.85
879.6823	1367.8606	13016.6	12102.25
879.8263	1369.7206	12913.75	12001.3
879.9702	1371.5799	12779.2	11864.5
880.1142	1373.4384	12677.45	11766.05
880.2581	1375.2962	12590.7	11677.9
880.402	1377.1533	12452.8	11541.95
880.5459	1379.0096	12302.6	11389.65
880.6898	1380.8652	12201.75	11291.2
880.8337	1382.7201	12085.3	11174.65
880.9776	1384.5742	11978.2	11065.75
881.1215	1386.4275	11858.45	10943.4
881.2653	1388.2802	11784.2	10872.45
881.4092	1390.132	11719.85	10809.1
881.553	1391.9832	11688.85	10776.3
881.6968	1393.8336	11610.7	10697.75
881.8406	1395.6832	11573.3	10657.75
881.9844	1397.5322	11526.75	10615.1
882.1282	1399.3803	11490	10571.55
882.272	1401.2278	11444.1	10532.6
882.4158	1403.0745	11392.15	10481.4
882.5595	1404.9204	11314.5	10405
882.7033	1406.7656	11298.4	10385.2
882.847	1408.6101	11262.9	10347.25
882.9908	1410.4538	11249.9	10339.2
883.1345	1412.2968	11216.3	10303.15
883.2782	1414.139	11162.15	10250.5
883.4219	1415.9805	11204.15	10293.85
883.5656	1417.8213	11179.8	10249.25
883.7092	1419.6613	11166.05	10256.9
883.8529	1421.5006	11172.35	10259.35
883.9965	1423.3391	11221.45	10308.95
884.1402	1425.1769	11232.6	10318.75
884.2838	1427.0139	11345.2	10434.3
884.4274	1428.8502	11474.45	10564.1
884.571	1430.6858	11565.75	10655.75
884.7146	1432.5206	11643.25	10732.8
884.8582	1434.3547	11685.2	10776.3
885.0018	1436.188	11671.3	10759.05
885.1453	1438.0206	11639.05	10728.65
885.2889	1439.8524	11569	10658.7
885.4324	1441.6835	11509.6	10598.55
885.5759	1443.5139	11471.7	10556.4
885.7194	1445.3435	11438.05	10527.1
885.8629	1447.1724	11392.35	10483.4
886.0064	1449.0005	11385.85	10478.2
886.1499	1450.8279	11315.85	10404.8
886.2933	1452.6545	11300.4	10394.15
886.4368	1454.4804	11348.8	10440
886.5802	1456.3056	11313.3	10399.35
886.7237	1458.13	11242.9	10334.05
886.8671	1459.9536	11179.1	10268.7
887.0105	1461.7766	11098.3	10187.8
887.1539	1463.5987	10989.55	10077.3
887.2972	1465.4202	10899.4	9991.5
887.4406	1467.2409	10779.8	9869.95
887.584	1469.0608	10695.6	9784.9
887.7273	1470.88	10594	9682.4
887.8706	1472.6984	10527.75	9618.75
888.0139	1474.5161	10435.2	9523
888.1572	1476.3331	10392.1	9481.95
888.3005	1478.1493	10341.35	9431.3
888.4438	1479.9648	10325.65	9416.85
888.5871	1481.7795	10236.7	9326.85
888.7303	1483.5935	10223.75	9314.65
888.8736	1485.4067	10178.7	9269.1
889.0168	1487.2192	10159.9	9251.2
889.16	1489.031	10154.85	9244.45
889.3032	1490.842	10102.5	9193.6
889.4464	1492.6522	10112.7	9204.15
889.5896	1494.4618	10085.25	9174.65
889.7327	1496.2705	10037.5	9127.95
889.8759	1498.0785	10001	9092.15
890.019	1499.8858	9961.75	9052.15
890.1622	1501.6924	9941	9031.25
890.3053	1503.4981	9914.2	9003.35
890.4484	1505.3032	9883.2	8973.6
890.5914	1507.1075	9851.6	8940.9
890.7345	1508.911	9823.3	8915.15
890.8776	1510.7138	9811.9	8902.4
891.0206	1512.5159	9776.3	8866.7
891.1637	1514.3172	9715.65	8809.15
891.3067	1516.1178	9685.1	8779.05
891.4497	1517.9176	9662.05	8750.05
891.5927	1519.7166	9605.75	8698.1
891.7357	1521.515	9582.95	8669.05
891.8786	1523.3126	9576.8	8669.1
892.0216	1525.1094	9560.1	8651.25
892.1645	1526.9055	9483.45	8579.3
892.3074	1528.7008	9468.8	8563.5
892.4503	1530.4954	9420.25	8509.55
892.5932	1532.2893	9416.45	8510.6
892.7361	1534.0824	9347	8435.15
892.879	1535.8747	9346.25	8441.6
893.0218	1537.6663	9298.95	8393.15
893.1647	1539.4572	9267.95	8361.55
893.3075	1541.2473	9270.35	8363.3
893.4503	1543.0367	9241.8	8338.3
893.5931	1544.8253	9209.05	8298.2
893.7359	1546.6132	9226.2	8319.4
893.8787	1548.4003	9191.1	8278.25
894.0214	1550.1867	9210.65	8297.5
894.1642	1551.9723	9160.05	8252.6
894.3069	1553.7572	9167.9	8263.8
894.4496	1555.5414	9183.1	8279.9
894.5923	1557.3247	9167.55	8263.75
894.735	1559.1074	9194.45	8294.6
894.8777	1560.8893	9221.45	8323.3
895.0204	1562.6705	9227.3	8326.05
895.163	1564.4509	9259.6	8358.1
895.3056	1566.2305	9250.6	8352.85
895.4482	1568.0094	9298.75	8399.95
895.5908	1569.7876	9269.9	8369.2
895.7334	1571.565	9250.4	8350
895.876	1573.3417	9228	8325.35
896.0186	1575.1176	9197.4	8296.05
896.1611	1576.8928	9193.45	8293.2
896.3036	1578.6672	9140.95	8242.6
896.4461	1580.4409	9134.6	8240.45
896.5886	1582.2138	9125.7	8225.95
896.7311	1583.986	9142.5	8241.9
896.8736	1585.7575	9141.25	8240.7
897.0161	1587.5282	9134.3	8236.35
897.1585	1589.2981	9172.9	8274.2
897.3009	1591.0673	9154.4	8257.6
897.4433	1592.8358	9185.55	8289.4
897.5857	1594.6035	9181.5	8280.2
897.7281	1596.3704	9187.6	8286.6
897.8705	1598.1366	9159.55	8261.4
898.0128	1599.9021	9162.65	8263.3
898.1551	1601.6668	9131.8	8233.65
898.2975	1603.4308	9177.8	8275.9
898.4398	1605.194	9195.8	8291.45
898.5821	1606.9564	9204.8	8310.95
898.7243	1608.7182	9261.6	8364.75
898.8666	1610.4791	9337.9	8447.65
899.0088	1612.2394	9395.2	8503.5
899.1511	1613.9988	9447.95	8554.1
899.2933	1615.7576	9544.4	8650.45
899.4355	1617.5156	9602	8699.15
899.5776	1619.2728	9627.8	8728.1
899.7198	1621.0293	9618.85	8722.7
899.862	1622.785	9491.5	8595.15
900.0041	1624.54	9383.75	8489.4
900.1462	1626.2942	9272.45	8376.05
900.2883	1628.0477	9084.6	8187.75
900.4304	1629.8005	8951.95	8053.9
900.5725	1631.5525	8838.5	7945.25
900.7145	1633.3037	8729.35	7834.65
900.8566	1635.0542	8618.95	7724.2
900.9986	1636.804	8549.35	7654.25
901.1406	1638.553	8571.8	7605.15
901.2826	1640.3013	8470.65	7578.45
901.4245	1642.0488	8423.6	7529.75
901.5665	1643.7955	8391.6	7498.1
901.7085	1645.5416	8373.8	7481.6
901.8504	1647.2868	8393.05	7498.65
901.9923	1649.0313	8386.45	7489.95
902.1342	1650.7751	8398.55	7499.6
902.2761	1652.5181	8440.9	7548
902.4179	1654.2604	8429.75	7535.15
902.5598	1656.0019	8452.4	7559.5
902.7016	1657.7427	8504.55	7608.9
902.8434	1659.4828	8558.7	7666.05
902.9852	1661.222	8572.2	7678.6
903.127	1662.9606	8563.4	7669.1
903.2687	1664.6984	8529.9	7633.55
903.4105	1666.4354	8433.8	7534
903.5522	1668.1717	8299	7404.25
903.6939	1669.9072	8111.75	7216.2
903.8356	1671.642	7992.4	7095.2
903.9773	1673.3761	7863.75	6970.6
904.119	1675.1094	7752.3	6856.5
904.2606	1676.8419	7650.35	6758.35
904.4022	1678.5737	7593.7	6699.55
904.5439	1680.3048	7541.55	6646.7
904.6855	1682.0351	7490.05	6596.5
904.827	1683.7646	7433.95	6535
904.9686	1685.4934	7382.3	6488.3
905.1101	1687.2215	7352.75	6460.45
905.2517	1688.9488	7293.95	6401.25
905.3932	1690.6754	7264.15	6373.2
905.5347	1692.4012	7237.9	6343.75
905.6761	1694.1263	7219.75	6326.15
905.8176	1695.8506	7179.25	6283.2
905.9591	1697.5742	7162.55	6268.35
906.1005	1699.297	7114.3	6222.3
906.2419	1701.0191	7076.3	6184.65
906.3833	1702.7404	7029.65	6138.6
906.5246	1704.461	7004.05	6111.5
906.666	1706.1808	6986.55	6091.8
906.8073	1707.8999	6991.3	6099.2
906.9487	1709.6182	6937.75	6048.45
907.09	1711.3358	6920.45	6031
907.2313	1713.0527	6908.05	6018.85
907.3725	1714.7688	6872.8	5976.55
907.5138	1716.4841	6848.95	5955.25
907.655	1718.1987	6838.9	5940.5
907.7962	1719.9126	6805.9	5915.55
907.9374	1721.6257	6788.85	5896.3
908.0786	1723.338	6778.45	5886.9
908.2198	1725.0496	6741.05	5851
908.3609	1726.7605	6722.55	5830.1
908.502	1728.4706	6694.6	5805.15
908.6431	1730.18	6668.1	5775.9
908.7842	1731.8886	6655.7	5764.65
908.9253	1733.5964	6657.15	5760.1
909.0664	1735.3036	6626.9	5732.7
909.2074	1737.0099	6618.45	5729.5
909.3484	1738.7156	6592.85	5704.25
909.4894	1740.4204	6557.45	5663.4
909.6304	1742.1246	6559.25	5665.25
909.7714	1743.8279	6546.9	5658.4
909.9123	1745.5306	6533.2	5643.7
910.0532	1747.2325	6500.85	5610.8
910.1941	1748.9336	6456.8	5566.25
910.335	1750.634	6452.65	5557.75
910.4759	1752.3336	6457.8	5567.2
910.6168	1754.0325	6459.8	5571.2
910.7576	1755.7307	6430.85	5541.55
910.8984	1757.4281	6423.85	5531.55
911.0392	1759.1247	6423.2	5522.8
911.18	1760.8206	6412.1	5516.9
911.3208	1762.5158	6392	5498.4
911.4615	1764.2102	6360.25	5468.95
911.6022	1765.9039	6327.6	5437.2
911.7429	1767.5968	6344.05	5452
911.8836	1769.289	6326.5	5436.8
912.0243	1770.9804	6284.55	5392.6
912.1649	1772.6711	6279.1	5387.55
912.3056	1774.361	6281	5386.8
912.4462	1776.0502	6252.45	5360.55
912.5868	1777.7386	6256.9	5362.25
912.7274	1779.4263	6220.95	5330.1
912.8679	1781.1132	6230.4	5339.6
913.0084	1782.7994	6191.05	5301.4
913.149	1784.4849	6194.05	5307.5
913.2895	1786.1696	6179.25	5283.85
913.4299	1787.8535	6161.8	5273.75
913.5704	1789.5367	6123.05	5233
913.7108	1791.2192	6116.5	5227.4
913.8513	1792.9009	6133.4	5218.45
913.9917	1794.5818	6106.65	5214.3
914.132	1796.2621	6084	5194.1
914.2724	1797.9415	6067.9	5176.35
914.4128	1799.6202	6050.9	5160.7
914.5531	1801.2982	6054.7	5164.5
914.6934	1802.9755	6036.55	5144.9
914.8337	1804.6519	6008.2	5117.7
914.9739	1806.3277	5985.4	5095.85
915.1142	1808.0027	5968.8	5080.2
915.2544	1809.6769	5957.35	5067.75
915.3946	1811.3504	5939.4	5049.8
915.5348	1813.0231	5931.25	5042.75
915.675	1814.6951	5945.85	5058.15
915.8151	1816.3664	5933.5	5040.8
915.9553	1818.0369	5928.1	5036.75
916.0954	1819.7067	5907.5	5017.1
916.2355	1821.3757	5888.3	4995.8
916.3755	1823.044	5869.5	4980.85
916.5156	1824.7115	5868.85	4980.3
916.6556	1826.3783	5844.7	4955.9
916.7956	1828.0443	5817.4	4928.3
916.9356	1829.7096	5830.35	4939.6
917.0756	1831.3741	5809.9	4917.6
917.2155	1833.0379	5776.9	4890
917.3555	1834.701	5782.1	4891.4
917.4954	1836.3633	5774.65	4886.15
917.6353	1838.0248	5735.1	4843.4
917.7751	1839.6856	5753.25	4863.05
917.915	1841.3457	5747.3	4858.85
918.0548	1843.005	5724	4836.65
918.1946	1844.6636	5696.4	4806.9
918.3344	1846.3214	5694.15	4806.05
918.4742	1847.9785	5699.1	4811.1
918.6139	1849.6349	5693.35	4801.7
918.7537	1851.2904	5695.2	4793.05
918.8934	1852.9453	5663.4	4769.7
919.0331	1854.5994	5654.45	4760.65
919.1727	1856.2528	5658.75	4764.1
919.3124	1857.9054	5627	4738.05
919.452	1859.5572	5622.8	4733.45
919.5916	1861.2083	5608.6	4718.2
919.7312	1862.8587	5612.25	4721.65
919.8708	1864.5084	5611.3	4719.45
920.0103	1866.1572	5568.6	4678.25
920.1498	1867.8054	5550.55	4659
920.2893	1869.4528	5540.25	4650.45
920.4288	1871.0994	5532.75	4641
920.5683	1872.7453	5523.7	4633
920.7077	1874.3905	5515.5	4618.65
920.8471	1876.0349	5492.75	4602.8
920.9865	1877.6786	5497.7	4608.6
921.1259	1879.3215	5482.8	4591.2
921.2653	1880.9637	5464.2	4573.4
921.4046	1882.6051	5461.05	4569.5
921.5439	1884.2458	5454.45	4563.1
921.6832	1885.8858	5447.65	4558.8
921.8225	1887.525	5419.1	4528.5
921.9617	1889.1634	5403.45	4511.95
922.101	1890.8011	5394.95	4505.75
922.2402	1892.4381	5402.75	4512.45
922.3794	1894.0743	5380.25	4490.3
922.5185	1895.7098	5375	4486.3
922.6577	1897.3446	5348.8	4459.05
922.7968	1898.9786	5341	4445.6
922.9359	1900.6118	5328.8	4439.95
923.075	1902.2443	5287.55	4396.7
923.214	1903.8761	5291.5	4401.75
923.3531	1905.5071	5258	4367.45
923.4921	1907.1374	5255.7	4366.35
923.6311	1908.7669	5252.7	4361.3
923.77	1910.3957	5256.9	4367.35
923.909	1912.0237	5226.05	4336.4
924.0479	1913.651	5221.8	4332.35
924.1868	1915.2776	5202.9	4313.35
924.3257	1916.9034	5177.05	4285
924.4646	1918.5285	5152.6	4263.95
924.6034	1920.1528	5134.5	4245.5
924.7422	1921.7764	5120.5	4231.45
924.881	1923.3992	5110.85	4221.75
925.0198	1925.0213	5097.9	4207.8
925.1586	1926.6427	5069.8	4181.4
925.2973	1928.2633	5122.15	4166.8
925.436	1929.8832	5044.25	4155
925.5747	1931.5023	5054	4164.85
925.7134	1933.1207	5033.6	4142.95
925.852	1934.7383	5017.5	4128.8
925.9906	1936.3552	5006.4	4117.35
926.1292	1937.9714	4981.25	4092.1
926.2678	1939.5868	4973.5	4082.1
926.4064	1941.2015	4942.2	4052.6
926.5449	1942.8154	4917.75	4028.25
926.6834	1944.4286	4913.95	4025.85
926.8219	1946.041	4926.65	4015.5
926.9604	1947.6528	4901.65	4007.35
927.0988	1949.2637	4885.85	3995.55
927.2372	1950.8739	4849.2	3960.1
927.3756	1952.4834	4853.25	3964.35
927.514	1954.0921	4862.7	3972.15
927.6523	1955.7001	4825.35	3936.1
927.7907	1957.3074	4818.4	3931.35
927.929	1958.9139	4802.1	3916.35
928.0673	1960.5197	4788.4	3897.6
928.2055	1962.1247	4772.9	3882.35
928.3438	1963.729	4756.7	3867.2
928.482	1965.3325	4754.05	3843.5
928.6202	1966.9353	4726.1	3840.25
928.7584	1968.5374	4709.05	3821.6
928.8965	1970.1387	4703.85	3817.15
929.0346	1971.7393	4672.15	3783.4
929.1727	1973.3392	4653.75	3765.75
929.3108	1974.9383	4647.55	3761.1
929.4489	1976.5366	4643.85	3757.7
929.5869	1978.1342	4637.55	3748.55
929.7249	1979.7311	4623.2	3734.5
929.8629	1981.3273	4609.25	3723.65
930.0009	1982.9227	4604.35	3717.5
930.1388	1984.5173	4573.5	3686.95
930.2767	1986.1112	4563.5	3677.15
930.4146	1987.7044	4556.75	3670.95
930.5525	1989.2968	4542.2	3652.9
930.6904	1990.8885	4552.35	3661.25
930.8282	1992.4795	4525.75	3638.55
930.966	1994.0697	4511.15	3625.45
931.1038	1995.6592	4504.85	3616.8
931.2415	1997.2479	4493.15	3605.45
931.3793	1998.8359	4467.55	3581.5
931.517	2000.4232	4462.05	3577.05
931.6547	2002.0097	4464.7	3580.8
931.7923	2003.5955	4428.5	3542.9
931.93	2005.1805	4433	3547.5
932.0676	2006.7648	4426.9	3541.55
932.2052	2008.3484	4405.35	3519.35
932.3427	2009.9312	4413.75	3526
932.4803	2011.5133	4402.6	3519.85
932.6178	2013.0946	4396.35	3510.6
932.7553	2014.6752	4369.15	3485.15
932.8928	2016.2551	4372.2	3485.55
933.0302	2017.8342	4369.1	3481.9
933.1676	2019.4126	4334.1	3450.3
933.305	2020.9902	4320.05	3436.25
933.4424	2022.5672	4313.6	3427.15
933.5798	2024.1433	4316	3427.05
933.7171	2025.7188	4285.85	3401.3
933.8544	2027.2935	4272.4	3387.3
933.9917	2028.8674	4273.05	3388.85
934.129	2030.4406	4262.15	3379.4
934.2662	2032.0131	4250.95	3367.85
934.4034	2033.5849	4226.4	3333.3
934.5406	2035.1559	4230.2	3346
934.6778	2036.7261	4217.25	3331.15
934.8149	2038.2957	4200.3	3314.7
934.952	2039.8645	4180.25	3294.4
935.0891	2041.4325	4194.15	3304.4
935.2262	2042.9998	4184.35	3299.95
935.3632	2044.5664	4179.9	3294.15
935.5002	2046.1323	4143.25	3258.45
935.6372	2047.6974	4145.45	3260.65
935.7742	2049.2617	4141.25	3256.55
935.9111	2050.8254	4152.95	3261.4
936.048	2052.3883	4136.25	3248.85
936.1849	2053.9504	4136.5	3251.1
936.3218	2055.5118	4113.15	3227.4
936.4586	2057.0725	4100	3212
936.5955	2058.6325	4085.25	3199.95
936.7323	2060.1917	4068.8	3185
936.869	2061.7502	4071.6	3184.45
937.0058	2063.3079	4069.5	3184.1
937.1425	2064.8649	4055.45	3166.2
937.2792	2066.4212	4040.35	3154.4
937.4159	2067.9767	4030.5	3146
937.5525	2069.5315	4024.45	3137.25
937.6891	2071.0856	3998.15	3112.55
937.8257	2072.6389	3983.3	3098.05
937.9623	2074.1915	3974.55	3090.95
938.0989	2075.7433	3972.45	3086.6
938.2354	2077.2945	3961.05	3075.3
938.3719	2078.8448	3944.6	3060.25
938.5084	2080.3945	3927.95	3043.6
938.6448	2081.9434	3931.95	3046.45
938.7812	2083.4916	3928.7	3040.6
938.9176	2085.039	3906.85	3017.3
939.054	2086.5857	3901.9	3011.9
939.1903	2088.1317	3899.35	3011.85
939.3267	2089.677	3895.1	3005.1
939.463	2091.2215	3886.2	2997.3
939.5992	2092.7652	3854.1	2964.9
939.7355	2094.3083	3848.1	2957.55
939.8717	2095.8506	3861.35	2976.25
940.0079	2097.3921	3859.35	2972.65
940.1441	2098.933	3846.7	2961.75
940.2802	2100.4731	3849.1	2960.65
940.4163	2102.0124	3848.5	2953.05
940.5524	2103.5511	3834.4	2945.75
940.6885	2105.089	3820.2	2933.9
940.8245	2106.6261	3807	2917.8
940.9606	2108.1626	3801.3	2913.9
941.0965	2109.6983	3810	2893.65
941.2325	2111.2332	3778.3	2891.85
941.3684	2112.7675	3774.3	2887.6
941.5044	2114.301	3776.8	2888.55
941.6403	2115.8337	3775.4	2887.3
941.7761	2117.3657	3748.75	2860.75
941.912	2118.897	3740.05	2852.6
942.0478	2120.4276	3735.75	2843.2
942.1835	2121.9575	3726.75	2836.95
942.3193	2123.4866	3735.6	2846.35
942.455	2125.0149	3724.9	2835.35
942.5907	2126.5426	3697.55	2812.95
942.7264	2128.0695	3692.75	2803.85
942.8621	2129.5956	3687.8	2801.95
942.9977	2131.1211	3687.45	2796.65
943.1333	2132.6458	3668.25	2781.05
943.2689	2134.1698	3669.05	2781.6
943.4044	2135.693	3646.25	2754.3
943.54	2137.2155	3648.35	2758.7
943.6755	2138.7373	3644.05	2755.45
943.8109	2140.2584	3636.6	2750.15
943.9464	2141.7787	3624.15	2733.35
944.0818	2143.2983	3594.65	2711.35
944.2172	2144.8171	3583.75	2700.4
944.3526	2146.3353	3589.6	2702.85
944.4879	2147.8527	3564.05	2678.55
944.6232	2149.3693	3578.7	2690.3
944.7585	2150.8853	3573.8	2684.05
944.8938	2152.4005	3544.15	2655.05
945.029	2153.9149	3538.4	2649.6
945.1642	2155.4287	3641.7	2648.75
945.2994	2156.9417	3548.8	2660
945.4346	2158.454	3537.55	2648.05
945.5697	2159.9655	3520.35	2634.05
945.7048	2161.4764	3506.5	2620.35
945.8399	2162.9865	3496.45	2609.6
945.9749	2164.4958	3484.45	2597.65
946.1099	2166.0045	3483.6	2595.35
946.2449	2167.5124	3475.8	2589.75
946.3799	2169.0195	3475.35	2587.8
946.5148	2170.526	3467.35	2578
946.6498	2172.0317	3459.55	2573.45
946.7846	2173.5367	3445.15	2557.25
946.9195	2175.0409	3415.95	2529.1
947.0543	2176.5445	3435.65	2549.7
947.1891	2178.0473	3419.2	2532.65
947.3239	2179.5494	3413.5	2523.05
947.4587	2181.0507	3411.35	2524.55
947.5934	2182.5513	3410.6	2523.05
947.7281	2184.0512	3393.6	2505.45
947.8628	2185.5504	3370.7	2482.25
947.9974	2187.0488	3371.45	2484.65
948.132	2188.5465	3359.3	2472.95
948.2666	2190.0435	3354.2	2468.1
948.4012	2191.5397	3342.1	2452.55
948.5357	2193.0353	3345.1	2458.1
948.6702	2194.5301	3345.55	2456.35
948.8047	2196.0241	3332.25	2442.85
948.9392	2197.5175	3314.35	2424.65
949.0736	2199.0101	3313.1	2421.75
949.208	2200.502	3287.3	2401.65
949.3424	2201.9931	3288.25	2403.3
949.4767	2203.4835	3268.8	2380.75
949.611	2204.9733	3283.2	2381.25
949.7453	2206.4622	3260.9	2375.7
949.8796	2207.9505	3254.95	2367.3
950.0138	2209.438	3225.15	2341.05
950.148	2210.9248	3233.15	2344.35
950.2822	2212.4109	3234.75	2349.2
950.4164	2213.8962	3221.9	2329.9
950.5505	2215.3809	3218.65	2328
950.6846	2216.8648	3209.85	2319.05
950.8186	2218.3479	3204.2	2309.55
950.9527	2219.8304	3190.4	2298.3
951.0867	2221.3121	3182.45	2290.45
951.2207	2222.7931	3173.2	2286.75
951.3546	2224.2733	3147.8	2259.45
951.4886	2225.7529	3161.05	2272.15
951.6225	2227.2317	3145.35	2254.75
951.7563	2228.7098	3138.95	2253.05
951.8902	2230.1872	3121.2	2235.8
952.024	2231.6638	3121	2233
952.1578	2233.1397	3116.2	2226.3
952.2916	2234.6149	3105.9	2218.55
952.4253	2236.0894	3108.25	2220.95
952.559	2237.5632	3092.25	2203.6
952.6927	2239.0362	3074.95	2188.2
952.8263	2240.5085	3082.95	2194.4
952.9599	2241.9801	3069.3	2180.4
953.0935	2243.4509	3065.25	2176.6
953.2271	2244.921	3057.1	2167.8
953.3606	2246.3904	3043.6	2153.9
953.4941	2247.8591	3043	2154.05
953.6276	2249.3271	3032.8	2145.1
953.7611	2250.7943	3022.4	2132.25
953.8945	2252.2608	3011.85	2121.8
954.0279	2253.7266	3004	2116.75
954.1612	2255.1917	3004	2115.55
954.2946	2256.656	2989.25	2100.85
954.4279	2258.1197	2976	2089.55
954.5612	2259.5826	2980.8	2091.7
954.6944	2261.0447	2988.95	2100.75
954.8276	2262.5062	2972.65	2083.1
954.9608	2263.9669	2974.05	2082.75
955.094	2265.4269	2958.85	2071.65
955.2271	2266.8862	2951.55	2063.25
955.3602	2268.3448	2934.6	2048.55
955.4933	2269.8026	2951.2	2064
955.6264	2271.2598	2927.2	2041.55
955.7594	2272.7162	2918.3	2032.8
955.8924	2274.1719	2914.65	2026.4
956.0253	2275.6268	2923.05	2032
956.1583	2277.0811	2894.9	2005.95
956.2912	2278.5346	2898.75	2010.75
956.4241	2279.9874	2907.25	2021.9
956.5569	2281.4395	2902.55	2015.7
956.6897	2282.8908	2894.3	2002.8
956.8225	2284.3414	2881.65	1991.5
956.9553	2285.7914	2882.25	1993.4
957.088	2287.2406	2879.4	1990.6
957.2207	2288.689	2863.95	1974.7
957.3534	2290.1368	2854.15	1963.4
957.486	2291.5838	2851	1958.65
957.6186	2293.0302	2848.55	1957.7
957.7512	2294.4758	2843.85	1954.15
957.8838	2295.9206	2826.95	1936.3
958.0163	2297.3648	2827.4	1938.2
958.1488	2298.8082	2820.3	1932.9
958.2813	2300.251	2809.35	1921.2
958.4137	2301.693	2792.95	1899.9
958.5461	2303.1343	2810.95	1922.85
958.6785	2304.5748	2783.8	1893.9
958.8108	2306.0147	2779	1891.7
958.9432	2307.4538	2783.4	1892.95
959.0754	2308.8922	2763.1	1877
959.2077	2310.3299	2757.85	1871.05
959.3399	2311.7669	2755.6	1869
959.4721	2313.2031	2769.35	1882.05
959.6043	2314.6387	2751.8	1863.5
959.7365	2316.0735	2745.6	1857.7
959.8686	2317.5076	2732.65	1844.75
960.0006	2318.941	2739.75	1851.15
960.1327	2320.3737	2735.3	1843.95
960.2647	2321.8056	2725.35	1831.2
960.3967	2323.2369	2722.25	1832.9
960.5287	2324.6674	2710.85	1818.8
960.6606	2326.0972	2696.4	1805.15
960.7925	2327.5263	2699	1810.1
960.9244	2328.9547	2697.4	1808.65
961.0562	2330.3823	2690.9	1802.35
961.1881	2331.8092	2683.1	1789.7
961.3198	2333.2355	2663.6	1772.9
961.4516	2334.661	2668.95	1779.4
961.5833	2336.0858	2661	1768.75
961.715	2337.5098	2656.95	1765.9
961.8467	2338.9332	2642.7	1751.9
961.9783	2340.3558	2659.05	1766.25
962.1099	2341.7778	2637.8	1749.15
962.2415	2343.199	2640.25	1750.45
962.373	2344.6195	2627.3	1739.05
962.5045	2346.0393	2632.4	1744.5
962.636	2347.4583	2630.55	1741.1
962.7675	2348.8767	2610.35	1720.8
962.8989	2350.2943	2606.75	1717.8
963.0303	2351.7113	2612.95	1720
963.1617	2353.1275	2604	1712
963.293	2354.543	2611.75	1697.05
963.4243	2355.9578	2581.45	1690
963.5556	2357.3718	2575.15	1689.2
963.6868	2358.7852	2564.5	1672.8
963.818	2360.1978	2555.8	1669
963.9492	2361.6098	2563.6	1675.55
964.0803	2363.021	2557.9	1666.15
964.2114	2364.4315	2534.05	1646.05
964.3425	2365.8413	2550.65	1654.15
964.4736	2367.2504	2538.05	1652.65
964.6046	2368.6587	2531.5	1641.1
964.7356	2370.0664	2521	1632.05
964.8666	2371.4733	2509.35	1620.5
964.9975	2372.8795	2511.35	1621.9
965.1284	2374.285	2498.05	1610.55
965.2593	2375.6899	2487.35	1601.85
965.3901	2377.0939	2473	1585.6
965.5209	2378.4973	2468.95	1580.8
965.6517	2379.9	2460.05	1572.75
965.7825	2381.3019	2465.5	1577.05
965.9132	2382.7032	2466.65	1580.25
966.0439	2384.1037	2455.8	1570.45
966.1745	2385.5035	2450.35	1563.2
966.3051	2386.9027	2440.35	1556.7
966.4357	2388.3011	2438.15	1547.3
966.5663	2389.6987	2437.9	1551.6
966.6968	2391.0957	2423.35	1536.3
966.8273	2392.492	2420.6	1534.35
966.9578	2393.8876	2422	1533.7
967.0882	2395.2824	2407.25	1518.15
967.2186	2396.6765	2401.6	1515.35
967.349	2398.07	2400.15	1511
967.4793	2399.4627	2384.9	1494.85
967.6097	2400.8547	2379.9	1490.4
967.7399	2402.246	2382.35	1486.9
967.8702	2403.6366	2368.45	1480
968.0004	2405.0265	2361.75	1473.85
968.1306	2406.4156	2360.2	1467.85
968.2607	2407.8041	2354.35	1463.5
968.3909	2409.1918	2354.2	1463.25
968.521	2410.5789	2339.8	1451.4
968.651	2411.9652	2345.8	1455.85
968.781	2413.3508	2326.85	1440.3
968.911	2414.7358	2331.3	1443.55
969.041	2416.12	2320.9	1433.15
969.1709	2417.5035	2320.5	1433.95
969.3008	2418.8863	2319.9	1431.3
969.4307	2420.2684	2300.4	1411.45
969.5606	2421.6497	2301.4	1411.1
969.6904	2423.0304	2273.7	1385.85
969.8201	2424.4104	2280.95	1392.1
969.9499	2425.7896	2275.25	1385.7
970.0796	2427.1682	2288.8	1400.1
970.2093	2428.546	2272.1	1382.65
970.3389	2429.9232	2275.35	1383.05
970.4685	2431.2996	2260.95	1373.65
970.5981	2432.6753	2257.55	1368.35
970.7277	2434.0503	2257.1	1366.9
970.8572	2435.4246	2241.55	1352.05
970.9867	2436.7982	2251.85	1359.85
971.1161	2438.1711	2231.45	1343.15
971.2456	2439.5433	2236.35	1347.65
971.375	2440.9148	2231.25	1337.8
971.5043	2442.2856	2222.9	1335.45
971.6336	2443.6557	2218.55	1329.2
971.7629	2445.025	2215.7	1327.3
971.8922	2446.3937	2212.5	1324.15
972.0214	2447.7617	2205.8	1315.15
972.1506	2449.1289	2187.75	1298.85
972.2798	2450.4955	2198.65	1306.15
972.4089	2451.8613	2191.1	1303.45
972.538	2453.2265	2190.2	1304.35
972.6671	2454.5909	2192.35	1301.8
972.7961	2455.9546	2189.85	1301.2
972.9251	2457.3177	2168.45	1280.25
973.0541	2458.68	2175.15	1285.1
973.1831	2460.0416	2167.3	1277.2
973.312	2461.4025	2168.3	1277.3
973.4408	2462.7627	2173.15	1274.3
973.5697	2464.1222	2165.55	1278.05
973.6985	2465.4811	2157.4	1269.2
973.8273	2466.8392	2150.35	1262.2
973.956	2468.1966	2145.35	1253.3
974.0847	2469.5533	2150.5	1259.05
974.2134	2470.9093	2142.5	1253.85
974.3421	2472.2645	2135.45	1247.35
974.4707	2473.6191	2123.95	1235.2
974.5993	2474.973	2129.55	1241.4
974.7278	2476.3262	2127.75	1237.8
974.8563	2477.6787	2109.45	1223.5
974.9848	2479.0305	2113.55	1225.35
975.1132	2480.3816	2112.35	1223.1
975.2417	2481.7319	2097.75	1209.3
975.37	2483.0816	2105.1	1216.2
975.4984	2484.4306	2090.1	1202.5
975.6267	2485.7789	2081.35	1193.95
975.755	2487.1264	2087.15	1198.3
975.8833	2488.4733	2075.9	1188.55
976.0115	2489.8195	2086.9	1181.9
976.1397	2491.165	2066.7	1175.4
976.2678	2492.5097	2067.7	1177.4
976.3959	2493.8538	2052.25	1168.1
976.524	2495.1972	2044.75	1155.45
976.6521	2496.5398	2042.45	1152.05
976.7801	2497.8818	2045.8	1154.35
976.9081	2499.2231	2036.8	1145.3
977.036	2500.5637	2029.4	1139.15
977.164	2501.9035	2030.7	1141.05
977.2918	2503.2427	2038.7	1147.3
977.4197	2504.5812	2020.2	1131.2
977.5475	2505.919	2024.85	1132.6
977.6753	2507.256	2019.25	1131.05
977.8031	2508.5924	2010.4	1122.65
977.9308	2509.9281	2012.55	1116.05
978.0585	2511.2631	2005.1	1116.1
978.1861	2512.5974	1995.1	1108.25
978.3137	2513.9309	1990.55	1101.35
978.4413	2515.2638	2016.6	1101.35
978.5689	2516.596	2000.25	1110.5
978.6964	2517.9275	1985.3	1094.65
978.8239	2519.2583	1981.5	1091.8
978.9513	2520.5884	1971.3	1081.35
979.0788	2521.9178	1971.3	1082.35
979.2062	2523.2465	1956.1	1069.5
979.3335	2524.5745	1950.55	1063.3
979.4608	2525.9018	1956.9	1069.35
979.5881	2527.2284	1956.85	1070.5
979.7154	2528.5543	1959.85	1073.4
979.8426	2529.8796	1955.4	1065.75
979.9698	2531.2041	1959.3	1073.15
980.0969	2532.5279	1941.1	1056.35
980.224	2533.851	1937.1	1050.05
980.3511	2535.1735	1951.2	1062.8
980.4781	2536.4952	1935.15	1045.4
980.6052	2537.8163	1941.65	1051.3
980.7321	2539.1366	1933	1045.15
980.8591	2540.4562	1925.75	1036.55
980.986	2541.7752	1923.75	1037
981.1129	2543.0935	1926.05	1037.5
981.2397	2544.411	1921.8	1035.05
981.3665	2545.7279	1927.65	1038.9
981.4933	2547.0441	1911.5	1023.55
981.62	2548.3596	1927.6	1035.9
981.7467	2549.6744	1908.55	1019.9
981.8734	2550.9885	1915.4	1026.15
982.0001	2552.3019	1905.6	1019.5
982.1267	2553.6146	1897.9	1008.25
982.2532	2554.9266	1895.75	1006.2
982.3798	2556.2379	1892.8	1002.3
982.5063	2557.5485	1891.85	1006
982.6327	2558.8585	1885.55	992.55
982.7592	2560.1677	1883.65	991.75
982.8856	2561.4762	1887.55	997
983.0119	2562.7841	1885.45	994.05
983.1383	2564.0913	1871.9	984.15
983.2646	2565.3977	1883.4	995.65
983.3908	2566.7035	1879.7	991.25
983.517	2568.0086	1872.3	983.95
983.6432	2569.313	1870.85	979.95
983.7694	2570.6167	1862.55	969.1
983.8955	2571.9197	1864.55	976.7
984.0216	2573.222	1861.75	968.35
984.1476	2574.5236	1870.65	982.45
984.2737	2575.8246	1863.3	973
984.3996	2577.1248	1856.55	964.8
984.5256	2578.4244	1848.45	959.45
984.6515	2579.7232	1850.3	961.45
984.7774	2581.0214	1876.75	956.45
984.9032	2582.3189	1848.25	960.65
985.029	2583.6157	1848.3	953.45
985.1548	2584.9118	1843.25	954.2
985.2806	2586.2072	1841.45	954.6
985.4063	2587.5019	1833.05	944.25
985.5319	2588.7959	1831.3	940.75
985.6576	2590.0893	1832.05	941.95
985.7832	2591.3819	1828.45	941.85
985.9087	2592.6739	1826.8	939.7
986.0343	2593.9652	1825.6	935.05
986.1597	2595.2557	1823.45	932.8
986.2852	2596.5456	1810.6	919.05
986.4106	2597.8348	1815.45	930.05
986.536	2599.1234	1805.6	918.3
986.6614	2600.4112	1810.95	921.95
986.7867	2601.6983	1807.6	916.4
986.912	2602.9848	1798.65	911.1
987.0372	2604.2705	1796.7	901.15
987.1624	2605.5556	1799.25	911.25
987.2876	2606.84	1789.65	903.4
987.4128	2608.1237	1786.1	896.65
987.5379	2609.4067	1775.8	883.85
987.6629	2610.689	1786.75	890
987.788	2611.9707	1777.9	885.9
987.913	2613.2516	1772.5	879.85
988.0379	2614.5319	1754.9	866.15
988.1629	2615.8115	1761.9	873.25
988.2878	2617.0903	1755.15	868
988.4126	2618.3685	1759.25	870.7
988.5375	2619.6461	1750.4	862.9
988.6622	2620.9229	1750.35	862.45
988.787	2622.199	1744	855.8
988.9117	2623.4745	1739	853.1
989.0364	2624.7493	1741.3	854.9
989.161	2626.0234	1729.5	842.75
989.2857	2627.2968	1730.25	843.75
989.4102	2628.5695	1724.35	835.3
989.5348	2629.8415	1712.55	826.5
989.6593	2631.1128	1713.9	824.6
989.7837	2632.3835	1714.05	828
989.9082	2633.6535	1713.75	825.75
990.0326	2634.9228	1714.5	826.6
990.1569	2636.1914	1709.45	822
990.2812	2637.4593	1701	813.35
990.4055	2638.7265	1692.9	805.25
990.5298	2639.9931	1697.35	808.6
990.654	2641.259	1698.85	810.35
990.7782	2642.5242	1694.35	808.4
990.9023	2643.7887	1686.95	800.35
991.0264	2645.0525	1690.2	803.2
991.1505	2646.3156	1697.95	796.4
991.2745	2647.5781	1689.85	804.75
991.3985	2648.8398	1678.6	792.7
991.5225	2650.1009	1699.25	785.2
991.6464	2651.3613	1670.75	785.5
991.7703	2652.6211	1668	780.6
991.8942	2653.8801	1661.2	775.6
992.018	2655.1385	1664.5	776.05
992.1418	2656.3961	1670.9	784.8
992.2655	2657.6531	1664.85	777.45
992.3892	2658.9094	1654.8	767.55
992.5129	2660.1651	1652.05	765.65
992.6366	2661.42	1655.2	766.85
992.7602	2662.6743	1658.45	769.7
992.8837	2663.9279	1649.9	762.75
993.0073	2665.1808	1650.1	764.15
993.1307	2666.433	1648.45	760.2
993.2542	2667.6846	1652.2	767.15
993.3776	2668.9354	1648.1	758.4
993.501	2670.1856	1638.05	751.55
993.6244	2671.4351	1642.4	754.9
993.7477	2672.6839	1650.2	761.95
993.8709	2673.9321	1643.45	758.1
993.9942	2675.1795	1639.65	753.05
994.1174	2676.4263	1631	745.75
994.2405	2677.6724	1626.8	742.95
994.3637	2678.9179	1636.05	748.9
994.4868	2680.1626	1628.45	741.6
994.6098	2681.4067	1628.95	742.3
994.7328	2682.6501	1622.3	734.45
994.8558	2683.8928	1622.25	734.85
994.9788	2685.1348	1615.55	729.5
995.1017	2686.3761	1614.45	727.75
995.2245	2687.6168	1616.8	729.2
995.3474	2688.8568	1613.9	726.65
995.4702	2690.0961	1605.3	720
995.5929	2691.3348	1603.3	717.5
995.7156	2692.5727	1590	704.85
995.8383	2693.81	1594.65	706.75
995.961	2695.0466	1586.4	699.25
996.0836	2696.2826	1589.75	701.95
996.2062	2697.5178	1594.5	703.75
996.3287	2698.7524	1586.4	696.85
996.4512	2699.9863	1593.05	702.8
996.5737	2701.2195	1580.75	695.65
996.6961	2702.452	1583.45	696.15
996.8185	2703.6839	1584.05	695.65
996.9408	2704.9151	1578.75	691.9
997.0631	2706.1456	1572.5	684.85
997.1854	2707.3755	1571.55	683.45
997.3077	2708.6046	1571.85	683.45
997.4299	2709.8331	1583.7	695.35
997.552	2711.0609	1574.1	686.3
997.6742	2712.2881	1571.65	684.9
997.7963	2713.5145	1579.05	691
997.9183	2714.7403	1568.55	681.25
998.0403	2715.9654	1583.75	694.4
998.1623	2717.1899	1587.2	685.15
998.2842	2718.4136	1573.85	688.75
998.4062	2719.6367	1572.75	686.35
998.528	2720.8591	1577.5	684
998.6498	2722.0809	1572.9	686.8
998.7716	2723.3019	1579.05	690.35
998.8934	2724.5223	1574.9	687.75
999.0151	2725.7421	1575.25	688.7
999.1368	2726.9611	1573.75	685.9
999.2584	2728.1795	1569	676.6
999.38	2729.3972	1564.15	679.8
999.5016	2730.6142	1558.5	666.6
999.6231	2731.8306	1549.7	662.75
999.7446	2733.0462	1550.75	663.95
999.8661	2734.2612	1541.85	649.9
999.9875	2735.4756	1541.8	651.55
1000.1089	2736.6892	1542.1	655.15
1000.2302	2737.9022	1520.2	632.75
1000.3515	2739.1145	1523.9	636.6
1000.4728	2740.3262	1517.5	626.25
1000.594	2741.5372	1511.95	625.95
1000.7152	2742.7475	1505.85	617.35
1000.8363	2743.9571	1506.85	617.3
1000.9575	2745.1661	1496.95	604.45
1001.0785	2746.3744	1491.8	605.55
1001.1996	2747.582	1497.5	612.25
1001.3206	2748.7889	1491.55	603.6
1001.4415	2749.9952	1485.35	601.25
1001.5625	2751.2008	1481.95	593.4
1001.6833	2752.4057	1472.9	584.55
1001.8042	2753.61	1477.7	590.6
1001.925	2754.8136	1477.55	590.1
1002.0458	2756.0165	1473.6	587.35
1002.1665	2757.2188	1470.3	583.6
1002.2872	2758.4204	1468	582.55
1002.4078	2759.6213	1462.75	573.4
1002.5285	2760.8215	1471.1	581.3
1002.649	2762.0211	1463	575.2
1002.7696	2763.22	1464.05	575.45
1002.8901	2764.4182	1455.3	568.55
1003.0106	2765.6158	1461.9	576.15
1003.131	2766.8127	1448.1	561.55
1003.2514	2768.009	1448.9	562.6
1003.3717	2769.2045	1444.25	556.25
1003.492	2770.3994	1452.5	564.1
1003.6123	2771.5936	1439	552.3
1003.7325	2772.7872	1436.3	550.25
1003.8527	2773.9801	1434.95	548
1003.9729	2775.1723	1451.55	549.25
1004.093	2776.3639	1435.85	552.45
1004.2131	2777.5548	1425.35	537.8
1004.3331	2778.745	1436.45	548.4
1004.4531	2779.9346	1427.25	542.4
1004.5731	2781.1235	1421.95	532.2
1004.693	2782.3117	1430.75	543.95
1004.8129	2783.4992	1423.6	538.9
1004.9328	2784.6861	1417.05	529.55
1005.0526	2785.8723	1418.45	532.3
1005.1723	2787.0579	1418.3	530.65
1005.2921	2788.2428	1419.45	531.85
1005.4118	2789.427	1417.75	532.2
1005.5314	2790.6106	1419.25	536.6
1005.651	2791.7935	1415.3	528.15
1005.7706	2792.9757	1410.15	526.25
1005.8902	2794.1573	1412.7	525.25
1006.0097	2795.3382	1415.8	529.15
1006.1291	2796.5184	1409.95	524.7
1006.2485	2797.698	1419.65	532.55
1006.3679	2798.8769	1412.3	525.85
1006.4873	2800.0551	1418.35	533.5
1006.6066	2801.2327	1418.85	533.3
1006.7258	2802.4096	1418.5	533.45
1006.8451	2803.5859	1421.9	535.2
1006.9642	2804.7615	1418.9	532.3
1007.0834	2805.9364	1431.5	546.7
1007.2025	2807.1106	1424.7	540.4
1007.3216	2808.2842	1436	548.3
1007.4406	2809.4572	1437.3	552.65
1007.5596	2810.6294	1446.75	559.55
1007.6785	2811.801	1458.4	573.1
1007.7975	2812.972	1455.6	568.8
1007.9163	2814.1423	1460.05	572
1008.0352	2815.3119	1486.45	600.65
1008.154	2816.4808	1485.65	600.8
1008.2727	2817.6491	1485.75	600.55
1008.3914	2818.8167	1500.55	615.85
1008.5101	2819.9837	1521.55	631.85
1008.6288	2821.15	1533.8	648.45
1008.7474	2822.3157	1546.3	662.45
1008.8659	2823.4807	1558.35	672.4
1008.9844	2824.645	1567.6	681.75
1009.1029	2825.8086	1589.6	703.8
1009.2214	2826.9716	1601.4	716.45
1009.3398	2828.134	1617	731.3
1009.4581	2829.2957	1627.05	742.05
1009.5764	2830.4567	1628.3	745.3
1009.6947	2831.617	1631.55	746.55
1009.813	2832.7767	1639.55	754.35
1009.9312	2833.9358	1633.6	750.75
1010.0493	2835.0941	1635.7	748.95
1010.1675	2836.2519	1626.3	741.95
1010.2855	2837.4089	1617.45	730.95
1010.4036	2838.5653	1613.4	728.5
1010.5216	2839.7211	1608.8	725.9
1010.6396	2840.8761	1622.45	735.4
1010.7575	2842.0306	1614.2	728.65
1010.8754	2843.1843	1621.55	735.85
1010.9932	2844.3374	1621	735.6
1011.111	2845.4899	1639	753.85
1011.2288	2846.6417	1644.55	760.7
1011.3465	2847.7928	1653.55	769.35
1011.4642	2848.9433	1664.45	780.35
1011.5818	2850.0931	1675.7	791.55
1011.6995	2851.2422	1700.35	811.75
1011.817	2852.3907	1709.2	823.15
1011.9345	2853.5385	1718.3	832.05
1012.052	2854.6857	1737.2	843.55
1012.1695	2855.8323	1734.1	850.2
1012.2869	2856.9781	1755.45	869.05
1012.4042	2858.1233	1760.25	874.45
1012.5216	2859.2679	1782.55	899.15
1012.6389	2860.4118	1779.35	894.05
1012.7561	2861.555	1801.05	910.05
1012.8733	2862.6976	1800.3	912.35
1012.9905	2863.8395	1811	929.2
1013.1076	2864.9808	1816.85	932.3
1013.2247	2866.1214	1824.9	939.85
1013.3417	2867.2614	1830.55	946.45
1013.4587	2868.4007	1837.45	949.05
1013.5757	2869.5393	1830.3	942.8
1013.6926	2870.6773	1833.6	944.5
1013.8095	2871.8146	1838.25	950.15
1013.9263	2872.9513	1846.55	959.4
1014.0431	2874.0874	1839.35	954.55
1014.1599	2875.2227	1828.8	944.6
1014.2766	2876.3574	1816.45	931.6
1014.3933	2877.4915	1811.35	928.35
1014.51	2878.6249	1797.05	913.05
1014.6266	2879.7577	1793.65	908.2
1014.7431	2880.8898	1791.65	898.3
1014.8596	2882.0212	1780.05	897
1014.9761	2883.152	1788.4	902.45
1015.0925	2884.2821	1781.75	897.85
1015.2089	2885.4116	1772.25	888.4
1015.3253	2886.5405	1776.45	892.85
1015.4416	2887.6686	1779.85	891.55
1015.5579	2888.7962	1778.65	895.05
1015.6741	2889.923	1777.1	895.1
1015.7903	2891.0493	1781.3	896.15
1015.9065	2892.1748	1782.2	897.85
1016.0226	2893.2997	1773.9	890
1016.1387	2894.424	1776.8	892.95
1016.2547	2895.5476	1777.15	892.25
1016.3707	2896.6706	1794.2	909.45
1016.4866	2897.7929	1797.5	911.7
1016.6025	2898.9145	1805.25	920.85
1016.7184	2900.0355	1798.25	912.85
1016.8342	2901.1559	1801.65	917.35
1016.95	2902.2756	1814.15	931.8
1017.0658	2903.3946	1814.5	931.55
1017.1815	2904.513	1828.5	941.65
1017.2971	2905.6308	1836.3	953
1017.4127	2906.7479	1825.7	941.85
1017.5283	2907.8643	1829.95	945.15
1017.6439	2908.9801	1835	950.15
1017.7594	2910.0953	1843.85	959.1
1017.8748	2911.2098	1838.25	952.35
1017.9902	2912.3236	1840.3	945.85
1018.1056	2913.4368	1837.75	952.1
1018.2209	2914.5494	1819.1	936.45
1018.3362	2915.6613	1825.1	936.65
1018.4515	2916.7725	1803.9	918.2
1018.5667	2917.8831	1790.8	903.3
1018.6819	2918.9931	1790.3	903
1018.797	2920.1024	1773.15	887.25
1018.9121	2921.211	1767.3	884.15
1019.0271	2922.319	1772.2	887.15
1019.1421	2923.4264	1764.95	879.65
1019.2571	2924.5331	1760.9	877.95
1019.372	2925.6391	1764.8	881.25
1019.4869	2926.7445	1758	874.55
1019.6017	2927.8493	1756.9	872.9
1019.7165	2928.9534	1752	866.2
1019.8313	2930.0569	1763.45	875
1019.946	2931.1597	1763.7	877.95
1020.0606	2932.2619	1749.35	864.65
1020.1753	2933.3634	1751.8	869.55
1020.2899	2934.4643	1767.75	877.4
1020.4044	2935.5645	1759.45	869.15
1020.5189	2936.6641	1760.05	870.95
1020.6334	2937.763	1743.1	858.9
1020.7478	2938.8613	1734.05	848.05
1020.8622	2939.959	1720.7	832.95
1020.9765	2941.056	1706.25	822.3
1021.0908	2942.1523	1690.65	804.85
1021.2051	2943.248	1667.15	781.9
1021.3193	2944.3431	1649.35	767.15
1021.4334	2945.4375	1629.35	741.55
1021.5476	2946.5313	1600.9	716.9
1021.6617	2947.6244	1566	680.45
1021.7757	2948.7169	1547.15	660.75
1021.8897	2949.8087	1521.35	638.1
1022.0037	2950.8999	1493.5	609.4
1022.1176	2951.9904	1481.75	599.6
1022.2315	2953.0803	1457.8	573.85
1022.3453	2954.1696	1449.8	566.05
1022.4591	2955.2582	1437.6	553.25
1022.5728	2956.3462	1417.95	534.3
1022.6865	2957.4335	1411.15	525.1
1022.8002	2958.5202	1400.15	516.05
1022.9138	2959.6062	1387.6	502.4
1023.0274	2960.6916	1389	504.85
1023.141	2961.7764	1378.35	492
1023.2545	2962.8605	1377.8	492.8
1023.3679	2963.9439	1365.2	480.3
1023.4813	2965.0267	1368.45	482.2
1023.5947	2966.1089	1385.2	479.35
1023.708	2967.1905	1366.95	481.75
1023.8213	2968.2714	1356.85	472.15
1023.9346	2969.3516	1363.9	480.05
1024.0478	2970.4312	1364.15	472.4
1024.1609	2971.5102	1364.15	480.75
1024.274	2972.5885	1360.6	477.9
1024.3871	2973.6662	1364.1	475.3
1024.5002	2974.7432	1357.75	475.65
1024.6132	2975.8196	1354.2	469.55
1024.7261	2976.8954	1353.8	469.95
1024.839	2977.9705	1347.4	463.1
1024.9519	2979.045	1353.9	470
1025.0647	2980.1188	1348.1	463.4
1025.1775	2981.192	1344.05	462.65
1025.2902	2982.2645	1333.3	447.6
1025.4029	2983.3364	1321.05	437.45
1025.5156	2984.4077	1319.3	434.4
1025.6282	2985.4783	1320.35	430.95
1025.7407	2986.5483	1304.85	420.8
1025.8532	2987.6177	1296.1	412.4
1025.9657	2988.6864	1291.1	404.85
1026.0782	2989.7545	1282.15	396.95
1026.1906	2990.8219	1269.8	386.8
1026.3029	2991.8887	1268.25	382.3
1026.4152	2992.9548	1254.8	369.45
1026.5275	2994.0204	1244.3	360.45
1026.6397	2995.0852	1231.75	348.1
1026.7519	2996.1495	1227.6	342.9
1026.864	2997.2131	1219.4	334.7
1026.9761	2998.276	1207.35	323.85
1027.0882	2999.3383	1207.7	324.15
1027.2002	3000.4	1196.35	309.7
1027.3122	3001.4611	1197.95	315.15
1027.4241	3002.5215	1189.8	307.85
1027.536	3003.5812	1186.9	303.4
1027.6478	3004.6404	1182	299.05
1027.7596	3005.6989	1174.1	291.05
1027.8714	3006.7567	1177.1	293.35
1027.9831	3007.8139	1186.05	281.2
1028.0947	3008.8705	1169.85	286.8
1028.2064	3009.9264	1178.1	279.3
1028.3179	3010.9818	1160.4	276.55
1028.4295	3012.0364	1159.85	274.85
1028.541	3013.0905	1150.9	267.85
1028.6524	3014.1439	1153	270.3
1028.7638	3015.1966	1147.35	262.4
1028.8752	3016.2487	1151.85	267.45
1028.9865	3017.3002	1150.05	261.7
1029.0978	3018.3511	1149	265.5
1029.209	3019.4013	1144.4	261.75
1029.3202	3020.4509	1144.4	259.3
1029.4314	3021.4998	1140.65	255.65
1029.5425	3022.5481	1140.2	255.95
1029.6535	3023.5958	1136	253.3
1029.7645	3024.6428	1140.55	254.85
1029.8755	3025.6892	1136.05	252.6
1029.9864	3026.735	1140	253.85
1030.0973	3027.7802	1141.05	253.9
1030.2082	3028.8247	1138.4	255.1
1030.319	3029.8685	1137.1	254.15
1030.4297	3030.9118	1133.25	248.15
1030.5404	3031.9544	1128.9	246.45
1030.6511	3032.9963	1140.15	255.8
1030.7617	3034.0376	1131.2	251.15
1030.8723	3035.0783	1129.65	244.75
1030.9829	3036.1184	1137.65	250.4
1031.0934	3037.1578	1131	251.25
1031.2038	3038.1966	1136.75	251.65
1031.3142	3039.2348	1135.25	252.45
1031.4246	3040.2723	1138.45	245.6
1031.5349	3041.3092	1130	246.45
1031.6452	3042.3455	1134.05	252.65
1031.7554	3043.3811	1130.8	246
1031.8656	3044.4161	1128.7	245
1031.9758	3045.4505	1125.75	241.7
1032.0859	3046.4842	1125.15	242.95
1032.1959	3047.5173	1120.8	239.3
1032.3059	3048.5498	1127.95	245.7
1032.4159	3049.5816	1124.5	240.2
1032.5258	3050.6128	1118.05	233.85
1032.6357	3051.6434	1120.9	234.65
1032.7455	3052.6734	1121.4	237.2
1032.8553	3053.7027	1118.25	233.05
1032.9651	3054.7314	1114.8	231.95
1033.0748	3055.7594	1119.7	235.95
1033.1845	3056.7868	1115.1	231.15
1033.2941	3057.8136	1111.75	228.6
1033.4037	3058.8398	1107.25	224.35
1033.5132	3059.8653	1115.2	232.15
1033.6227	3060.8902	1112.45	229.95
1033.7321	3061.9145	1109.75	225.85
1033.8415	3062.9381	1105.75	222.65
1033.9509	3063.9612	1123.85	222.35
1034.0602	3064.9835	1099.95	216.45
1034.1694	3066.0053	1101.15	214.8
1034.2787	3067.0264	1096.25	212.6
1034.3878	3068.0469	1103.25	217.95
1034.497	3069.0668	1103.1	216.3
1034.6061	3070.086	1097.25	215.2
1034.7151	3071.1046	1098.7	212.75
1034.8241	3072.1226	1093.95	209.55
1034.9331	3073.1399	1092.1	208.2
1035.042	3074.1567	1090.9	206.6
1035.1508	3075.1727	1089.05	205.1
1035.2597	3076.1882	1083.8	201.45
1035.3684	3077.203	1081.3	198.5
1035.4772	3078.2173	1080.4	196
1035.5859	3079.2308	1085.25	199.4
1035.6945	3080.2438	1082.7	196.8
1035.8031	3081.2561	1076.25	193.45
1035.9117	3082.2678	1072.45	190
1036.0202	3083.2789	1069.1	184.7
1036.1286	3084.2893	1068.6	185.4
1036.2371	3085.2991	1067.95	184.05
1036.3454	3086.3083	1068.65	181.45
1036.4538	3087.3169	1060.35	175.6
1036.562	3088.3248	1066.3	180.4
1036.6703	3089.3321	1060.05	173.65
1036.7785	3090.3388	1053.95	169.9
1036.8866	3091.3449	1052.55	171.9
1036.9948	3092.3503	1053.55	165.1
1037.1028	3093.3551	1056.05	174.3
1037.2108	3094.3593	1051.5	170.2
1037.3188	3095.3629	1051	167.7
1037.4267	3096.3658	1054.1	170.45
1037.5346	3097.3681	1045.6	162.75
1037.6425	3098.3698	1053.05	168.95
1037.7503	3099.3708	1051.8	164.25
1037.858	3100.3713	1044.1	161.55
1037.9657	3101.3711	1047.3	166.65
1038.0734	3102.3702	1178.35	153.35
1038.181	3103.3688	1042.3	158.3
1038.2886	3104.3667	1039.85	158.05
1038.3961	3105.364	1040.9	157.7
1038.5036	3106.3607	1041.2	156.8
1038.611	3107.3568	1036.3	153
1038.7184	3108.3522	1034.8	152.6
1038.8257	3109.347	1031.3	147.55
1038.933	3110.3412	1034.1	145.5
1039.0403	3111.3348	1035.6	152.05
1039.1475	3112.3277	1031.35	147.4
1039.2547	3113.32	1029.75	147.35
1039.3618	3114.3117	1028.75	143.75
1039.4689	3115.3028	1031.15	149.65
1039.5759	3116.2932	1031.6	144.75
1039.6829	3117.2831	1027.75	139.75
1039.7898	3118.2723	1022.8	141
1039.8967	3119.2608	1020.3	138.25
1040.0035	3120.2488	1021.9	140.65
1040.1103	3121.2361	1026.55	142.6
1040.2171	3122.2229	1021.55	137.95
1040.3238	3123.209	1023.4	139.05
1040.4305	3124.1944	1021.3	138.9
1040.5371	3125.1793	1022.05	136.85
1040.6437	3126.1635	1014.6	130.9
1040.7502	3127.1471	1016.6	134.8
1040.8567	3128.1301	1016.8	133
1040.9631	3129.1125	1013.45	129.9
1041.0695	3130.0942	1014.05	130.35
1041.1759	3131.0753	1023.25	131.9
1041.2822	3132.0558	1014.75	127.6
1041.3884	3133.0357	1013.85	129.8
1041.4946	3134.015	1013.65	127.8
1041.6008	3134.9936	1014.35	129.35
1041.7069	3135.9716	1025.6	124.35
1041.813	3136.949	1006.55	122.6
1041.919	3137.9258	1028.85	127.45
1042.025	3138.902	1017.65	130.15
1042.1309	3139.8775	1012.45	130.15
1042.2368	3140.8524	1006.8	124.55
1042.3427	3141.8267	1008.9	124.45
1042.4485	3142.8004	1004.7	120.95
1042.5542	3143.7735	1014.55	124.65
1042.6599	3144.7459	1006.8	121.15
1042.7656	3145.7178	1003.85	120.6
1042.8712	3146.689	1004.25	121.15
1042.9768	3147.6596	1006.95	120.6
1043.0823	3148.6295	1002.75	117.8
1043.1878	3149.5989	1003.4	121.55
1043.2932	3150.5676	998.35	116
1043.3986	3151.5357	998.25	116.85
1043.5039	3152.5032	999.9	119.75
1043.6092	3153.4701	997.1	113.6
1043.7145	3154.4364	998.75	113.4
1043.8197	3155.402	995.7	113.05
1043.9248	3156.367	1001.75	116.8
1044.03	3157.3315	1020.65	113.35
1044.135	3158.2952	995.35	111.4
1044.24	3159.2584	993.45	111.2
1044.345	3160.221	995.6	111.15
1044.4499	3161.1829	990.4	107.85
1044.5548	3162.1442	992	110.7
1044.6596	3163.105	991.95	111
1044.7644	3164.065	993.1	110.05
1044.8692	3165.0245	991.55	105.45
1044.9739	3165.9834	986.35	104.2
1045.0785	3166.9416	990.45	109.25
1045.1831	3167.8993	993.45	110.5
1045.2877	3168.8563	987.4	104.1
1045.3922	3169.8127	988.05	106.05
1045.4966	3170.7684	987.25	102.35
1045.6011	3171.7236	988.3	104.65
1045.7054	3172.6782	986.25	104.05
1045.8098	3173.6321	988.65	107.45
1045.914	3174.5854	994.65	107.3
1046.0183	3175.5381	982.85	100.2
1046.1224	3176.4902	982.05	101.3
1046.2266	3177.4417	983.2	103.75
1046.3307	3178.3926	983.95	100.95
1046.4347	3179.3428	981	99.7
1046.5387	3180.2924	981.9	99.15
1046.6427	3181.2415	980.25	95.95
1046.7466	3182.1899	982.45	97.8
1046.8504	3183.1377	981.3	98.8
1046.9542	3184.0848	981.55	93.2
1047.058	3185.0314	979.6	94.7
1047.1617	3185.9773	977.85	92.95
1047.2654	3186.9227	981.95	97.1
1047.369	3187.8674	977.1	94
1047.4726	3188.8115	978.65	93.05
1047.5761	3189.755	976.15	94.6
1047.6796	3190.6979	976.65	93.4
1047.783	3191.6402	976	95
1047.8864	3192.5818	975.85	94.25
1047.9898	3193.5229	978.3	89.2
1048.0931	3194.4633	971.5	87.4
1048.1963	3195.4031	974.1	91.3
1048.2995	3196.3423	973	89.1
1048.4027	3197.2809	974.8	91.7
1048.5058	3198.2189	971.85	88.15
1048.6089	3199.1563	979.85	89.3
1048.7119	3200.0931	970.2	88.35
1048.8148	3201.0292	970.15	87.65
1048.9178	3201.9648	969.55	88.3
1049.0206	3202.8997	974.25	88.95
1049.1235	3203.834	970.15	86.2
1049.2262	3204.7677	968.05	85.15
1049.329	3205.7008	970.65	84.05
1049.4317	3206.6333	967.8	87.65
1049.5343	3207.5652	967.5	81.6
1049.6369	3208.4964	964.15	82.7
1049.7394	3209.4271	965.3	82.8
1049.8419	3210.3571	967.7	85.45
1049.9444	3211.2865	966.6	84.7
1050.0468	3212.2154	966.5	83.65
1050.1491	3213.1436	967.55	82.4
1050.2514	3214.0712	974.45	87.45
1050.3537	3214.9982	967.25	84.65
1050.4559	3215.9246	962.65	78.55
1050.5581	3216.8503	961.95	79.6
1050.6602	3217.7755	963.85	80
1050.7623	3218.7001	963.95	81.55
1050.8643	3219.624	962.8	79.45
1050.9663	3220.5473	961.95	79.55
1051.0682	3221.4701	961.35	78.75
1051.1701	3222.3922	964.2	80.3
1051.2719	3223.3137	957.65	75.95
1051.3737	3224.2346	961.9	78.25
1051.4754	3225.1549	959.35	77.4
1051.5771	3226.0746	957.75	74.9
1051.6788	3226.9937	959.75	75.7
1051.7804	3227.9121	960.25	78.2
1051.8819	3228.83	959.7	78.05
1051.9834	3229.7473	956.3	72.95
1052.0849	3230.6639	956.7	72.25
1052.1863	3231.5799	959.9	78.35
1052.2876	3232.4954	955.25	73.15
1052.3889	3233.4102	956.3	74.4
1052.4902	3234.3244	957.2	74.75
1052.5914	3235.238	953.8	71.65
1052.6926	3236.151	979.6	71.75
1052.7937	3237.0634	955.05	72.55
1052.8948	3237.9752	952.9	71.5
1052.9958	3238.8864	955.65	69.9
1053.0968	3239.797	953.35	69.85
1053.1977	3240.7069	951.45	69.35
1053.2986	3241.6163	953.35	69.4
1053.3994	3242.5251	952.85	71.7
1053.5002	3243.4332	948.9	66.4
1053.6009	3244.3408	950.3	66.55
1053.7016	3245.2477	947.65	64.75
1053.8022	3246.154	951.55	67.8
1053.9028	3247.0598	948.2	64.8
1054.0034	3247.9649	951.05	67.7
1054.1039	3248.8694	945.95	64.05
1054.2043	3249.7733	947.25	64.35
1054.3047	3250.6766	948.9	66.5
1054.4051	3251.5793	948.3	63.55
1054.5054	3252.4814	947.4	63.75
1054.6056	3253.3829	945.4	63.3
1054.7058	3254.2838	947.45	65.6
1054.806	3255.1841	945.4	62.6
1054.9061	3256.0838	945.75	62.8
1055.0061	3256.9829	944.35	62.05
1055.1062	3257.8814	946.15	62.7
1055.2061	3258.7792	944.4	61.5
1055.306	3259.6765	941.45	58.5
1055.4059	3260.5731	942.2	60.05
1055.5057	3261.4692	940.8	56.7
1055.6055	3262.3647	941.55	58.85
1055.7052	3263.2595	937.6	55.25
1055.8049	3264.1538	940.7	56.8
1055.9045	3265.0474	938.1	54.7
1056.0041	3265.9404	937.45	55.35
1056.1036	3266.8329	937.05	55.6
1056.2031	3267.7247	945.15	52.8
1056.3025	3268.616	936.85	54.95
1056.4019	3269.5066	932.8	49.3
1056.5013	3270.3966	930.35	46.4
1056.6005	3271.286	928.6	46.4
