Software Version:	3.9.2.0
Unit SN:	10000200
Spectrometer SN:	6960
Date:	3/26/2024 1:42:41 PM
Data Line Index:	25
Spectral Points:	2048
Integration time (ms):	125
Averages:	20
Delay (ms):	30000
Sequence Number:	1
Processing:	dark subtract
Laser Power (mW):	300
Laser Current (mA):	821
Laser Diode Temp (C):	25
Laser Case Temp (C):	27.2
System Temp (C):	27.1
Spectrometer Temp (C):	24.9
CCD Temp (C):	0.01
Secondary Temp (C):	20.007
Heatsink Temp (C):	22.695
CCDPCB Temp (C):	36.696
SecondaryPCB Temp (C):	34.328

Wavelength	RamanShift	Raw Counts	Dark Subtracted
787.061	30.1047	590.75	180.55
787.2016	32.3739	600.3	191.45
787.3422	34.6426	616.75	207.1
787.4828	36.9109	623.5	211.8
787.6235	39.1787	642.8	225.05
787.7642	41.4461	670.65	250.55
787.9049	43.7131	688.2	263.45
788.0456	45.9796	698.55	268.9
788.1863	48.2456	726.65	295.35
788.3271	50.5112	739.1	302.8
788.4679	52.7764	765.9	327.55
788.6087	55.0411	789.3	348
788.7496	57.3054	825.9	378.65
788.8904	59.5692	841.4	391.4
789.0313	61.8326	875.5	421
789.1722	64.0955	907.8	451.4
789.3132	66.3579	945.45	482.15
789.4541	68.6199	996.55	529.85
789.5951	70.8815	1077.35	610.2
789.7361	73.1426	1243.15	770
789.8771	75.4032	1684.9	1206.6
790.0181	77.6634	2743.15	2259.35
790.1592	79.9231	5385.15	4889.35
790.3003	82.1824	11423.05	10912.85
790.4414	84.4412	23705.85	23160.45
790.5825	86.6995	44827.2	44234.8
790.7237	88.9574	56904	56266.6
790.8648	91.2148	61434	60772.1
791.006	93.4717	62206.2	61524.15
791.1472	95.7282	62522.4	61830.55
791.2885	97.9842	62650	61946.2
791.4297	100.2398	62548.55	61848.15
791.571	102.4949	62520.5	61818.35
791.7123	104.7495	62418.75	61712.1
791.8536	107.0036	62243.55	61534.05
791.9949	109.2573	62360.6	61652.6
792.1363	111.5105	62157.85	61448.6
792.2777	113.7632	62082.25	61369.65
792.4191	116.0154	62142.05	61419.1
792.5605	118.2672	62246.8	61526.2
792.7019	120.5185	62226.8	61506.4
792.8434	122.7693	62201.05	61482.7
792.9849	125.0197	61903.95	61182.95
793.1264	127.2696	62343.9	61616.05
793.2679	129.519	62216.5	61490.8
793.4094	131.7679	62380.35	61643.5
793.551	134.0163	61925.45	61188.45
793.6926	136.2642	62068.35	61323.65
793.8342	138.5117	62299.05	61550.25
793.9758	140.7587	62135	61388.65
794.1175	143.0052	62091.85	61340.95
794.2591	145.2512	61795.2	61049.45
794.4008	147.4967	62074.7	61328
794.5425	149.7417	61970.1	61224
794.6842	151.9863	61943.7	61193.2
794.826	154.2304	61787.85	61033.55
794.9677	156.4739	61875.55	61110.25
795.1095	158.717	62074.25	61311.25
795.2513	160.9596	61873.7	61106.35
795.3931	163.2017	61618.85	60844.45
795.535	165.4433	61815.15	61041.5
795.6768	167.6844	61636.6	60864.05
795.8187	169.925	61751.25	60981
795.9606	172.1651	61560.75	60783.7
796.1025	174.4047	61627.85	60850.4
796.2445	176.6439	61552.75	60769.55
796.3864	178.8825	61437	60656.6
796.5284	181.1206	61661.8	60871.75
796.6704	183.3582	61600	60809.6
796.8124	185.5954	61494.05	60700.35
796.9544	187.832	61494.55	60696.8
797.0965	190.0681	61299.95	60500.9
797.2386	192.3037	61606.8	60805.8
797.3806	194.5388	61902.95	61099.7
797.5228	196.7734	61167	60357.35
797.6649	199.0075	61884.1	61070.7
797.807	201.2411	61582.6	60767.15
797.9492	203.4742	61995.35	61180.4
798.0914	205.7068	61885.4	61066.65
798.2336	207.9389	61865	61049.3
798.3758	210.1704	61836.75	61016.05
798.518	212.4015	62120.3	61303.35
798.6603	214.632	61799.25	60974.35
798.8025	216.862	62137.6	61327.75
798.9448	219.0915	61952.6	61153.35
799.0871	221.3205	61948.5	61140.8
799.2294	223.549	62209.65	61408.65
799.3718	225.777	62157.1	61353.75
799.5141	228.0044	62319.7	61516.2
799.6565	230.2314	62218.8	61420.2
799.7989	232.4578	62216.3	61416.4
799.9413	234.6837	62290.25	61481.45
800.0837	236.909	62709.1	61899.8
800.2262	239.1339	62086.65	61245.5
800.3687	241.3582	62351.2	61523.9
800.5111	243.582	62356.2	61502.9
800.6536	245.8053	62326.1	61488.1
800.7961	248.0281	62367.9	61533.95
800.9387	250.2503	62437	61598.6
801.0812	252.472	62199.8	61355.1
801.2238	254.6932	62365.25	61520.05
801.3664	256.9139	62305.2	61459.05
801.509	259.134	62679.5	61830.5
801.6516	261.3536	62272.45	61422.55
801.7942	263.5727	62499.9	61642.55
801.9369	265.7912	62378.45	61526.3
802.0795	268.0092	62467.85	61614.1
802.2222	270.2267	62526.35	61674.1
802.3649	272.4436	62342.15	61491.25
802.5076	274.6601	62498.8	61636.9
802.6504	276.8759	62568.4	61718.3
802.7931	279.0913	62442.5	61585.55
802.9359	281.3061	62500.35	61640.35
803.0787	283.5204	62472.6	61609.45
803.2215	285.7341	62447.35	61581.9
803.3643	287.9473	62638.9	61762.55
803.5071	290.16	62514.9	61643.55
803.6499	292.3721	62602.7	61736.45
803.7928	294.5837	62508.1	61640.35
803.9357	296.7947	62409.15	61542.75
804.0786	299.0052	62710.2	61843.35
804.2215	301.2152	62565.35	61699.8
804.3644	303.4246	62638.45	61773.7
804.5074	305.6334	62617.6	61756.5
804.6503	307.8418	62340.75	61473.65
804.7933	310.0495	62306.75	61432.85
804.9363	312.2568	62243.55	61370.85
805.0793	314.4635	62215.95	61346.7
805.2223	316.6696	62312.05	61435.45
805.3653	318.8752	62410.95	61530.05
805.5084	321.0802	61945.3	61068.9
805.6514	323.2847	62174.15	61296.85
805.7945	325.4887	62152.65	61272.6
805.9376	327.692	62049.55	61169.7
806.0807	329.8949	62132.75	61255.5
806.2238	332.0972	62012.9	61130.5
806.367	334.2989	62058.2	61173.25
806.5101	336.5001	62188.5	61301.1
806.6533	338.7007	61788.9	60904.7
806.7965	340.9008	61958.45	61069.1
806.9397	343.1003	61983.7	61102.1
807.0829	345.2992	62115.75	61228.15
807.2261	347.4976	61889.35	60999.2
807.3693	349.6955	61968.75	61074.7
807.5126	351.8927	61805.25	60913.3
807.6559	354.0895	61972.25	61070.65
807.7991	356.2856	61925.8	61029.65
807.9424	358.4812	62077.25	61179.75
808.0857	360.6763	61769.35	60876.35
808.2291	362.8707	62035.65	61137.5
808.3724	365.0646	61851.35	60951.65
808.5158	367.258	61877.75	60982.95
808.6591	369.4508	61697.4	60798.7
808.8025	371.643	62005.95	61100.05
808.9459	373.8346	61872.85	60963.8
809.0893	376.0257	61920.2	61007.75
809.2327	378.2162	61843.3	60937.05
809.3762	380.4062	61558.8	60651.4
809.5196	382.5956	61752.3	60844.75
809.6631	384.7844	61695.7	60793.45
809.8066	386.9726	61812.45	60904.85
809.9501	389.1603	61799	60895.45
810.0936	391.3474	61557.7	60612.6
810.2371	393.5339	61739.1	60831.85
810.3806	395.7199	61440.25	60536.4
810.5241	397.9052	61493.6	60593.25
810.6677	400.09	61569.7	60673.15
810.8113	402.2743	61753.6	60850.95
810.9548	404.4579	61543.3	60644.3
811.0984	406.641	61570.6	60668.55
811.2421	408.8235	61702.35	60805.5
811.3857	411.0054	61743.65	60844.7
811.5293	413.1868	61774.7	60865.8
811.673	415.3675	61709.8	60801.65
811.8166	417.5477	61736.55	60828.95
811.9603	419.7273	61710.4	60799.95
812.104	421.9064	61658.25	60741.15
812.2477	424.0848	61710.4	60800.6
812.3914	426.2627	61845.5	60931.85
812.5351	428.4399	61523.65	60612.4
812.6788	430.6166	61237	60320.4
812.8226	432.7928	61465.95	60550.9
812.9663	434.9683	61203.15	60288.35
813.1101	437.1432	61182.1	60272.1
813.2539	439.3176	61349.1	60443
813.3977	441.4914	61008.5	60103
813.5415	443.6645	61071.1	60159.4
813.6853	445.8371	61086.9	60171.85
813.8291	448.0091	60930	60014.15
813.973	450.1806	60831.4	59917.5
814.1168	452.3514	60873.75	59962.45
814.2607	454.5216	60727.7	59809.85
814.4046	456.6913	60891.75	59977.45
814.5485	458.8603	60933.85	60026.6
814.6924	461.0288	60723.5	59811
814.8363	463.1967	60896.45	59994.7
814.9802	465.3639	60886.85	59971.85
815.1241	467.5306	60512.65	59593.9
815.2681	469.6967	60727.2	59819.35
815.412	471.8622	60845	59938.2
815.556	474.0271	60738.85	59827.15
815.7	476.1914	60781.6	59866.5
815.844	478.3551	60781.55	59868.85
815.988	480.5182	60964.55	60053.15
816.132	482.6807	60694.85	59789.2
816.276	484.8426	60773.5	59875.6
816.4201	487.0039	61070.85	60164.7
816.5641	489.1647	61062	60147.6
816.7082	491.3248	60805.2	59893.4
816.8522	493.4843	61160.15	60251.1
816.9963	495.6432	61151.75	60241.3
817.1404	497.8015	60784.35	59860.25
817.2845	499.9592	60966.6	60040.1
817.4286	502.1163	60950.8	60023.25
817.5727	504.2728	60898.45	59982.2
817.7168	506.4287	60829.85	59927.05
817.861	508.5839	60601.25	59692.05
818.0051	510.7386	60670.2	59758.1
818.1493	512.8927	60699.55	59773.55
818.2935	515.0461	60585.65	59666.25
818.4377	517.199	60796.15	59874.45
818.5818	519.3512	60674.25	59750.75
818.726	521.5029	60641.5	59715.25
818.8703	523.6539	60735.05	59815.35
819.0145	525.8043	60479.4	59556.3
819.1587	527.9541	60703.1	59777.05
819.303	530.1033	60653.6	59725.75
819.4472	532.2519	60528.4	59605.7
819.5915	534.3999	60636.5	59711.8
819.7357	536.5472	60769.05	59844.1
819.88	538.694	60501.85	59584.45
820.0243	540.8401	60724.8	59799.75
820.1686	542.9856	60738.2	59804.7
820.3129	545.1305	60849	59902.45
820.4572	547.2748	60671.4	59729
820.6016	549.4185	60633.4	59689.85
820.7459	551.5615	60736.25	59791.8
820.8902	553.704	60695.65	59755.85
821.0346	555.8458	60539.45	59604.65
821.1789	557.987	60642	59709.1
821.3233	560.1276	60731.9	59796.25
821.4677	562.2675	60682.1	59745.05
821.6121	564.4069	60773.45	59841.9
821.7565	566.5456	60941.3	60008.55
821.9009	568.6837	60716.05	59781.55
822.0453	570.8212	60738.2	59806.2
822.1897	572.958	60332.2	59402.75
822.3342	575.0942	60501.45	59570.85
822.4786	577.2299	60250.65	59331.1
822.6231	579.3648	60181.95	59271.05
822.7675	581.4992	60106.8	59201.85
822.912	583.6329	60085.95	59183.4
823.0565	585.766	60109.5	59201.15
823.201	587.8985	60218.3	59302.1
823.3454	590.0304	59871.45	58922.85
823.4899	592.1616	60115.85	59179.65
823.6345	594.2922	59926.7	58985.65
823.779	596.4222	59712.9	58772.35
823.9235	598.5515	59737.5	58794.6
824.068	600.6802	59831.95	58892.15
824.2126	602.8083	59537.15	58601.95
824.3571	604.9358	59473.85	58540.9
824.5017	607.0626	59671.8	58730.5
824.6462	609.1888	59367.9	58421.55
824.7908	611.3144	59615.55	58670.15
824.9354	613.4393	59472.3	58531.8
825.08	615.5636	59373.65	58428.45
825.2246	617.6873	59489.65	58547.75
825.3692	619.8103	59283.95	58338.8
825.5138	621.9327	59456.2	58517.65
825.6584	624.0544	59445.7	58509.85
825.803	626.1756	59261.6	58326.3
825.9477	628.2961	59250.45	58306.6
826.0923	630.4159	59094.8	58149.7
826.237	632.5351	59031.35	58091.45
826.3816	634.6537	59408.05	58464.5
826.5263	636.7716	58956.85	58007.35
826.6709	638.8889	59084.75	58131.5
826.8156	641.0056	59038.1	58085.45
826.9603	643.1216	59107.55	58155.1
827.105	645.237	59198.5	58250.4
827.2497	647.3518	58910.6	57969.2
827.3944	649.4659	59007.6	58073.95
827.5391	651.5793	59008.45	58071.95
827.6838	653.6922	59003.65	58064.75
827.8285	655.8043	58663.6	57724.4
827.9733	657.9159	59136.7	58197.35
828.118	660.0268	58223.45	57278.9
828.2627	662.137	58705.55	57758.5
828.4075	664.2466	58800.9	57849.7
828.5522	666.3556	58602.75	57655.5
828.697	668.4639	58728.95	57782.1
828.8418	670.5716	58515.6	57576.2
828.9865	672.6786	58714.6	57770.5
829.1313	674.785	58434.6	57487.2
829.2761	676.8907	58428	57484.6
829.4209	678.9958	58545.4	57604.65
829.5657	681.1002	58580	57635.1
829.7105	683.204	58215.05	57255.35
829.8553	685.3072	58058.95	57107.55
830.0001	687.4097	58183.3	57233.9
830.1449	689.5115	58053.25	57105.15
830.2898	691.6127	58336.25	57391.1
830.4346	693.7132	58005	57061
830.5794	695.8131	58066.2	57107.4
830.7243	697.9123	58163.15	57206.6
830.8691	700.0109	58205.4	57249.65
831.014	702.1089	57733.95	56782
831.1588	704.2061	57913.4	56963.6
831.3037	706.3028	57964.6	57015.45
831.4486	708.3987	57986.1	57031.5
831.5935	710.4941	57816.7	56867.65
831.7383	712.5887	58053.8	57104.9
831.8832	714.6827	57866.3	56912.05
832.0281	716.7761	58115.75	57170.35
832.173	718.8688	58235.5	57290.65
832.3179	720.9608	57947	56987.45
832.4628	723.0522	58081.75	57118.95
832.6077	725.1429	57820.15	56860.9
832.7527	727.233	58447.55	57494.25
832.8976	729.3224	57399.9	56445.25
833.0425	731.4112	57756.8	56806.65
833.1874	733.4993	57668.6	56712.8
833.3324	735.5867	57619.85	56669.15
833.4773	737.6735	57297.5	56340.45
833.6222	739.7596	57011.75	56055.35
833.7672	741.845	56928.85	55974.45
833.9122	743.9298	57230.35	56278.65
834.0571	746.014	56871.05	55917.4
834.2021	748.0974	56620.05	55658.35
834.347	750.1802	57067.5	56104.7
834.492	752.2624	56414.5	55460.5
834.637	754.3439	56513.6	55553.55
834.782	756.4247	56643.1	55672.95
834.9269	758.5048	56399.6	55444.6
835.0719	760.5843	56578.65	55619
835.2169	762.6631	56805.55	55845.7
835.3619	764.7413	56824.25	55868.7
835.5069	766.8188	57085.6	56129.2
835.6519	768.8956	57409.7	56445.9
835.7969	770.9718	57474.3	56517.55
835.9419	773.0473	57243.45	56283.85
836.0869	775.1221	56869.45	55911.9
836.232	777.1962	56783.35	55824.05
836.377	779.2697	56375.85	55412.35
836.522	781.3426	56542.1	55568.5
836.667	783.4147	56630.2	55667.15
836.8121	785.4862	56582.1	55620.25
836.9571	787.557	56222.15	55260.4
837.1021	789.6271	56399.5	55433.9
837.2472	791.6966	55882.55	54920.4
837.3922	793.7654	55339.2	54376.85
837.5373	795.8335	55159	54203.35
837.6823	797.901	55182.4	54223.25
837.8274	799.9678	54922.4	53957.85
837.9724	802.0339	54737.85	53778.75
838.1175	804.0993	54771.7	53803.25
838.2626	806.1641	54557.25	53592.95
838.4076	808.2282	54413.9	53453.85
838.5527	810.2916	54328.65	53366.75
838.6978	812.3544	54502.6	53547.15
838.8428	814.4164	54021.5	53061.4
838.9879	816.4778	54153.35	53187.75
839.133	818.5385	54124.1	53160.35
839.2781	820.5986	54089.15	53124.1
839.4232	822.658	54265.5	53302.35
839.5682	824.7166	54350.85	53389.45
839.7133	826.7747	54163.75	53200
839.8584	828.832	54485.65	53522.55
840.0035	830.8886	54792.8	53829.05
840.1486	832.9446	54867.35	53906.4
840.2937	834.9999	54096.75	53131.15
840.4388	837.0545	54314.35	53347.7
840.5839	839.1085	54296.25	53333.25
840.729	841.1618	54040.5	53072.3
840.8741	843.2143	53506.3	52543
841.0192	845.2662	53343.65	52381.8
841.1643	847.3175	53448.95	52486.4
841.3095	849.368	52892.4	51928.7
841.4546	851.4179	53211.95	52246.2
841.5997	853.467	52795.7	51830.9
841.7448	855.5155	52930.25	51964.65
841.8899	857.5633	52578.6	51614.3
842.0351	859.6105	52259.5	51296.3
842.1802	861.6569	52435.3	51469.4
842.3253	863.7027	51996	51030.2
842.4704	865.7478	52120.6	51154.2
842.6156	867.7922	51994.5	51030.15
842.7607	869.8359	52115.65	51154.2
842.9058	871.8789	51695.65	50726.95
843.0509	873.9212	51957.95	50962.55
843.1961	875.9629	51886.9	50920.6
843.3412	878.0039	51878.75	50915.85
843.4863	880.0441	51792.45	50835.7
843.6315	882.0837	51814.05	50848.6
843.7766	884.1226	51783.65	50817.65
843.9218	886.1609	51739.85	50774.9
844.0669	888.1984	51572.3	50606.85
844.212	890.2352	51953.95	50989.45
844.3572	892.2714	51549.25	50578.8
844.5023	894.3069	51644.1	50678.55
844.6475	896.3416	51380.2	50415.2
844.7926	898.3757	51220.45	50257.45
844.9377	900.4091	50757.5	49786.95
845.0829	902.4418	51132.5	50158.6
845.228	904.4739	50824.35	49853
845.3732	906.5052	50929.25	49959
845.5183	908.5358	50679.95	49711.55
845.6635	910.5658	50484.5	49512.5
845.8086	912.595	50340.65	49371.7
845.9538	914.6236	49875.8	48905.55
846.0989	916.6515	50265.95	49297.7
846.2441	918.6786	49597.95	48630.65
846.3892	920.7051	49755.55	48785.85
846.5344	922.7309	49686	48716.2
846.6795	924.756	49677.8	48708.55
846.8246	926.7804	49494.9	48528.5
846.9698	928.8041	49005.4	48038.7
847.1149	930.8272	49299.4	48330.2
847.2601	932.8495	49162.25	48195.3
847.4052	934.8711	48891.85	47922.45
847.5504	936.892	48657.5	47690.85
847.6955	938.9123	48633.5	47662.9
847.8407	940.9318	48424.8	47460.05
847.9858	942.9506	48318.7	47351.2
848.131	944.9688	48264.1	47296.1
848.2761	946.9862	47751	46786.1
848.4213	949.003	47740.25	46770.85
848.5664	951.019	47299.3	46333.65
848.7115	953.0344	47289.8	46322.8
848.8567	955.0491	47187.15	46217
849.0018	957.063	47256.55	46289.6
849.147	959.0763	47394.3	46421.95
849.2921	961.0888	47082.1	46116.85
849.4373	963.1007	47286.2	46322.1
849.5824	965.1119	47175.1	46217.95
849.7275	967.1223	47003.25	46051.25
849.8727	969.1321	47062.3	46113.9
850.0178	971.1412	46785.95	45826.3
850.1629	973.1495	46618.35	45656.15
850.3081	975.1572	46644.5	45653.95
850.4532	977.1641	46601.3	45636.45
850.5983	979.1704	46355.6	45387.25
850.7435	981.1759	46361.6	45390.7
850.8886	983.1808	46185.25	45215.25
851.0337	985.1849	46122.25	45146.6
851.1788	987.1884	46096.85	45128.6
851.324	989.1911	46212.6	45246.75
851.4691	991.1932	45893.85	44930.2
851.6142	993.1945	45894.9	44930.2
851.7593	995.1951	45746.15	44777.9
851.9045	997.1951	45556.7	44582.1
852.0496	999.1943	45390.1	44424.65
852.1947	1001.1928	45227.5	44260.65
852.3398	1003.1906	45142.55	44180.3
852.4849	1005.1877	44965.65	43998.95
852.63	1007.1841	44831.4	43867
852.7751	1009.1798	44739.8	43774.7
852.9202	1011.1748	44559.8	43592.85
853.0653	1013.1691	44367.2	43400.95
853.2104	1015.1627	43837.55	42876.5
853.3555	1017.1556	43590.9	42630.15
853.5006	1019.1477	43484.25	42525.8
853.6457	1021.1392	43109.5	42152
853.7908	1023.1299	42837.4	41886
853.9359	1025.12	42776.3	41829.45
854.081	1027.1093	42593	41655.25
854.2261	1029.0979	42574.3	41643.9
854.3712	1031.0859	42526.4	41584.85
854.5163	1033.0731	42379.2	41428.15
854.6613	1035.0596	42278.7	41326
854.8064	1037.0454	41988.6	41029.75
854.9515	1039.0304	41811.05	40850.65
855.0965	1041.0148	41508.25	40547.2
855.2416	1042.9985	41333.05	40369.85
855.3867	1044.9814	41357.15	40398.15
855.5317	1046.9636	41021.3	40062.4
855.6768	1048.9452	40903.2	39946.05
855.8219	1050.926	40880.3	39922.1
855.9669	1052.9061	40767.55	39804.6
856.112	1054.8855	40691.6	39733.9
856.257	1056.8642	40626.95	39667.25
856.4021	1058.8421	40576.35	39609.35
856.5471	1060.8194	40490.1	39523.25
856.6921	1062.7959	40396.05	39432.15
856.8372	1064.7717	40413.95	39450.9
856.9822	1066.7469	40370	39409.35
857.1272	1068.7213	40290.8	39325.65
857.2723	1070.695	40274.95	39314.5
857.4173	1072.6679	40044	39084.15
857.5623	1074.6402	40032.05	39068.8
857.7073	1076.6117	39950.9	38984.9
857.8523	1078.5826	39853.9	38888.7
857.9973	1080.5527	39628	38664.2
858.1423	1082.5221	39423.8	38461.85
858.2873	1084.4908	39426.7	38464.15
858.4323	1086.4587	39335.3	38373.05
858.5773	1088.426	39348.05	38383.7
858.7223	1090.3925	39186.45	38219.65
858.8673	1092.3584	39167.1	38209.35
859.0123	1094.3235	38883.6	37923.2
859.1573	1096.2879	38842.5	37881.9
859.3022	1098.2515	38838.7	37879.85
859.4472	1100.2145	38886.95	37930.05
859.5922	1102.1767	38900	37939.85
859.7371	1104.1382	38992.45	38032.75
859.8821	1106.099	39063.95	38102.55
860.027	1108.0591	39096.9	38136.45
860.172	1110.0185	39106.65	38145.45
860.3169	1111.9771	39145.65	38184.55
860.4619	1113.9351	38860.25	37901.85
860.6068	1115.8923	38670.05	37709.8
860.7517	1117.8488	38362.15	37398.05
860.8967	1119.8045	38056.7	37097.55
861.0416	1121.7596	37995.4	37037.35
861.1865	1123.7139	37757.35	36802.9
861.3314	1125.6675	37588.55	36629.5
861.4763	1127.6204	37628.05	36667.35
861.6212	1129.5726	37440.55	36478.8
861.7661	1131.524	37391.3	36432.15
861.911	1133.4748	37254.25	36295.35
862.0559	1135.4248	36976.2	36014.75
862.2008	1137.3741	36853.3	35897.2
862.3457	1139.3226	36710.7	35752.5
862.4905	1141.2705	36607.25	35648.35
862.6354	1143.2176	36387.95	35426.1
862.7803	1145.164	36297.9	35337.9
862.9251	1147.1097	36219.6	35262.85
863.07	1149.0546	36095.2	35135.3
863.2148	1150.9989	36034.35	35074.4
863.3597	1152.9424	35880.35	34921.75
863.5045	1154.8852	35733.85	34773.05
863.6493	1156.8272	35662.7	34702.55
863.7942	1158.7686	35588.05	34621.65
863.939	1160.7092	35498.5	34538.2
864.0838	1162.6491	35300.25	34339.9
864.2286	1164.5883	35420.9	34462.4
864.3734	1166.5267	35375.1	34418.7
864.5182	1168.4644	35427.25	34466.55
864.663	1170.4014	35495.05	34534.3
864.8078	1172.3377	35664.9	34710.1
864.9526	1174.2732	35829.25	34875.45
865.0974	1176.2081	36060.6	35107.7
865.2421	1178.1421	36274.45	35314.95
865.3869	1180.0755	36621.35	35668.1
865.5317	1182.0082	36625.55	35670.55
865.6764	1183.9401	36714.75	35760.25
865.8212	1185.8713	36540.05	35590.55
865.9659	1187.8017	36300.7	35357.2
866.1106	1189.7315	35949.4	35013.9
866.2554	1191.6605	35442.8	34506.5
866.4001	1193.5888	35116.95	34176.3
866.5448	1195.5163	34989.45	34043.3
866.6895	1197.4432	34814.1	33863.55
866.8342	1199.3693	34695.9	33743.65
866.9789	1201.2947	34501.6	33546.25
867.1236	1203.2193	34379.1	33424.5
867.2683	1205.1432	34347.9	33391
867.413	1207.0664	34234.4	33280.65
867.5576	1208.9889	34118.75	33160.3
867.7023	1210.9106	33953.1	33000.45
867.847	1212.8316	33868.5	32916.45
867.9916	1214.7519	33822.25	32857.6
868.1363	1216.6715	33757.85	32804.45
868.2809	1218.5903	33770.9	32817.65
868.4255	1220.5084	33663.05	32708.45
868.5701	1222.4257	33757.65	32803.35
868.7148	1224.3424	33598.7	32647.2
868.8594	1226.2583	33614.15	32656.35
869.004	1228.1735	33623.05	32671.8
869.1486	1230.0879	33560.75	32604.6
869.2932	1232.0016	33596.55	32644.45
869.4377	1233.9146	33579.75	32628.05
869.5823	1235.8269	33528.7	32574.7
869.7269	1237.7384	33511.15	32559.25
869.8715	1239.6492	33242.6	32291.9
870.016	1241.5592	33171.5	32217.05
870.1606	1243.4686	33034.4	32082.7
870.3051	1245.3772	33035.95	32082.9
870.4496	1247.285	33076.25	32122.6
870.5941	1249.1922	33090.8	32137.95
870.7387	1251.0986	33136.55	32183.7
870.8832	1253.0042	33045.65	32095.9
871.0277	1254.9092	33058.75	32110.4
871.1722	1256.8134	33044.8	32098.05
871.3167	1258.7169	33129.45	32176.15
871.4611	1260.6196	33112.8	32163.45
871.6056	1262.5216	33280.25	32326.7
871.7501	1264.4229	33310.7	32359.5
871.8945	1266.3234	33443.25	32495.35
872.039	1268.2232	33517	32563.65
872.1834	1270.1223	33484.7	32530.8
872.3278	1272.0207	33430.85	32479.95
872.4723	1273.9183	33290.55	32329.65
872.6167	1275.8151	33171.8	32222.3
872.7611	1277.7113	33102.4	32153.95
872.9055	1279.6067	33029.4	32078.95
873.0499	1281.5014	33025	32073.75
873.1943	1283.3953	33195.15	32243
873.3386	1285.2885	33465.5	32513.45
873.483	1287.181	33751.25	32799.05
873.6274	1289.0727	34036.6	33091.1
873.7717	1290.9637	34155	33201.9
873.9161	1292.854	34313.75	33363.8
874.0604	1294.7435	34229.85	33282.25
874.2047	1296.6323	34155.55	33205.95
874.349	1298.5204	34087.5	33134.35
874.4933	1300.4077	33934.35	32984.3
874.6376	1302.2943	33758.55	32809.15
874.7819	1304.1802	33598.25	32648.35
874.9262	1306.0653	33189.2	32238.3
875.0705	1307.9497	32829.3	31877
875.2147	1309.8333	32519.65	31570.95
875.359	1311.7162	32265.7	31315.45
875.5032	1313.5984	32156.45	31204.75
875.6475	1315.4798	31968.75	31003.75
875.7917	1317.3605	31859.65	30893.7
875.9359	1319.2405	31819	30868.3
876.0801	1321.1197	31636.1	30684.05
876.2243	1322.9982	31317.5	30364.3
876.3685	1324.876	31149.7	30204
876.5127	1326.753	30817.7	29866.4
876.6569	1328.6293	30696.1	29744.8
876.801	1330.5048	30642.15	29691.4
876.9452	1332.3796	30456.5	29506.15
877.0893	1334.2537	30389.45	29419.1
877.2335	1336.127	30241.85	29293.35
877.3776	1337.9996	30149.9	29201.05
877.5217	1339.8714	30129.15	29177.5
877.6658	1341.7426	30081.25	29088.95
877.8099	1343.6129	29988.6	29035.45
877.954	1345.4826	29924.15	28972.3
878.0981	1347.3515	29955.35	29002.55
878.2422	1349.2196	29878.9	28928.8
878.3862	1351.087	29852.2	28903.45
878.5303	1352.9537	29850.1	28899.95
878.6743	1354.8197	29847.9	28897.5
878.8184	1356.6849	29970.05	29016.1
878.9624	1358.5493	30004.85	29054.75
879.1064	1360.4131	30064.4	29119.65
879.2504	1362.276	30031	29084.05
879.3944	1364.1383	29987.9	29043.5
879.5384	1365.9998	29799.75	28841.95
879.6823	1367.8606	29507.35	28558.05
879.8263	1369.7206	29193.7	28243.1
879.9702	1371.5799	28855.2	27901.85
880.1142	1373.4384	28546.45	27598.8
880.2581	1375.2962	28366.6	27420
880.402	1377.1533	28011.9	27066.2
880.5459	1379.0096	27665.25	26717.9
880.6898	1380.8652	27365.25	26423.95
880.8337	1382.7201	27098.3	26154.2
880.9776	1384.5742	26794.1	25848.5
881.1215	1386.4275	26605.3	25650.1
881.2653	1388.2802	26431.55	25485.15
881.4092	1390.132	26242.15	25289.55
881.553	1391.9832	26184.85	25233.6
881.6968	1393.8336	25972.9	25025.3
881.8406	1395.6832	25886.65	24937.15
881.9844	1397.5322	25758.05	24811.45
882.1282	1399.3803	25652.1	24700.8
882.272	1401.2278	25506.9	24560.85
882.4158	1403.0745	25434.55	24489.85
882.5595	1404.9204	25334.65	24387.5
882.7033	1406.7656	25296.6	24351.5
882.847	1408.6101	25207.1	24261.45
882.9908	1410.4538	25131.9	24187.05
883.1345	1412.2968	25134.8	24187.1
883.2782	1414.139	25064	24120.3
883.4219	1415.9805	25078.4	24133.55
883.5656	1417.8213	25062.5	24095.45
883.7092	1419.6613	25078.1	24132.65
883.8529	1421.5006	25145.85	24200.2
883.9965	1423.3391	25244.5	24299.65
884.1402	1425.1769	25352.9	24405.8
884.2838	1427.0139	25622.25	24676.25
884.4274	1428.8502	26004.6	25059.9
884.571	1430.6858	26363.2	25417.9
884.7146	1432.5206	26557.7	25615.55
884.8582	1434.3547	26766.85	25822.65
885.0018	1436.188	26738.4	25794.1
885.1453	1438.0206	26642.2	25698.55
885.2889	1439.8524	26435.65	25491.45
885.4324	1441.6835	26330.2	25384.35
885.5759	1443.5139	26210.2	25262.8
885.7194	1445.3435	26047.8	25104.15
885.8629	1447.1724	25976.8	25035.65
886.0064	1449.0005	25935	24993.15
886.1499	1450.8279	25820	24879.15
886.2933	1452.6545	25769.4	24828.65
886.4368	1454.4804	25825.6	24885.05
886.5802	1456.3056	25771.2	24820.4
886.7237	1458.13	25675.15	24735.35
886.8671	1459.9536	25512.5	24572.85
887.0105	1461.7766	25258.65	24318.1
887.1539	1463.5987	24973.9	24027.3
887.2972	1465.4202	24734.55	23793.6
887.4406	1467.2409	24369.1	23425.2
887.584	1469.0608	24144.55	23200.9
887.7273	1470.88	23874.45	22933.3
887.8706	1472.6984	23651.85	22709.85
888.0139	1474.5161	23408.8	22466.8
888.1572	1476.3331	23263.75	22323.3
888.3005	1478.1493	23151.35	22206.75
888.4438	1479.9648	23064	22123.45
888.5871	1481.7795	22980.8	22038.9
888.7303	1483.5935	22896.15	21954.5
888.8736	1485.4067	22784.55	21841.2
889.0168	1487.2192	22758	21813.5
889.16	1489.031	22705.7	21760.95
889.3032	1490.842	22647.55	21707.9
889.4464	1492.6522	22577.85	21637.85
889.5896	1494.4618	22456.75	21513.15
889.7327	1496.2705	22434.45	21492.6
889.8759	1498.0785	22382.1	21442.5
890.019	1499.8858	22261.35	21322.5
890.1622	1501.6924	22206.75	21266.1
890.3053	1503.4981	22144.4	21202.9
890.4484	1505.3032	22062.75	21120.35
890.5914	1507.1075	22031.05	21089.9
890.7345	1508.911	21947.6	21006
890.8776	1510.7138	21896.45	20956.95
891.0206	1512.5159	21782.35	20840.65
891.1637	1514.3172	21690.25	20752.45
891.3067	1516.1178	21619.15	20677.1
891.4497	1517.9176	21555	20613.1
891.5927	1519.7166	21501.85	20563.7
891.7357	1521.515	21427.05	20482.45
891.8786	1523.3126	21395.2	20457.85
892.0216	1525.1094	21307.45	20368.35
892.1645	1526.9055	21196.75	20262.35
892.3074	1528.7008	21126.4	20190.45
892.4503	1530.4954	21028.3	20085.7
892.5932	1532.2893	20985.8	20052.25
892.7361	1534.0824	20858.05	19922.1
892.879	1535.8747	20839.15	19908.95
893.0218	1537.6663	20742.1	19810.25
893.1647	1539.4572	20696.8	19761.8
893.3075	1541.2473	20677.15	19744.7
893.4503	1543.0367	20660.7	19726.15
893.5931	1544.8253	20564	19623.2
893.7359	1546.6132	20554.4	19614.65
893.8787	1548.4003	20469.7	19526.35
894.0214	1550.1867	20512.5	19572.05
894.1642	1551.9723	20487.75	19552.4
894.3069	1553.7572	20490.45	19558.45
894.4496	1555.5414	20519.65	19590.9
894.5923	1557.3247	20533.2	19607
894.735	1559.1074	20608.55	19682.55
894.8777	1560.8893	20678.35	19750.9
895.0204	1562.6705	20703.7	19775.2
895.163	1564.4509	20771.85	19843
895.3056	1566.2305	20764.1	19843.05
895.4482	1568.0094	20841.5	19919.5
895.5908	1569.7876	20819.55	19897.1
895.7334	1571.565	20790.55	19865.7
895.876	1573.3417	20706.35	19780.5
896.0186	1575.1176	20662.9	19738.8
896.1611	1576.8928	20600.35	19679.8
896.3036	1578.6672	20553.35	19637.2
896.4461	1580.4409	20495.25	19581.8
896.5886	1582.2138	20422.7	19501.4
896.7311	1583.986	20382.8	19459.05
896.8736	1585.7575	20403.65	19479.05
897.0161	1587.5282	20379.75	19458.2
897.1585	1589.2981	20411.5	19496
897.3009	1591.0673	20355.75	19440.1
897.4433	1592.8358	20386.85	19471.05
897.5857	1594.6035	20430	19507.45
897.7281	1596.3704	20402.1	19476.8
897.8705	1598.1366	20412.05	19487.4
898.0128	1599.9021	20459.6	19540.65
898.1551	1601.6668	20442.65	19523
898.2975	1603.4308	20487.4	19564.25
898.4398	1605.194	20564.6	19636.4
898.5821	1606.9564	20670.4	19756.85
898.7243	1608.7182	20806.7	19897.25
898.8666	1610.4791	20977.35	20074.15
899.0088	1612.2394	21116.35	20212.1
899.1511	1613.9988	21295.7	20390.2
899.2933	1615.7576	21462.7	20548.7
899.4355	1617.5156	21612.3	20686.7
899.5776	1619.2728	21711.95	20790.3
899.7198	1621.0293	21638.1	20716.85
899.862	1622.785	21494.9	20578.2
900.0041	1624.54	21213.1	20299.95
900.1462	1626.2942	20958	20046.4
900.2883	1628.0477	20584.85	19669.2
900.4304	1629.8005	20349.55	19433.4
900.5725	1631.5525	20076.15	19162
900.7145	1633.3037	19838.15	18928.5
900.8566	1635.0542	19639.05	18728.5
900.9986	1636.804	19462.9	18548.7
901.1406	1638.553	19406.1	18448.8
901.2826	1640.3013	19259.65	18342.85
901.4245	1642.0488	19171.2	18256.15
901.5665	1643.7955	19150.95	18242.85
901.7085	1645.5416	19171	18260.75
901.8504	1647.2868	19200.35	18288.3
901.9923	1649.0313	19218.8	18305.35
902.1342	1650.7751	19302.6	18385.9
902.2761	1652.5181	19418.55	18508.5
902.4179	1654.2604	19446.9	18537.35
902.5598	1656.0019	19568.35	18657.25
902.7016	1657.7427	19746.55	18832.45
902.8434	1659.4828	19907.8	18993.2
902.9852	1661.222	20062	19147.45
903.127	1662.9606	19970.1	19053.4
903.2687	1664.6984	19837.75	18919.85
903.4105	1666.4354	19520.45	18602.3
903.5522	1668.1717	19066.15	18145.65
903.6939	1669.9072	18603.3	17683.95
903.8356	1671.642	18192.15	17273.2
903.9773	1673.3761	17868.4	16951.15
904.119	1675.1094	17596.7	16682.55
904.2606	1676.8419	17360.5	16444.15
904.4022	1678.5737	17128.25	16211.05
904.5439	1680.3048	17004.4	16086.3
904.6855	1682.0351	16820.8	15907.25
904.827	1683.7646	16658.15	15738.15
904.9686	1685.4934	16580.8	15665.85
905.1101	1687.2215	16497.55	15583.35
905.2517	1688.9488	16403.5	15492.6
905.3932	1690.6754	16297.55	15383.3
905.5347	1692.4012	16251	15335.25
905.6761	1694.1263	16186.7	15269.75
905.8176	1695.8506	16106.7	15191.35
905.9591	1697.5742	16045.15	15133.6
906.1005	1699.297	15945.8	15037.35
906.2419	1701.0191	15846.2	14939
906.3833	1702.7404	15811.25	14902.5
906.5246	1704.461	15712.95	14801.8
906.666	1706.1808	15657.5	14740.95
906.8073	1707.8999	15609.15	14699.7
906.9487	1709.6182	15554.05	14650.05
907.09	1711.3358	15493.75	14589.05
907.2313	1713.0527	15429.3	14524.85
907.3725	1714.7688	15362.55	14447.8
907.5138	1716.4841	15321.3	14411.6
907.655	1718.1987	15317.1	14401.9
907.7962	1719.9126	15223.5	14317.35
907.9374	1721.6257	15170.5	14265.35
908.0786	1723.338	15152.25	14249.4
908.2198	1725.0496	15060.65	14154.8
908.3609	1726.7605	14999.8	14089.45
908.502	1728.4706	14953.2	14046.7
908.6431	1730.18	14900.5	13992.05
908.7842	1731.8886	14852.95	13950.05
908.9253	1733.5964	14832.15	13904.95
909.0664	1735.3036	14789.3	13881.95
909.2074	1737.0099	14757.85	13853.75
909.3484	1738.7156	14696.85	13792.05
909.4894	1740.4204	14609.3	13704.4
909.6304	1742.1246	14609.4	13702.05
909.7714	1743.8279	14556.1	13652
909.9123	1745.5306	14552.35	13649.7
910.0532	1747.2325	14447.9	13545.3
910.1941	1748.9336	14434.95	13528.25
910.335	1750.634	14381.1	13470.65
910.4759	1752.3336	14345.8	13439.45
910.6168	1754.0325	14341.9	13440.4
910.7576	1755.7307	14279.5	13377.7
910.8984	1757.4281	14251.3	13345.2
911.0392	1759.1247	14242.5	13325.35
911.18	1760.8206	14223.1	13307.65
911.3208	1762.5158	14157.65	13243.9
911.4615	1764.2102	14126.6	13219.85
911.6022	1765.9039	14077.85	13173.3
911.7429	1767.5968	14031.3	13130.3
911.8836	1769.289	14003.5	13102.45
912.0243	1770.9804	13988.55	13083.3
912.1649	1772.6711	13959.95	13049.15
912.3056	1774.361	13940	13029.55
912.4462	1776.0502	13920	13012.9
912.5868	1777.7386	13853.4	12944.2
912.7274	1779.4263	13805.9	12903.7
912.8679	1781.1132	13786.8	12885.8
913.0084	1782.7994	13750.85	12848.9
913.149	1784.4849	13724.45	12824.4
913.2895	1786.1696	13686.25	12778.65
913.4299	1787.8535	13629.8	12728.65
913.5704	1789.5367	13594.65	12693.85
913.7108	1791.2192	13580.75	12680.7
913.8513	1792.9009	13541.95	12611.3
913.9917	1794.5818	13527.55	12620.7
914.132	1796.2621	13479.65	12575.95
914.2724	1797.9415	13433.9	12529
914.4128	1799.6202	13430.5	12525.95
914.5531	1801.2982	13416.1	12509.85
914.6934	1802.9755	13379.1	12469.2
914.8337	1804.6519	13333.8	12427.55
914.9739	1806.3277	13239.25	12336.5
915.1142	1808.0027	13203.45	12306.4
915.2544	1809.6769	13209.25	12310.6
915.3946	1811.3504	13170.95	12271.8
915.5348	1813.0231	13144.6	12245.95
915.675	1814.6951	13151.3	12250.5
915.8151	1816.3664	13119.3	12216.2
915.9553	1818.0369	13087.95	12183.25
916.0954	1819.7067	13031.9	12129.65
916.2355	1821.3757	13025.7	12119.95
916.3755	1823.044	13027.8	12121.7
916.5156	1824.7115	12981.15	12076.45
916.6556	1826.3783	12911.55	12008.3
916.7956	1828.0443	12876.9	11975.6
916.9356	1829.7096	12888.8	11984
917.0756	1831.3741	12850.45	11945.2
917.2155	1833.0379	12825.35	11923.45
917.3555	1834.701	12781.45	11881.7
917.4954	1836.3633	12759.55	11860.35
917.6353	1838.0248	12717.85	11816
917.7751	1839.6856	12709.75	11808.9
917.915	1841.3457	12680.15	11776.95
918.0548	1843.005	12674.45	11770.1
918.1946	1844.6636	12638.75	11737.35
918.3344	1846.3214	12617.55	11715.7
918.4742	1847.9785	12584.9	11683.35
918.6139	1849.6349	12572.85	11667.15
918.7537	1851.2904	12551.8	11636.45
918.8934	1852.9453	12510.5	11600.45
919.0331	1854.5994	12461.15	11553.75
919.1727	1856.2528	12486.4	11576.6
919.3124	1857.9054	12420.45	11517.8
919.452	1859.5572	12405.25	11502.6
919.5916	1861.2083	12412.5	11507.9
919.7312	1862.8587	12392.75	11487.25
919.8708	1864.5084	12358.9	11451.85
920.0103	1866.1572	12309.75	11404.9
920.1498	1867.8054	12282.9	11374.1
920.2893	1869.4528	12271.85	11365.6
920.4288	1871.0994	12223.95	11316.95
920.5683	1872.7453	12207.2	11302.75
920.7077	1874.3905	12176.65	11267.55
920.8471	1876.0349	12113.7	11206.55
920.9865	1877.6786	12104.7	11199.4
921.1259	1879.3215	12136.4	11230.85
921.2653	1880.9637	12065.15	11160.3
921.4046	1882.6051	12064.75	11165.25
921.5439	1884.2458	12012.2	11107.05
921.6832	1885.8858	11972.4	11067.85
921.8225	1887.525	11942.55	11037.25
921.9617	1889.1634	11903.95	10999.15
922.101	1890.8011	11865.5	10959.85
922.2402	1892.4381	11853	10946.7
922.3794	1894.0743	11828.35	10926.15
922.5185	1895.7098	11815.4	10911.65
922.6577	1897.3446	11790.55	10885.55
922.7968	1898.9786	11727.45	10818.4
922.9359	1900.6118	11746.15	10843.6
923.075	1902.2443	11677.45	10770.85
923.214	1903.8761	11671.95	10768.3
923.3531	1905.5071	11587.95	10683.75
923.4921	1907.1374	11594.55	10690.65
923.6311	1908.7669	11548.6	10645.6
923.77	1910.3957	11539.5	10638.4
923.909	1912.0237	11453.6	10551.4
924.0479	1913.651	11450.7	10547.85
924.1868	1915.2776	11425.1	10523.95
924.3257	1916.9034	11382	10482.65
924.4646	1918.5285	11333	10431.2
924.6034	1920.1528	11271.95	10370
924.7422	1921.7764	11296.2	10391.55
924.881	1923.3992	11216.55	10313.65
925.0198	1925.0213	11176.2	10273.85
925.1586	1926.6427	11129.6	10228.95
925.2973	1928.2633	11179.05	10201.05
925.436	1929.8832	11075.15	10170.5
925.5747	1931.5023	11019.5	10116.05
925.7134	1933.1207	11016.6	10111.95
925.852	1934.7383	10995.3	10091.6
925.9906	1936.3552	10964.95	10065.05
926.1292	1937.9714	10945.2	10043.75
926.2678	1939.5868	10876.4	9974.15
926.4064	1941.2015	10853.55	9949
926.5449	1942.8154	10799.7	9895.55
926.6834	1944.4286	10737.4	9834.5
926.8219	1946.041	10702.45	9778
926.9604	1947.6528	10661.9	9752.6
927.0988	1949.2637	10647.2	9744.7
927.2372	1950.8739	10593.6	9690.3
927.3756	1952.4834	10581.2	9680.4
927.514	1954.0921	10589.25	9687.3
927.6523	1955.7001	10547	9643.95
927.7907	1957.3074	10521.45	9625.2
927.929	1958.9139	10455.8	9559.2
928.0673	1960.5197	10425.5	9526.6
928.2055	1962.1247	10358.85	9461.5
928.3438	1963.729	10353.85	9456.45
928.482	1965.3325	10340.35	9417.8
928.6202	1966.9353	10307.7	9412.35
928.7584	1968.5374	10253.8	9355.65
928.8965	1970.1387	10222.55	9325.1
929.0346	1971.7393	10184.35	9286.85
929.1727	1973.3392	10145.25	9246.9
929.3108	1974.9383	10106.85	9211.3
929.4489	1976.5366	10059.55	9164.6
929.5869	1978.1342	10072.95	9176.8
929.7249	1979.7311	10044.65	9147.1
929.8629	1981.3273	10008.65	9112.5
930.0009	1982.9227	9988.05	9092.1
930.1388	1984.5173	9959.15	9066.4
930.2767	1986.1112	9905.2	9011.5
930.4146	1987.7044	9886.85	8993.6
930.5525	1989.2968	9859	8965.45
930.6904	1990.8885	9855.1	8956.5
930.8282	1992.4795	9818.1	8925.45
930.966	1994.0697	9790.4	8898.95
931.1038	1995.6592	9762.05	8868.65
931.2415	1997.2479	9720.5	8827
931.3793	1998.8359	9697.7	8803.7
931.517	2000.4232	9665.35	8775.55
931.6547	2002.0097	9639.3	8752.65
931.7923	2003.5955	9599.5	8711.2
931.93	2005.1805	9616.65	8726
932.0676	2006.7648	9553.5	8662.55
932.2052	2008.3484	9529.05	8637
932.3427	2009.9312	9542.2	8653.6
932.4803	2011.5133	9475.9	8587.45
932.6178	2013.0946	9487.05	8598.1
932.7553	2014.6752	9459.05	8571.15
932.8928	2016.2551	9415.85	8524.8
933.0302	2017.8342	9375.15	8484.95
933.1676	2019.4126	9352.5	8464.25
933.305	2020.9902	9299.45	8413.25
933.4424	2022.5672	9275.75	8387.5
933.5798	2024.1433	9273.95	8378.7
933.7171	2025.7188	9258	8372.75
933.8544	2027.2935	9212.95	8326.95
933.9917	2028.8674	9191.25	8304.1
934.129	2030.4406	9194.65	8309.55
934.2662	2032.0131	9135.7	8250
934.4034	2033.5849	9110.65	8222.3
934.5406	2035.1559	9089.05	8202.35
934.6778	2036.7261	9063.35	8175.5
934.8149	2038.2957	9073.8	8183.35
934.952	2039.8645	9011.1	8118.65
935.0891	2041.4325	9034.65	8143.45
935.2262	2042.9998	8975.95	8084.95
935.3632	2044.5664	8966.9	8079.5
935.5002	2046.1323	8962.85	8075.35
935.6372	2047.6974	8898	8009.65
935.7742	2049.2617	8881.75	7994.65
935.9111	2050.8254	8876.6	7965.3
936.048	2052.3883	8880	7988.6
936.1849	2053.9504	8839.2	7946.7
936.3218	2055.5118	8795.2	7903.5
936.4586	2057.0725	8744.95	7852.85
936.5955	2058.6325	8752.7	7863.5
936.7323	2060.1917	8709.7	7821.85
936.869	2061.7502	8732.5	7842
937.0058	2063.3079	8697.7	7811.35
937.1425	2064.8649	8640.4	7750.05
937.2792	2066.4212	8647.9	7758.05
937.4159	2067.9767	8632.1	7740.95
937.5525	2069.5315	8605.9	7716.75
937.6891	2071.0856	8563.55	7676.95
937.8257	2072.6389	8520.15	7632.45
937.9623	2074.1915	8481.4	7596.4
938.0989	2075.7433	8452.55	7562.25
938.2354	2077.2945	8438.7	7549.35
938.3719	2078.8448	8412.95	7523.4
938.5084	2080.3945	8394.7	7503.95
938.6448	2081.9434	8369.65	7478.65
938.7812	2083.4916	8370.45	7476.95
938.9176	2085.039	8307.6	7411.3
939.054	2086.5857	8302.15	7404.6
939.1903	2088.1317	8311.4	7411.55
939.3267	2089.677	8275.8	7377.45
939.463	2091.2215	8235.8	7339.1
939.5992	2092.7652	8228.55	7331.65
939.7355	2094.3083	8217.6	7319.75
939.8717	2095.8506	8184.55	7290.95
940.0079	2097.3921	8192.1	7299.2
940.1441	2098.933	8183.9	7293.3
940.2802	2100.4731	8160.6	7268.05
940.4163	2102.0124	8127.9	7226
940.5524	2103.5511	8104.95	7209.95
940.6885	2105.089	8089.7	7194.4
940.8245	2106.6261	8073.6	7179.55
940.9606	2108.1626	8072.2	7181.05
941.0965	2109.6983	8061.6	7142.9
941.2325	2111.2332	8030.9	7137.45
941.3684	2112.7675	7991.65	7096.75
941.5044	2114.301	7977.2	7081.7
941.6403	2115.8337	7978	7084.3
941.7761	2117.3657	7964.05	7071.05
941.912	2118.897	7932.9	7039.75
942.0478	2120.4276	7922.15	7022.75
942.1835	2121.9575	7864.45	6968.25
942.3193	2123.4866	7879.05	6983
942.455	2125.0149	7854.25	6960.1
942.5907	2126.5426	7796.95	6908
942.7264	2128.0695	7795.15	6903.8
942.8621	2129.5956	7765	6877.5
942.9977	2131.1211	7755.9	6862.85
943.1333	2132.6458	7755.95	6864.7
943.2689	2134.1698	7732.7	6836.85
943.4044	2135.693	7701.1	6803.25
943.54	2137.2155	7678.75	6780.35
943.6755	2138.7373	7663.55	6771.85
943.8109	2140.2584	7633.85	6745.05
943.9464	2141.7787	7607.75	6715.3
944.0818	2143.2983	7574.8	6687.05
944.2172	2144.8171	7569	6682.45
944.3526	2146.3353	7532.8	6644.25
944.4879	2147.8527	7503.4	6613.9
944.6232	2149.3693	7523.25	6628
944.7585	2150.8853	7490.25	6596.55
944.8938	2152.4005	7468.5	6571.35
945.029	2153.9149	7458.35	6562.45
945.1642	2155.4287	7509.4	6513.75
945.2994	2156.9417	7427.55	6529.65
945.4346	2158.454	7391.3	6497.95
945.5697	2159.9655	7371.95	6482.5
945.7048	2161.4764	7357.6	6467.95
945.8399	2162.9865	7333.3	6444.65
945.9749	2164.4958	7313.85	6421
946.1099	2166.0045	7282.7	6388.8
946.2449	2167.5124	7290.25	6399.1
946.3799	2169.0195	7259.6	6366.95
946.5148	2170.526	7244.1	6349.65
946.6498	2172.0317	7248.95	6355.9
946.7846	2173.5367	7198.6	6305.95
946.9195	2175.0409	7196.05	6304.55
947.0543	2176.5445	7181.2	6287.15
947.1891	2178.0473	7160.95	6266.2
947.3239	2179.5494	7123.5	6222.65
947.4587	2181.0507	7129.9	6237.7
947.5934	2182.5513	7099.65	6206.85
947.7281	2184.0512	7083.5	6189.95
947.8628	2185.5504	7057.7	6168
947.9974	2187.0488	7002.35	6113.3
948.132	2188.5465	7010.4	6122.1
948.2666	2190.0435	6994.25	6102.5
948.4012	2191.5397	6950.9	6057.95
948.5357	2193.0353	6930.5	6037.15
948.6702	2194.5301	6914.6	6018.55
948.8047	2196.0241	6884.55	5988.15
948.9392	2197.5175	6880.65	5982.85
949.0736	2199.0101	6861.6	5961
949.208	2200.502	6828.35	5937.35
949.3424	2201.9931	6787.6	5896.65
949.4767	2203.4835	6763.55	5874.3
949.611	2204.9733	6775.65	5869
949.7453	2206.4622	6739.05	5851.1
949.8796	2207.9505	6716.7	5825.45
950.0138	2209.438	6668.5	5782.85
950.148	2210.9248	6668.6	5778.25
950.2822	2212.4109	6660.25	5769.15
950.4164	2213.8962	6627.65	5731.7
950.5505	2215.3809	6642.85	5747.65
950.6846	2216.8648	6606.95	5708.7
950.8186	2218.3479	6608.85	5705.25
950.9527	2219.8304	6580.7	5679.7
951.0867	2221.3121	6530.3	5633.1
951.2207	2222.7931	6523.2	5625.25
951.3546	2224.2733	6501.5	5605.2
951.4886	2225.7529	6500.65	5606.2
951.6225	2227.2317	6467.55	5574.05
951.7563	2228.7098	6449	5560.3
951.8902	2230.1872	6424.65	5534.45
952.024	2231.6638	6423.2	5535.45
952.1578	2233.1397	6389.9	5495.85
952.2916	2234.6149	6377.85	5486.05
952.4253	2236.0894	6341.8	5451.15
952.559	2237.5632	6358.25	5464
952.6927	2239.0362	6309.15	5419.2
952.8263	2240.5085	6286.35	5394.25
952.9599	2241.9801	6284.6	5391.2
953.0935	2243.4509	6286.15	5392.05
953.2271	2244.921	6255.55	5359.25
953.3606	2246.3904	6228.1	5330.45
953.4941	2247.8591	6211.8	5317.35
953.6276	2249.3271	6207.4	5314.75
953.7611	2250.7943	6179.9	5281.65
953.8945	2252.2608	6153.1	5257
954.0279	2253.7266	6137	5243.5
954.1612	2255.1917	6109.7	5216.55
954.2946	2256.656	6102.35	5209.4
954.4279	2258.1197	6075.3	5186.3
954.5612	2259.5826	6073.6	5182.45
954.6944	2261.0447	6065.55	5171.3
954.8276	2262.5062	6036.25	5141.3
954.9608	2263.9669	6060.05	5164.3
955.094	2265.4269	6021.55	5129
955.2271	2266.8862	5998.7	5106.25
955.3602	2268.3448	5992.7	5100.2
955.4933	2269.8026	5982.5	5090.7
955.6264	2271.2598	5950.15	5059.3
955.7594	2272.7162	5946.2	5055.95
955.8924	2274.1719	5933.8	5041.45
956.0253	2275.6268	5914.6	5017.95
956.1583	2277.0811	5898.05	5002.65
956.2912	2278.5346	5884.3	4990.25
956.4241	2279.9874	5856.65	4965.3
956.5569	2281.4395	5850.6	4961.25
956.6897	2282.8908	5847.15	4951.2
956.8225	2284.3414	5819.3	4924
956.9553	2285.7914	5815.7	4922.25
957.088	2287.2406	5797.9	4902.35
957.2207	2288.689	5784.95	4888.45
957.3534	2290.1368	5782.05	4882.75
957.486	2291.5838	5757.15	4857.45
957.6186	2293.0302	5746.65	4845.1
957.7512	2294.4758	5732.6	4834.9
957.8838	2295.9206	5693.7	4796.5
958.0163	2297.3648	5663.4	4772.15
958.1488	2298.8082	5677.5	4785.15
958.2813	2300.251	5652.15	4757.65
958.4137	2301.693	5628.05	4728.15
958.5461	2303.1343	5632.4	4736.85
958.6785	2304.5748	5627.3	4734.2
958.8108	2306.0147	5598.75	4705.85
958.9432	2307.4538	5588.4	4694.95
959.0754	2308.8922	5570.7	4683.05
959.2077	2310.3299	5572.75	4682.45
959.3399	2311.7669	5544.3	4654.55
959.4721	2313.2031	5510	4617.6
959.6043	2314.6387	5501.05	4606.8
959.7365	2316.0735	5478.65	4583.55
959.8686	2317.5076	5476.65	4581.95
960.0006	2318.941	5456.6	4561.7
960.1327	2320.3737	5451.65	4554.3
960.2647	2321.8056	5443.25	4546.5
960.3967	2323.2369	5425.45	4529.75
960.5287	2324.6674	5406.2	4510.25
960.6606	2326.0972	5388.25	4492.65
960.7925	2327.5263	5365.65	4470.85
960.9244	2328.9547	5348.35	4450.1
961.0562	2330.3823	5346.5	4449.95
961.1881	2331.8092	5351.95	4451.1
961.3198	2333.2355	5322.7	4424.35
961.4516	2334.661	5318.55	4420.8
961.5833	2336.0858	5314.4	4416.75
961.715	2337.5098	5286.3	4390.5
961.8467	2338.9332	5280.1	4385.8
961.9783	2340.3558	5253.8	4357.6
962.1099	2341.7778	5233.7	4340.8
962.2415	2343.199	5213.75	4320.35
962.373	2344.6195	5202.35	4309.25
962.5045	2346.0393	5191.75	4297.8
962.636	2347.4583	5191.6	4295.15
962.7675	2348.8767	5173.1	4276
962.8989	2350.2943	5176.45	4279.7
963.0303	2351.7113	5160.6	4262.95
963.1617	2353.1275	5128.95	4228.7
963.293	2354.543	5160.25	4238.25
963.4243	2355.9578	5125.6	4229.2
963.5556	2357.3718	5086.75	4194.7
963.6868	2358.7852	5074.05	4178.4
963.818	2360.1978	5059.65	4167
963.9492	2361.6098	5052.9	4160.3
964.0803	2363.021	5038.3	4139.3
964.2114	2364.4315	5016.65	4121.5
964.3425	2365.8413	5011.8	4116.7
964.4736	2367.2504	4992.2	4100.15
964.6046	2368.6587	4974.25	4080.5
964.7356	2370.0664	4936.3	4044.9
964.8666	2371.4733	4938.4	4043.45
964.9975	2372.8795	4933.55	4040.1
965.1284	2374.285	4912.95	4015.2
965.2593	2375.6899	4898.2	4005.45
965.3901	2377.0939	4871.85	3979.7
965.5209	2378.4973	4863.7	3967.7
965.6517	2379.9	4851.75	3956.7
965.7825	2381.3019	4850.15	3956.55
965.9132	2382.7032	4826.3	3934.75
966.0439	2384.1037	4822.3	3931.6
966.1745	2385.5035	4802.15	3912
966.3051	2386.9027	4788.15	3897.95
966.4357	2388.3011	4782.15	3887.85
966.5663	2389.6987	4747.5	3854.15
966.6968	2391.0957	4746.75	3852.7
966.8273	2392.492	4729.9	3836.9
966.9578	2393.8876	4711.05	3817.45
967.0882	2395.2824	4691.05	3796
967.2186	2396.6765	4665	3773.05
967.349	2398.07	4647.9	3751.85
967.4793	2399.4627	4649.25	3751.1
967.6097	2400.8547	4635.15	3737.45
967.7399	2402.246	4641.8	3738.3
967.8702	2403.6366	4611.45	3714.85
968.0004	2405.0265	4599.85	3706.4
968.1306	2406.4156	4580.95	3684
968.2607	2407.8041	4570.6	3673.8
968.3909	2409.1918	4549.35	3652.85
968.521	2410.5789	4535.5	3637.9
968.651	2411.9652	4514.55	3615.7
968.781	2413.3508	4504	3608.35
968.911	2414.7358	4489.65	3592.3
969.041	2416.12	4491.25	3594.75
969.1709	2417.5035	4478.75	3585.25
969.3008	2418.8863	4461.45	3564.9
969.4307	2420.2684	4449.25	3554.5
969.5606	2421.6497	4434.7	3538.05
969.6904	2423.0304	4407.2	3512.9
969.8201	2424.4104	4384.75	3488.65
969.9499	2425.7896	4371.1	3474.15
970.0796	2427.1682	4372.7	3477.4
970.2093	2428.546	4367.2	3472.7
970.3389	2429.9232	4362.4	3464.4
970.4685	2431.2996	4362.6	3469
970.5981	2432.6753	4337.8	3445.35
970.7277	2434.0503	4321.85	3427.85
970.8572	2435.4246	4300.3	3403.8
970.9867	2436.7982	4285.95	3386.5
971.1161	2438.1711	4294.85	3398
971.2456	2439.5433	4266.25	3369.45
971.375	2440.9148	4260.1	3356.45
971.5043	2442.2856	4235.3	3339.9
971.6336	2443.6557	4235.15	3336.5
971.7629	2445.025	4223.55	3325.55
971.8922	2446.3937	4224.5	3327.55
972.0214	2447.7617	4197.5	3300.05
972.1506	2449.1289	4177.2	3282.05
972.2798	2450.4955	4182.35	3284.2
972.4089	2451.8613	4161.2	3266.95
972.538	2453.2265	4156.2	3260.6
972.6671	2454.5909	4150.65	3255.65
972.7961	2455.9546	4148.15	3254.55
972.9251	2457.3177	4131.4	3236.25
973.0541	2458.68	4106.3	3209.05
973.1831	2460.0416	4123.4	3227.25
973.312	2461.4025	4109.6	3210.35
973.4408	2462.7627	4101.95	3196.75
973.5697	2464.1222	4078.2	3187.7
973.6985	2465.4811	4072.5	3179.65
973.8273	2466.8392	4057.7	3164.15
973.956	2468.1966	4057.7	3161.05
974.0847	2469.5533	4046.75	3150.45
974.2134	2470.9093	4025.2	3130.05
974.3421	2472.2645	4022.25	3127.95
974.4707	2473.6191	4028.95	3133.95
974.5993	2474.973	4004.5	3110.25
974.7278	2476.3262	4009.1	3112.05
974.8563	2477.6787	3988.25	3094.1
974.9848	2479.0305	3965.6	3071.75
975.1132	2480.3816	3948.7	3052.25
975.2417	2481.7319	3934.95	3038.65
975.37	2483.0816	3926	3030
975.4984	2484.4306	3924.95	3032.65
975.6267	2485.7789	3920.2	3025.85
975.755	2487.1264	3888.65	2993.3
975.8833	2488.4733	3879	2985.15
976.0115	2489.8195	3873.2	2959.25
976.1397	2491.165	3859.35	2964.3
976.2678	2492.5097	3854.7	2961
976.3959	2493.8538	3828.3	2935.9
976.524	2495.1972	3818.95	2923.8
976.6521	2496.5398	3821.05	2923.3
976.7801	2497.8818	3805.2	2907.9
976.9081	2499.2231	3808	2910.6
977.036	2500.5637	3777.9	2879.6
977.164	2501.9035	3790.9	2894.45
977.2918	2503.2427	3764.65	2861.7
977.4197	2504.5812	3747.85	2852.05
977.5475	2505.919	3745.2	2848.05
977.6753	2507.256	3742.85	2848.15
977.8031	2508.5924	3730.1	2835.1
977.9308	2509.9281	3717.2	2816.5
978.0585	2511.2631	3717.6	2823.3
978.1861	2512.5974	3685.1	2793.65
978.3137	2513.9309	3689.95	2793.75
978.4413	2515.2638	3700.7	2778.05
978.5689	2516.596	3672.3	2778.2
978.6964	2517.9275	3650.4	2755.25
978.8239	2519.2583	3645.1	2748.4
978.9513	2520.5884	3638.55	2741.2
979.0788	2521.9178	3613.25	2720.3
979.2062	2523.2465	3610.05	2718.25
979.3335	2524.5745	3606.8	2713.2
979.4608	2525.9018	3595.85	2701.65
979.5881	2527.2284	3581.75	2686.45
979.7154	2528.5543	3587.35	2692.7
979.8426	2529.8796	3575.15	2678.2
979.9698	2531.2041	3560.2	2667.5
980.0969	2532.5279	3542.95	2651.1
980.224	2533.851	3552.6	2659
980.3511	2535.1735	3553.2	2658.4
980.4781	2536.4952	3523.05	2625.5
980.6052	2537.8163	3530.6	2633.85
980.7321	2539.1366	3532.1	2637.2
980.8591	2540.4562	3518.6	2621.1
980.986	2541.7752	3507.4	2611.9
981.1129	2543.0935	3496.95	2600.65
981.2397	2544.411	3501.95	2606.05
981.3665	2545.7279	3491.7	2596.6
981.4933	2547.0441	3485.35	2589.5
981.62	2548.3596	3484	2585.75
981.7467	2549.6744	3480.9	2588.2
981.8734	2550.9885	3450.75	2552.95
982.0001	2552.3019	3450.7	2552.85
982.1267	2553.6146	3444.65	2547.1
982.2532	2554.9266	3422.75	2528.05
982.3798	2556.2379	3423.9	2528.6
982.5063	2557.5485	3417.3	2522.2
982.6327	2558.8585	3420.3	2518.6
982.7592	2560.1677	3420.95	2521.1
982.8856	2561.4762	3392.65	2496.2
983.0119	2562.7841	3416.2	2518.4
983.1383	2564.0913	3399.85	2506.55
983.2646	2565.3977	3381.5	2489.6
983.3908	2566.7035	3372.6	2477.6
983.517	2568.0086	3374.25	2477.2
983.6432	2569.313	3379.8	2484.15
983.7694	2570.6167	3357.75	2457.35
983.8955	2571.9197	3349.35	2454.45
984.0216	2573.222	3349.45	2449.85
984.1476	2574.5236	3335.75	2439.8
984.2737	2575.8246	3341.3	2444.55
984.3996	2577.1248	3323.4	2424.8
984.5256	2578.4244	3319.75	2423.55
984.6515	2579.7232	3326.05	2431.9
984.7774	2581.0214	3345.95	2419.15
984.9032	2582.3189	3306.95	2412.4
985.029	2583.6157	3317.75	2417.65
985.1548	2584.9118	3309.3	2415
985.2806	2586.2072	3292.75	2396.2
985.4063	2587.5019	3264.65	2367.2
985.5319	2588.7959	3276.15	2380.2
985.6576	2590.0893	3283.1	2385.3
985.7832	2591.3819	3277.95	2382.8
985.9087	2592.6739	3270.4	2376.75
986.0343	2593.9652	3251.8	2353.75
986.1597	2595.2557	3243.5	2350.35
986.2852	2596.5456	3237.2	2339.1
986.4106	2597.8348	3238.6	2343.6
986.536	2599.1234	3222.55	2329.15
986.6614	2600.4112	3218.3	2322.05
986.7867	2601.6983	3209.05	2313.8
986.912	2602.9848	3206.75	2311.45
987.0372	2604.2705	3205.1	2303.65
987.1624	2605.5556	3186.3	2292.7
987.2876	2606.84	3170.25	2277.55
987.4128	2608.1237	3156.6	2262.1
987.5379	2609.4067	3147.55	2251.7
987.6629	2610.689	3161.55	2257.35
987.788	2611.9707	3132.9	2233.5
987.913	2613.2516	3138	2237.3
988.0379	2614.5319	3121.4	2228.55
988.1629	2615.8115	3108.75	2215.05
988.2878	2617.0903	3100.8	2203.5
988.4126	2618.3685	3073	2177.2
988.5375	2619.6461	3074.65	2179.25
988.6622	2620.9229	3064.15	2170.85
988.787	2622.199	3074.95	2179.05
988.9117	2623.4745	3066.45	2170.85
989.0364	2624.7493	3051.05	2158
989.161	2626.0234	3047.25	2153.75
989.2857	2627.2968	3027.15	2134.35
989.4102	2628.5695	3031	2135.25
989.5348	2629.8415	3019.35	2124.75
989.6593	2631.1128	3019.15	2124.55
989.7837	2632.3835	2997.35	2101.9
989.9082	2633.6535	3002.25	2107.95
990.0326	2634.9228	2988.7	2094.95
990.1569	2636.1914	2972.1	2079.15
990.2812	2637.4593	2968.3	2073.9
990.4055	2638.7265	2956.2	2061.5
990.5298	2639.9931	2969.6	2073.9
990.654	2641.259	2949.6	2056.85
990.7782	2642.5242	2944.75	2051.65
990.9023	2643.7887	2933.5	2038.65
991.0264	2645.0525	2932.65	2039.1
991.1505	2646.3156	2931.9	2022.9
991.2745	2647.5781	2917.15	2023.3
991.3985	2648.8398	2895.85	2002.2
991.5225	2650.1009	2908.9	1989
991.6464	2651.3613	2896.6	2001.9
991.7703	2652.6211	2894.3	2001.45
991.8942	2653.8801	2878.4	1985.4
992.018	2655.1385	2876.65	1979.35
992.1418	2656.3961	2881.6	1989.1
992.2655	2657.6531	2873.45	1980.1
992.3892	2658.9094	2864.2	1970.3
992.5129	2660.1651	2856.2	1963
992.6366	2661.42	2845.7	1953.1
992.7602	2662.6743	2834.6	1941.65
992.8837	2663.9279	2845.9	1953.3
993.0073	2665.1808	2835.7	1943.65
993.1307	2666.433	2839.45	1944.6
993.2542	2667.6846	2817.1	1924.8
993.3776	2668.9354	2825.4	1929.3
993.501	2670.1856	2818.2	1923.8
993.6244	2671.4351	2821	1926.1
993.7477	2672.6839	2821.7	1926.7
993.8709	2673.9321	2815.4	1921.6
993.9942	2675.1795	2815.4	1920.85
994.1174	2676.4263	2796.85	1905.55
994.2405	2677.6724	2812.8	1920.25
994.3637	2678.9179	2789.2	1895.6
994.4868	2680.1626	2789.7	1896.45
994.6098	2681.4067	2784.55	1890.9
994.7328	2682.6501	2768.5	1874
994.8558	2683.8928	2780.8	1885.5
994.9788	2685.1348	2765.1	1871.05
995.1017	2686.3761	2742.8	1849.75
995.2245	2687.6168	2736.2	1843.1
995.3474	2688.8568	2736.55	1843.8
995.4702	2690.0961	2721.6	1831.75
995.5929	2691.3348	2717.8	1825.3
995.7156	2692.5727	2719.55	1828.1
995.8383	2693.81	2706.7	1813.95
995.961	2695.0466	2711.1	1819.7
996.0836	2696.2826	2692.6	1797.5
996.2062	2697.5178	2700.6	1805.5
996.3287	2698.7524	2691.9	1799.2
996.4512	2699.9863	2687.35	1790.8
996.5737	2701.2195	2677.25	1785.65
996.6961	2702.452	2670.65	1777.2
996.8185	2703.6839	2669.75	1778.45
996.9408	2704.9151	2658.9	1767.9
997.0631	2706.1456	2674.6	1781.1
997.1854	2707.3755	2666.15	1772.4
997.3077	2708.6046	2681.8	1785.6
997.4299	2709.8331	2649	1753.5
997.552	2711.0609	2661.75	1768.8
997.6742	2712.2881	2668.95	1777.35
997.7963	2713.5145	2671.95	1775.8
997.9183	2714.7403	2659.65	1767.2
998.0403	2715.9654	2666.3	1774.15
998.1623	2717.1899	2670	1762.15
998.2842	2718.4136	2680.45	1789.2
998.4062	2719.6367	2675.75	1781.9
998.528	2720.8591	2690.25	1792.65
998.6498	2722.0809	2679.95	1787.85
998.7716	2723.3019	2670.8	1775.3
998.8934	2724.5223	2669.05	1775.7
999.0151	2725.7421	2674.55	1780.85
999.1368	2726.9611	2659.9	1766.1
999.2584	2728.1795	2663.45	1768.4
999.38	2729.3972	2649.25	1760.3
999.5016	2730.6142	2656.3	1758.8
999.6231	2731.8306	2623.2	1730.2
999.7446	2733.0462	2602.3	1709.3
999.8661	2734.2612	2599.75	1703.75
999.9875	2735.4756	2562.3	1669.85
1000.1089	2736.6892	2548.8	1655.2
1000.2302	2737.9022	2536.65	1646.25
1000.3515	2739.1145	2541.75	1650.45
1000.4728	2740.3262	2517.85	1619.05
1000.594	2741.5372	2497.9	1605.6
1000.7152	2742.7475	2493.7	1602.1
1000.8363	2743.9571	2480.75	1587.45
1000.9575	2745.1661	2467.15	1568.9
1001.0785	2746.3744	2448.6	1557.1
1001.1996	2747.582	2439.2	1547.9
1001.3206	2748.7889	2437.55	1545.5
1001.4415	2749.9952	2432	1542.05
1001.5625	2751.2008	2424.3	1531.95
1001.6833	2752.4057	2414.9	1520.15
1001.8042	2753.61	2404.8	1514.45
1001.925	2754.8136	2397.65	1502.8
1002.0458	2756.0165	2387.1	1496
1002.1665	2757.2188	2381.4	1494.4
1002.2872	2758.4204	2383.65	1493
1002.4078	2759.6213	2375.85	1484.4
1002.5285	2760.8215	2378.5	1484.4
1002.649	2762.0211	2352.55	1458.15
1002.7696	2763.22	2359.85	1466.8
1002.8901	2764.4182	2359.85	1466
1003.0106	2765.6158	2339.75	1447.8
1003.131	2766.8127	2338.25	1448.6
1003.2514	2768.009	2330.25	1439.15
1003.3717	2769.2045	2344.2	1452.3
1003.492	2770.3994	2328.2	1434.05
1003.6123	2771.5936	2321.7	1430.2
1003.7325	2772.7872	2301.2	1409
1003.8527	2773.9801	2297.8	1405.8
1003.9729	2775.1723	2324.4	1416.95
1004.093	2776.3639	2299.25	1409.15
1004.2131	2777.5548	2295.9	1404.4
1004.3331	2778.745	2284.5	1393.85
1004.4531	2779.9346	2282.5	1393.35
1004.5731	2781.1235	2274.9	1382.1
1004.693	2782.3117	2278.95	1388.2
1004.8129	2783.4992	2263.55	1373.1
1004.9328	2784.6861	2268.5	1377.6
1005.0526	2785.8723	2268.25	1379.3
1005.1723	2787.0579	2276.05	1385.3
1005.2921	2788.2428	2279.4	1389.1
1005.4118	2789.427	2273.15	1385.65
1005.5314	2790.6106	2264.7	1373.4
1005.651	2791.7935	2271.25	1382.05
1005.7706	2792.9757	2260.9	1372.2
1005.8902	2794.1573	2269.95	1376.7
1006.0097	2795.3382	2264.5	1372.75
1006.1291	2796.5184	2266	1377.15
1006.2485	2797.698	2272.2	1381
1006.3679	2798.8769	2284.05	1396.05
1006.4873	2800.0551	2286.6	1394.85
1006.6066	2801.2327	2287.8	1395.45
1006.7258	2802.4096	2290.8	1400.65
1006.8451	2803.5859	2299.55	1410.05
1006.9642	2804.7615	2315.35	1424.6
1007.0834	2805.9364	2318.75	1429.55
1007.2025	2807.1106	2328.95	1441.75
1007.3216	2808.2842	2348.75	1457.4
1007.4406	2809.4572	2354.6	1464.75
1007.5596	2810.6294	2389.55	1498.45
1007.6785	2811.801	2408.05	1520.1
1007.7975	2812.972	2435.65	1547.45
1007.9163	2814.1423	2458.2	1567
1008.0352	2815.3119	2489.2	1600.05
1008.154	2816.4808	2523.45	1634.75
1008.2727	2817.6491	2547.5	1656.5
1008.3914	2818.8167	2586.6	1698.6
1008.5101	2819.9837	2621.7	1726.2
1008.6288	2821.15	2658.05	1769.15
1008.7474	2822.3157	2684	1795.45
1008.8659	2823.4807	2739.3	1849.45
1008.9844	2824.645	2773.35	1883.9
1009.1029	2825.8086	2804.85	1915.45
1009.2214	2826.9716	2850.9	1963.55
1009.3398	2828.134	2885.85	1997.75
1009.4581	2829.2957	2920.8	2031.95
1009.5764	2830.4567	2944.25	2055.6
1009.6947	2831.617	2956.35	2064.65
1009.813	2832.7767	2972.05	2084.25
1009.9312	2833.9358	2960.75	2073.55
1010.0493	2835.0941	2956.25	2064.2
1010.1675	2836.2519	2944.4	2058.05
1010.2855	2837.4089	2928.1	2038.95
1010.4036	2838.5653	2911.1	2019.65
1010.5216	2839.7211	2905.6	2021.85
1010.6396	2840.8761	2896.5	2005.6
1010.7575	2842.0306	2920.3	2032.9
1010.8754	2843.1843	2916.05	2029.05
1010.9932	2844.3374	2943.2	2054.25
1011.111	2845.4899	2960.25	2072.45
1011.2288	2846.6417	3013.75	2124
1011.3465	2847.7928	3047.05	2159.75
1011.4642	2848.9433	3084.35	2197.7
1011.5818	2850.0931	3136.7	2247.05
1011.6995	2851.2422	3178.65	2289
1011.817	2852.3907	3217.35	2328.75
1011.9345	2853.5385	3265.1	2376.2
1012.052	2854.6857	3315.15	2419.05
1012.1695	2855.8323	3324.4	2438.3
1012.2869	2856.9781	3367.45	2479.15
1012.4042	2858.1233	3411	2521.75
1012.5216	2859.2679	3435.1	2545.3
1012.6389	2860.4118	3471.95	2585.7
1012.7561	2861.555	3491.3	2598.7
1012.8733	2862.6976	3529.55	2640.15
1012.9905	2863.8395	3561.05	2674.15
1013.1076	2864.9808	3580.05	2691.9
1013.2247	2866.1214	3590.6	2705.35
1013.3417	2867.2614	3598.1	2709.8
1013.4587	2868.4007	3591.15	2702.8
1013.5757	2869.5393	3604.3	2713.65
1013.6926	2870.6773	3616.7	2725.15
1013.8095	2871.8146	3628.65	2737.85
1013.9263	2872.9513	3630.75	2739.4
1014.0431	2874.0874	3609.5	2721.2
1014.1599	2875.2227	3615.1	2726.25
1014.2766	2876.3574	3586.85	2698.35
1014.3933	2877.4915	3564.45	2676.8
1014.51	2878.6249	3552.85	2665.55
1014.6266	2879.7577	3534.5	2645.6
1014.7431	2880.8898	3511.7	2615.75
1014.8596	2882.0212	3484.15	2595.4
1014.9761	2883.152	3473.8	2584.85
1015.0925	2884.2821	3458.75	2570.65
1015.2089	2885.4116	3449.8	2561.7
1015.3253	2886.5405	3449.65	2561.6
1015.4416	2887.6686	3455.95	2564.85
1015.5579	2888.7962	3464.55	2579.65
1015.6741	2889.923	3460.5	2573.15
1015.7903	2891.0493	3462.05	2574.85
1015.9065	2892.1748	3475.05	2588.65
1016.0226	2893.2997	3464.65	2574.15
1016.1387	2894.424	3478.8	2593.05
1016.2547	2895.5476	3499.4	2612.7
1016.3707	2896.6706	3492.8	2605.2
1016.4866	2897.7929	3501.15	2613.65
1016.6025	2898.9145	3517.65	2628.55
1016.7184	2900.0355	3542.75	2654.45
1016.8342	2901.1559	3560.15	2672.7
1016.95	2902.2756	3587.05	2701.25
1017.0658	2903.3946	3589.65	2703.9
1017.1815	2904.513	3606.15	2717.1
1017.2971	2905.6308	3621.35	2735.25
1017.4127	2906.7479	3634.15	2747.2
1017.5283	2907.8643	3660.3	2772.7
1017.6439	2908.9801	3660.8	2772.7
1017.7594	2910.0953	3681.2	2793.9
1017.8748	2911.2098	3672.3	2782.85
1017.9902	2912.3236	3681.15	2787.2
1018.1056	2913.4368	3666.55	2776.65
1018.2209	2914.5494	3648.25	2760
1018.3362	2915.6613	3614.95	2721.4
1018.4515	2916.7725	3586.3	2697.85
1018.5667	2917.8831	3555.9	2670.15
1018.6819	2918.9931	3539.35	2648.95
1018.797	2920.1024	3515.85	2627.25
1018.9121	2921.211	3500.7	2614.15
1019.0271	2922.319	3493.4	2605.05
1019.1421	2923.4264	3474.2	2586.85
1019.2571	2924.5331	3450.8	2563.75
1019.372	2925.6391	3446.05	2560.3
1019.4869	2926.7445	3422.8	2537.4
1019.6017	2927.8493	3426.7	2540.15
1019.7165	2928.9534	3427.65	2540.7
1019.8313	2930.0569	3431.3	2542.35
1019.946	2931.1597	3444.8	2556.95
1020.0606	2932.2619	3440.75	2553.1
1020.1753	2933.3634	3432.95	2543.9
1020.2899	2934.4643	3431.6	2538.65
1020.4044	2935.5645	3423.8	2529.95
1020.5189	2936.6641	3398.85	2508.85
1020.6334	2937.763	3379.05	2492.6
1020.7478	2938.8613	3342.1	2454.4
1020.8622	2939.959	3323.7	2433.6
1020.9765	2941.056	3256.9	2372.5
1021.0908	2942.1523	3211.3	2324.85
1021.2051	2943.248	3154.65	2268.7
1021.3193	2944.3431	3091.1	2202.6
1021.4334	2945.4375	3009.15	2124.45
1021.5476	2946.5313	2933	2047.4
1021.6617	2947.6244	2856.2	1967.3
1021.7757	2948.7169	2782.35	1894.35
1021.8897	2949.8087	2713.1	1825.4
1022.0037	2950.8999	2639.6	1753.2
1022.1176	2951.9904	2580.8	1694.45
1022.2315	2953.0803	2521.95	1634.25
1022.3453	2954.1696	2471.6	1585.35
1022.4591	2955.2582	2428.3	1543.25
1022.5728	2956.3462	2386.4	1499.45
1022.6865	2957.4335	2350.2	1461.25
1022.8002	2958.5202	2329.25	1439.35
1022.9138	2959.6062	2307.9	1421.95
1023.0274	2960.6916	2285.3	1398.5
1023.141	2961.7764	2264.25	1376.45
1023.2545	2962.8605	2253.5	1364.15
1023.3679	2963.9439	2235.45	1349
1023.4813	2965.0267	2216.4	1328.65
1023.5947	2966.1089	2236.85	1325.6
1023.708	2967.1905	2199.25	1314
1023.8213	2968.2714	2194.9	1308.2
1023.9346	2969.3516	2206.75	1319.85
1024.0478	2970.4312	2216.9	1322.35
1024.1609	2971.5102	2201.2	1313.55
1024.274	2972.5885	2199.65	1313.85
1024.3871	2973.6662	2205.4	1314.45
1024.5002	2974.7432	2193.85	1308.8
1024.6132	2975.8196	2183.25	1296.35
1024.7261	2976.8954	2176.95	1291.15
1024.839	2977.9705	2174.9	1288.3
1024.9519	2979.045	2181.7	1297.75
1025.0647	2980.1188	2169.7	1283.8
1025.1775	2981.192	2144.15	1260.25
1025.2902	2982.2645	2130.9	1243.7
1025.4029	2983.3364	2112.4	1225.8
1025.5156	2984.4077	2083.25	1196.85
1025.6282	2985.4783	2073.05	1181.5
1025.7407	2986.5483	2050.75	1166.4
1025.8532	2987.6177	2014.8	1129.9
1025.9657	2988.6864	2000.2	1115.9
1026.0782	2989.7545	1967	1081.55
1026.1906	2990.8219	1936.85	1050.05
1026.3029	2991.8887	1926	1037.35
1026.4152	2992.9548	1887	999.1
1026.5275	2994.0204	1858.05	972.65
1026.6397	2995.0852	1834.8	951.1
1026.7519	2996.1495	1814.85	926.55
1026.864	2997.2131	1791.8	906.25
1026.9761	2998.276	1769.6	885.4
1027.0882	2999.3383	1758.6	872.35
1027.2002	3000.4	1733.1	847.45
1027.3122	3001.4611	1716.55	829.75
1027.4241	3002.5215	1709.2	823.65
1027.536	3003.5812	1685.2	799.9
1027.6478	3004.6404	1674.35	788.8
1027.7596	3005.6989	1675.7	787.4
1027.8714	3006.7567	1659.3	773.8
1027.9831	3007.8139	1671.65	764.55
1028.0947	3008.8705	1639	753.75
1028.2064	3009.9264	1644.85	743.55
1028.3179	3010.9818	1630.45	746.1
1028.4295	3012.0364	1623.55	739.8
1028.541	3013.0905	1618.1	733.25
1028.6524	3014.1439	1609.4	722.5
1028.7638	3015.1966	1611	727.05
1028.8752	3016.2487	1601.95	716.4
1028.9865	3017.3002	1589	701.2
1029.0978	3018.3511	1594.3	709.6
1029.209	3019.4013	1588.25	703.7
1029.3202	3020.4509	1584.3	699.15
1029.4314	3021.4998	1581.05	696.5
1029.5425	3022.5481	1582.3	697.35
1029.6535	3023.5958	1574.15	687.2
1029.7645	3024.6428	1570.65	683.5
1029.8755	3025.6892	1577.55	692.5
1029.9864	3026.735	1575.65	691.4
1030.0973	3027.7802	1569.35	683.4
1030.2082	3028.8247	1561.3	675.7
1030.319	3029.8685	1560.7	675.8
1030.4297	3030.9118	1565.35	678.8
1030.5404	3031.9544	1566.95	682.75
1030.6511	3032.9963	1565.85	680.65
1030.7617	3034.0376	1559.05	673.65
1030.8723	3035.0783	1568.2	678.95
1030.9829	3036.1184	1564.3	679
1031.0934	3037.1578	1564.5	681.15
1031.2038	3038.1966	1567.8	683.6
1031.3142	3039.2348	1566.5	680.75
1031.4246	3040.2723	1568.7	675.4
1031.5349	3041.3092	1562.05	677
1031.6452	3042.3455	1555.15	671.25
1031.7554	3043.3811	1559.1	672.45
1031.8656	3044.4161	1554.9	669.05
1031.9758	3045.4505	1554.95	671.05
1032.0859	3046.4842	1543.65	657.55
1032.1959	3047.5173	1544.5	660.65
1032.3059	3048.5498	1540.9	655
1032.4159	3049.5816	1532.2	647.4
1032.5258	3050.6128	1541.35	655.1
1032.6357	3051.6434	1530.85	644.9
1032.7455	3052.6734	1525.8	640.75
1032.8553	3053.7027	1517.8	633
1032.9651	3054.7314	1519.5	635.95
1033.0748	3055.7594	1503.55	619.6
1033.1845	3056.7868	1515.1	626.8
1033.2941	3057.8136	1506.2	622.2
1033.4037	3058.8398	1504.55	618.5
1033.5132	3059.8653	1499.1	612.95
1033.6227	3060.8902	1492.25	607.5
1033.7321	3061.9145	1488.8	603.55
1033.8415	3062.9381	1482.55	599.25
1033.9509	3063.9612	1496.1	596.3
1034.0602	3064.9835	1484.1	599.5
1034.1694	3066.0053	1466.15	579.1
1034.2787	3067.0264	1464.05	579.3
1034.3878	3068.0469	1463.55	576.55
1034.497	3069.0668	1454.65	565.3
1034.6061	3070.086	1450.75	568.05
1034.7151	3071.1046	1441.9	558.05
1034.8241	3072.1226	1446.4	560.45
1034.9331	3073.1399	1435.85	551.05
1035.042	3074.1567	1424.75	540.4
1035.1508	3075.1727	1419.25	533.1
1035.2597	3076.1882	1412.15	528.15
1035.3684	3077.203	1412	526.4
1035.4772	3078.2173	1401.8	515.65
1035.5859	3079.2308	1403.9	516.9
1035.6945	3080.2438	1391.8	503.75
1035.8031	3081.2561	1384.9	501.4
1035.9117	3082.2678	1381.7	498.65
1036.0202	3083.2789	1375	488.95
1036.1286	3084.2893	1368	484.4
1036.2371	3085.2991	1364	480.1
1036.3454	3086.3083	1367.85	477.45
1036.4538	3087.3169	1356.15	469.8
1036.562	3088.3248	1344.3	458.15
1036.6703	3089.3321	1346.65	459.1
1036.7785	3090.3388	1343	461.05
1036.8866	3091.3449	1336.55	451.15
1036.9948	3092.3503	1333.4	446.5
1037.1028	3093.3551	1328.3	447.45
1037.2108	3094.3593	1323.9	440.1
1037.3188	3095.3629	1323.9	440.4
1037.4267	3096.3658	1316.85	430.2
1037.5346	3097.3681	1314.4	431.75
1037.6425	3098.3698	1313.75	426.35
1037.7503	3099.3708	1312.05	421.1
1037.858	3100.3713	1303.9	420.4
1037.9657	3101.3711	1303.15	417.55
1038.0734	3102.3702	1431.25	407.35
1038.181	3103.3688	1302.25	415.65
1038.2886	3104.3667	1292.6	408.6
1038.3961	3105.364	1279.7	397.1
1038.5036	3106.3607	1282.75	397.55
1038.611	3107.3568	1289.95	404.55
1038.7184	3108.3522	1277.6	394.35
1038.8257	3109.347	1276.65	391.2
1038.933	3110.3412	1278.7	391.65
1039.0403	3111.3348	1268	385.5
1039.1475	3112.3277	1262.85	377.05
1039.2547	3113.32	1265.4	381.75
1039.3618	3114.3117	1253.7	368.6
1039.4689	3115.3028	1259.75	377.45
1039.5759	3116.2932	1251.4	366.5
1039.6829	3117.2831	1253.35	363.3
1039.7898	3118.2723	1250.45	366.5
1039.8967	3119.2608	1241.25	357.6
1040.0035	3120.2488	1247.25	363.95
1040.1103	3121.2361	1240.1	355.4
1040.2171	3122.2229	1240.95	357.3
1040.3238	3123.209	1235.75	351.15
1040.4305	3124.1944	1236.4	352.2
1040.5371	3125.1793	1236.85	351.9
1040.6437	3126.1635	1230.15	346.9
1040.7502	3127.1471	1228.45	344.35
1040.8567	3128.1301	1231.05	345.8
1040.9631	3129.1125	1222.75	337.95
1041.0695	3130.0942	1225.25	342.1
1041.1759	3131.0753	1232.3	339.3
1041.2822	3132.0558	1217.25	331.7
1041.3884	3133.0357	1220.3	335.85
1041.4946	3134.015	1213.3	329.15
1041.6008	3134.9936	1214.75	329.35
1041.7069	3135.9716	1236.25	330.25
1041.813	3136.949	1212.65	328.8
1041.919	3137.9258	1224.5	324.7
1042.025	3138.902	1212.55	324.05
1042.1309	3139.8775	1204.85	320.3
1042.2368	3140.8524	1203.85	318.95
1042.3427	3141.8267	1201.5	317.7
1042.4485	3142.8004	1200.85	318.15
1042.5542	3143.7735	1204.05	312.4
1042.6599	3144.7459	1199.95	314.5
1042.7656	3145.7178	1200.95	314.85
1042.8712	3146.689	1192.1	308.85
1042.9768	3147.6596	1196	310.5
1043.0823	3148.6295	1190.7	307.15
1043.1878	3149.5989	1180.7	296.85
1043.2932	3150.5676	1184.35	301.25
1043.3986	3151.5357	1185	301.6
1043.5039	3152.5032	1181.6	298.65
1043.6092	3153.4701	1179	294.15
1043.7145	3154.4364	1179.35	294.45
1043.8197	3155.402	1174.8	291.15
1043.9248	3156.367	1174.85	289.3
1044.03	3157.3315	1211.65	290.1
1044.135	3158.2952	1168.9	283.4
1044.24	3159.2584	1171.45	290.2
1044.345	3160.221	1169.25	285.15
1044.4499	3161.1829	1168	286.15
1044.5548	3162.1442	1163	280.2
1044.6596	3163.105	1158.1	273.5
1044.7644	3164.065	1159.2	274.35
1044.8692	3165.0245	1159.5	272.2
1044.9739	3165.9834	1156.75	275.25
1045.0785	3166.9416	1155.25	272.2
1045.1831	3167.8993	1148.4	263.5
1045.2877	3168.8563	1155.8	271
1045.3922	3169.8127	1150.3	267.7
1045.4966	3170.7684	1153.5	270.25
1045.6011	3171.7236	1148.3	262.5
1045.7054	3172.6782	1144.85	261.2
1045.8098	3173.6321	1147.7	264.6
1045.914	3174.5854	1147.35	259.55
1046.0183	3175.5381	1142.6	259.45
1046.1224	3176.4902	1137.6	252.6
1046.2266	3177.4417	1136.85	254.35
1046.3307	3178.3926	1137.95	254.9
1046.4347	3179.3428	1135.45	251.4
1046.5387	3180.2924	1132.95	249.65
1046.6427	3181.2415	1132.85	248.8
1046.7466	3182.1899	1134.5	249.95
1046.8504	3183.1377	1130.3	248.45
1046.9542	3184.0848	1134.35	248.85
1047.058	3185.0314	1127.2	244.55
1047.1617	3185.9773	1129.6	246.25
1047.2654	3186.9227	1128.3	241.25
1047.369	3187.8674	1124.6	240.75
1047.4726	3188.8115	1126	237.75
1047.5761	3189.755	1119.6	237
1047.6796	3190.6979	1116.5	233.25
1047.783	3191.6402	1115.6	232.45
1047.8864	3192.5818	1118.35	237.45
1047.9898	3193.5229	1122.85	232.6
1048.0931	3194.4633	1116.8	232.05
1048.1963	3195.4031	1110.7	229.6
1048.2995	3196.3423	1107.6	224.9
1048.4027	3197.2809	1111.25	229.1
1048.5058	3198.2189	1117.85	235.85
1048.6089	3199.1563	1118.15	227.9
1048.7119	3200.0931	1108.5	226.2
1048.8148	3201.0292	1102.15	221.2
1048.9178	3201.9648	1108.15	223.75
1049.0206	3202.8997	1103.25	216.1
1049.1235	3203.834	1104.35	219.75
1049.2262	3204.7677	1099.25	219.3
1049.329	3205.7008	1100.3	216.7
1049.4317	3206.6333	1098.4	214.3
1049.5343	3207.5652	1102.8	218.85
1049.6369	3208.4964	1098.05	213.95
1049.7394	3209.4271	1096	214.4
1049.8419	3210.3571	1099.9	218.7
1049.9444	3211.2865	1091.95	209.3
1050.0468	3212.2154	1089.5	206.35
1050.1491	3213.1436	1097.9	211.35
1050.2514	3214.0712	1096.7	208.3
1050.3537	3214.9982	1088.2	205.95
1050.4559	3215.9246	1090	205.2
1050.5581	3216.8503	1092.75	209.6
1050.6602	3217.7755	1084.45	200.85
1050.7623	3218.7001	1086.05	204.7
1050.8643	3219.624	1084.25	202.5
1050.9663	3220.5473	1081.85	196.4
1051.0682	3221.4701	1085.4	199.65
1051.1701	3222.3922	1080.25	194.05
1051.2719	3223.3137	1083.5	201.3
1051.3737	3224.2346	1078.7	194.5
1051.4754	3225.1549	1075.2	195.35
1051.5771	3226.0746	1074.75	192.65
1051.6788	3226.9937	1076.8	194.4
1051.7804	3227.9121	1074.75	194.05
1051.8819	3228.83	1071.95	189.25
1051.9834	3229.7473	1075.85	193.4
1052.0849	3230.6639	1074.2	191.05
1052.1863	3231.5799	1071.45	189.55
1052.2876	3232.4954	1070.15	187.95
1052.3889	3233.4102	1065.75	182.55
1052.4902	3234.3244	1072.65	189.15
1052.5914	3235.238	1065.05	183
1052.6926	3236.151	1090.5	183.15
1052.7937	3237.0634	1059.95	179.05
1052.8948	3237.9752	1062.4	179
1052.9958	3238.8864	1063.55	178.55
1053.0968	3239.797	1060.8	181
1053.1977	3240.7069	1059.85	176.6
1053.2986	3241.6163	1060.4	177.1
1053.3994	3242.5251	1051.35	171.85
1053.5002	3243.4332	1054.8	174.7
1053.6009	3244.3408	1055.3	172.6
1053.7016	3245.2477	1053.75	170.2
1053.8022	3246.154	1051.9	169.75
1053.9028	3247.0598	1053.85	170.8
1054.0034	3247.9649	1051.05	168.3
1054.1039	3248.8694	1046.45	162.95
1054.2043	3249.7733	1050.4	167.2
1054.3047	3250.6766	1046.25	161
1054.4051	3251.5793	1045.95	162.9
1054.5054	3252.4814	1046.85	166.95
1054.6056	3253.3829	1044.2	160.1
1054.7058	3254.2838	1042.25	160.7
1054.806	3255.1841	1038.2	153.6
1054.9061	3256.0838	1040.9	160.55
1055.0061	3256.9829	1040.8	160.3
1055.1062	3257.8814	1039	155.2
1055.2061	3258.7792	1040.65	155.5
1055.306	3259.6765	1037.15	154.4
1055.4059	3260.5731	1031.5	149.1
1055.5057	3261.4692	1027.4	145.1
1055.6055	3262.3647	1022.15	140.2
1055.7052	3263.2595	1026.4	144.5
1055.8049	3264.1538	1020.4	136.95
1055.9045	3265.0474	1024.7	141.85
1056.0041	3265.9404	1020.95	138.2
1056.1036	3266.8329	1017.7	136.25
1056.2031	3267.7247	1025.1	135
1056.3025	3268.616	1009.75	128.75
1056.4019	3269.5066	1008.2	126.75
1056.5013	3270.3966	1007.2	125.7
1056.6005	3271.286	1000.55	119.7
