Software Version:	3.9.2.0
Unit SN:	10000200
Spectrometer SN:	6960
Date:	3/26/2024 1:37:54 PM
Data Line Index:	25
Spectral Points:	2048
Integration time (ms):	125
Averages:	20
Delay (ms):	30000
Sequence Number:	1
Processing:	dark subtract
Laser Power (mW):	300
Laser Current (mA):	818
Laser Diode Temp (C):	25.1
Laser Case Temp (C):	27.1
System Temp (C):	27
Spectrometer Temp (C):	24.7
CCD Temp (C):	0.007
Secondary Temp (C):	20.011
Heatsink Temp (C):	22.705
CCDPCB Temp (C):	36.485
SecondaryPCB Temp (C):	34.195

Wavelength	RamanShift	Raw Counts	Dark Subtracted
787.061	30.1047	597.85	187.35
787.2016	32.3739	603.8	194.65
787.3422	34.6426	614.95	204.15
787.4828	36.9109	632	218.9
787.6235	39.1787	649.7	234.3
787.7642	41.4461	671.3	250.55
787.9049	43.7131	691.15	267.4
788.0456	45.9796	712.3	284.55
788.1863	48.2456	731.5	298.5
788.3271	50.5112	756.1	318.65
788.4679	52.7764	776.85	337.8
788.6087	55.0411	803.85	362.2
788.7496	57.3054	831.85	384.7
788.8904	59.5692	853.45	403.9
789.0313	61.8326	881.45	427.95
789.1722	64.0955	919.75	461.5
789.3132	66.3579	966.55	503.8
789.4541	68.6199	1005.55	541.05
789.5951	70.8815	1088.4	622.5
789.7361	73.1426	1272.45	801.65
789.8771	75.4032	1713.85	1238
790.0181	77.6634	2834.35	2350.2
790.1592	79.9231	5598.15	5103.7
790.3003	82.1824	11896.55	11389.35
790.4414	84.4412	24736.65	24199.6
790.5825	86.6995	46320.9	45744.65
790.7237	88.9574	58327.8	57717.45
790.8648	91.2148	63269.35	62631.85
791.006	93.4717	64053.45	63404.25
791.1472	95.7282	64430.45	63773.95
791.2885	97.9842	64557.15	63892.7
791.4297	100.2398	64440.25	63771.4
791.571	102.4949	64413.9	63746.65
791.7123	104.7495	64302.75	63628.85
791.8536	107.0036	64132.15	63457.8
791.9949	109.2573	64296.55	63624.3
792.1363	111.5105	64076.5	63402.75
792.2777	113.7632	63995.3	63321.9
792.4191	116.0154	64094.7	63408.35
792.5605	118.2672	64230.5	63548.6
792.7019	120.5185	64204.15	63521.05
792.8434	122.7693	64161	63475.65
792.9849	125.0197	63824.45	63139.35
793.1264	127.2696	64394.55	63699.95
793.2679	129.519	64200	63506.55
793.4094	131.7679	64413.95	63717.05
793.551	134.0163	63864.05	63159.6
793.6926	136.2642	64070	63366.05
793.8342	138.5117	64344.2	63630
793.9758	140.7587	64196.6	63485.35
794.1175	143.0052	64099.1	63383.7
794.2591	145.2512	63785.7	63070.75
794.4008	147.4967	64134.1	63421.75
794.5425	149.7417	64039	63325.55
794.6842	151.9863	64000.5	63281.45
794.826	154.2304	63812.55	63093.7
794.9677	156.4739	63875	63148.2
795.1095	158.717	64140.3	63413.6
795.2513	160.9596	63898.05	63164.2
795.3931	163.2017	63600.7	62866.8
795.535	165.4433	63887.35	63151.4
795.6768	167.6844	63654.35	62916.5
795.8187	169.925	63801.2	63062.2
795.9606	172.1651	63541.85	62800.9
796.1025	174.4047	63700.65	62958.6
796.2445	176.6439	63554.3	62808.9
796.3864	178.8825	63371.95	62622.05
796.5284	181.1206	63755.75	63006
796.6704	183.3582	63670.8	62908.65
796.8124	185.5954	63514.75	62760.05
796.9544	187.832	63530.55	62767.15
797.0965	190.0681	63226.8	62462.35
797.2386	192.3037	63647.9	62881
797.3806	194.5388	64102.7	63332.95
797.5228	196.7734	63019.85	62243.9
797.6649	199.0075	64038.8	63257.1
797.807	201.2411	63620.6	62837.55
797.9492	203.4742	64147.55	63366.25
798.0914	205.7068	64006.05	63220.05
798.2336	207.9389	63971.05	63189.4
798.3758	210.1704	63915.55	63126.4
798.518	212.4015	64265.15	63474.1
798.6603	214.632	63893.4	63105.6
798.8025	216.862	64327.4	63546.35
798.9448	219.0915	64043.2	63271.8
799.0871	221.3205	64052.6	63283.25
799.2294	223.549	64377.65	63613.25
799.3718	225.777	64325	63555.95
799.5141	228.0044	64516.85	63745.55
799.6565	230.2314	64353.7	63587.3
799.7989	232.4578	64334.85	63566.45
799.9413	234.6837	64430.35	63654.25
800.0837	236.909	64894.85	64114.05
800.2262	239.1339	64146.2	63344
800.3687	241.3582	64496.4	63703.1
800.5111	243.582	64518.85	63700
800.6536	245.8053	64470.45	63664.9
800.7961	248.0281	64517.05	63715.8
800.9387	250.2503	64603	63795.1
801.0812	252.472	64348.2	63531.35
801.2238	254.6932	64559.15	63748.3
801.3664	256.9139	64457.95	63643.95
801.509	259.134	64877.4	64058.55
801.6516	261.3536	64443.05	63627.2
801.7942	263.5727	64689.8	63872.4
801.9369	265.7912	64577.85	63760.3
802.0795	268.0092	64653.35	63833.85
802.2222	270.2267	64735.9	63916.85
802.3649	272.4436	64480.8	63658.55
802.5076	274.6601	64696	63864.1
802.6504	276.8759	64779.1	63953.8
802.7931	279.0913	64603.8	63778.65
802.9359	281.3061	64704.1	63875.7
803.0787	283.5204	64670.2	63838.85
803.2215	285.7341	64663.75	63835.15
803.3643	287.9473	64842.9	63996.35
803.5071	290.16	64713.85	63872.65
803.6499	292.3721	64779.4	63943.75
803.7928	294.5837	64679.8	63842.35
803.9357	296.7947	64515.25	63677.75
804.0786	299.0052	64856.65	64019.4
804.2215	301.2152	64745.25	63906.65
804.3644	303.4246	64797.25	63966.3
804.5074	305.6334	64781.25	63950.6
804.6503	307.8418	64505.85	63671.15
804.7933	310.0495	64454.65	63610.3
804.9363	312.2568	64418.85	63576.95
805.0793	314.4635	64401.1	63556.2
805.2223	316.6696	64534.05	63691.4
805.3653	318.8752	64642.3	63793.35
805.5084	321.0802	64065.25	63220
805.6514	323.2847	64356.55	63509.65
805.7945	325.4887	64285.6	63438.85
805.9376	327.692	64165.75	63319.95
806.0807	329.8949	64302.35	63452
806.2238	332.0972	64143.7	63292.8
806.367	334.2989	64243.6	63388.5
806.5101	336.5001	64406.15	63555.45
806.6533	338.7007	63911.2	63055.95
806.7965	340.9008	64170.45	63313.25
806.9397	343.1003	64196.6	63337.25
807.0829	345.2992	64305.35	63448.25
807.2261	347.4976	64038.05	63176.35
807.3693	349.6955	64153.15	63288.45
807.5126	351.8927	63942.35	63078.3
807.6559	354.0895	64156.35	63278.4
807.7991	356.2856	64105.45	63236.15
807.9424	358.4812	64261.15	63397.45
808.0857	360.6763	63838.5	62971.95
808.2291	362.8707	64263.45	63393.9
808.3724	365.0646	63992.85	63124.4
808.5158	367.258	64018.3	63148.95
808.6591	369.4508	63792.6	62917.9
808.8025	371.643	64224.9	63353.5
808.9459	373.8346	64021.9	63141.9
809.0893	376.0257	64070.05	63191.85
809.2327	378.2162	63969.35	63093.5
809.3762	380.4062	63618.85	62739.5
809.5196	382.5956	63913.8	63035.05
809.6631	384.7844	63852	62969.8
809.8066	386.9726	63993.65	63116.1
809.9501	389.1603	63946.45	63064.05
810.0936	391.3474	63669.3	62744.9
810.2371	393.5339	63896.6	63012.9
810.3806	395.7199	63492.6	62615.1
810.5241	397.9052	63571.2	62692.1
810.6677	400.09	63695.05	62822.5
810.8113	402.2743	63932.1	63061.75
810.9548	404.4579	63604.75	62734.9
811.0984	406.641	63689.5	62816.85
811.2421	408.8235	63820.15	62949.25
811.3857	411.0054	63893.2	63021.4
811.5293	413.1868	63919.2	63042.6
811.673	415.3675	63797.1	62916.95
811.8166	417.5477	63820.65	62941.15
811.9603	419.7273	63822.65	62942.6
812.104	421.9064	63736.3	62847
812.2477	424.0848	63784	62901.7
812.3914	426.2627	63992.85	63110.35
812.5351	428.4399	63601.75	62715.05
812.6788	430.6166	63181.7	62291.2
812.8226	432.7928	63568.4	62673.65
812.9663	434.9683	63193	62305.5
813.1101	437.1432	63159.05	62270.9
813.2539	439.3176	63481.3	62597.3
813.3977	441.4914	62921.85	62043.35
813.5415	443.6645	63013.45	62122.15
813.6853	445.8371	63050.55	62161.65
813.8291	448.0091	62828.45	61936.55
813.973	450.1806	62691	61801.9
814.1168	452.3514	62806.25	61918.9
814.2607	454.5216	62508.75	61615.6
814.4046	456.6913	62806.35	61911.2
814.5485	458.8603	62855.45	61965.45
814.6924	461.0288	62453.55	61567.45
814.8363	463.1967	62847.75	61964.4
814.9802	465.3639	62771.45	61880.7
815.1241	467.5306	62101.7	61211.7
815.2681	469.6967	62520.25	61633.5
815.412	471.8622	62731.95	61842.65
815.556	474.0271	62493.1	61602.7
815.7	476.1914	62566.6	61668.1
815.844	478.3551	62571.05	61677.35
815.988	480.5182	62960.7	62074.75
816.132	482.6807	62417.25	61531.8
816.276	484.8426	62490.8	61611.1
816.4201	487.0039	63031	62147.8
816.5641	489.1647	63035.35	62145
816.7082	491.3248	62534.3	61635.6
816.8522	493.4843	63169.1	62280.75
816.9963	495.6432	63160.6	62268.5
817.1404	497.8015	62545.15	61647.15
817.2845	499.9592	62836.6	61935.25
817.4286	502.1163	62754.85	61848.75
817.5727	504.2728	62640.7	61742.7
817.7168	506.4287	62577.9	61689.7
817.861	508.5839	62237.3	61351.6
818.0051	510.7386	62449.25	61556.5
818.1493	512.8927	62484.8	61581.75
818.2935	515.0461	62362.85	61465.2
818.4377	517.199	62616.95	61713.3
818.5818	519.3512	62364.85	61464.3
818.726	521.5029	62358.2	61453.8
818.8703	523.6539	62473.5	61573.2
819.0145	525.8043	62065.4	61165
819.1587	527.9541	62463.65	61562.35
819.303	530.1033	62380.9	61477.45
819.4472	532.2519	62121.8	61220.95
819.5915	534.3999	62394.6	61489.45
819.7357	536.5472	62628.55	61727.3
819.88	538.694	62108.15	61211.75
820.0243	540.8401	62477.25	61574.25
820.1686	542.9856	62499.65	61585.55
820.3129	545.1305	62716.8	61797.55
820.4572	547.2748	62309.8	61388.7
820.6016	549.4185	62287	61363.1
820.7459	551.5615	62517	61597.45
820.8902	553.704	62401.7	61484.7
821.0346	555.8458	62199.2	61286.5
821.1789	557.987	62312.6	61399.8
821.3233	560.1276	62503.25	61589.3
821.4677	562.2675	62370.45	61452.45
821.6121	564.4069	62519.3	61597.75
821.7565	566.5456	62803.95	61890.1
821.9009	568.6837	62380.1	61462.6
822.0453	570.8212	62510.15	61597.75
822.1897	572.958	61846.85	60930.55
822.3342	575.0942	62184.1	61277.25
822.4786	577.2299	61791.3	60888.65
822.6231	579.3648	61694.35	60797.65
822.7675	581.4992	61584.15	60698.45
822.912	583.6329	61568.3	60680.3
823.0565	585.766	61626.5	60736.7
823.201	587.8985	61771.75	60876.9
823.3454	590.0304	61257.5	60328.8
823.4899	592.1616	61625.3	60705.9
823.6345	594.2922	61358.85	60443.2
823.779	596.4222	61087.5	60168.7
823.9235	598.5515	61149.15	60228.75
824.068	600.6802	61279.2	60360.55
824.2126	602.8083	60842.85	59928.05
824.3571	604.9358	60843.75	59926.25
824.5017	607.0626	61160.1	60237.6
824.6462	609.1888	60654.45	59727.1
824.7908	611.3144	60979.35	60053.85
824.9354	613.4393	60816.25	59890.6
825.08	615.5636	60629.15	59704.9
825.2246	617.6873	60876	59954.05
825.3692	619.8103	60487.35	59561.45
825.5138	621.9327	60795.6	59875.4
825.6584	624.0544	60780.8	59862.1
825.803	626.1756	60574.6	59659.25
825.9477	628.2961	60505.9	59583.5
826.0923	630.4159	60235.5	59313.5
826.237	632.5351	60122.1	59198.75
826.3816	634.6537	60756.85	59833.95
826.5263	636.7716	60095.5	59168.35
826.6709	638.8889	60265.25	59332.65
826.8156	641.0056	60193.5	59266.6
826.9603	643.1216	60325.9	59397.3
827.105	645.237	60418.8	59490.5
827.2497	647.3518	60006.6	59083.35
827.3944	649.4659	60143.3	59224
827.5391	651.5793	60115.55	59198.1
827.6838	653.6922	60152.65	59232.6
827.8285	655.8043	59678.5	58754.8
827.9733	657.9159	60345.8	59424.55
828.118	660.0268	59249.3	58323.5
828.2627	662.137	59820.3	58892.65
828.4075	664.2466	59914.15	58981.55
828.5522	666.3556	59652.3	58722.65
828.697	668.4639	59809.25	58883.05
828.8418	670.5716	59543.7	58620.3
828.9865	672.6786	59736.9	58812.35
829.1313	674.785	59364.55	58432.75
829.2761	676.8907	59376.7	58448.1
829.4209	678.9958	59523.9	58602.7
829.5657	681.1002	59607.5	58680.3
829.7105	683.204	59240.7	58303.2
829.8553	685.3072	59078.7	58143
830.0001	687.4097	59166.55	58237.65
830.1449	689.5115	59071.65	58137.15
830.2898	691.6127	59346.7	58421.05
830.4346	693.7132	59021.2	58091.95
830.5794	695.8131	59089.6	58148.2
830.7243	697.9123	59146.35	58210.2
830.8691	700.0109	59218.85	58283
831.014	702.1089	58751.25	57818.8
831.1588	704.2061	58924.4	57993.1
831.3037	706.3028	58925.05	57988.45
831.4486	708.3987	58928.25	57995.15
831.5935	710.4941	58779.35	57846.35
831.7383	712.5887	58997.2	58062.55
831.8832	714.6827	58845.1	57914.65
832.0281	716.7761	59105.1	58175.8
832.173	718.8688	59149.45	58218.1
832.3179	720.9608	58904.2	57965.85
832.4628	723.0522	59012.1	58068.6
832.6077	725.1429	58754.7	57818.5
832.7527	727.233	59437.75	58501.35
832.8976	729.3224	58454.8	57520.65
833.0425	731.4112	58705.6	57771.95
833.1874	733.4993	58684.35	57747.5
833.3324	735.5867	58576.65	57642.3
833.4773	737.6735	58295.35	57360
833.6222	739.7596	58003.75	57061.55
833.7672	741.845	57970.5	57036.65
833.9122	743.9298	58187.3	57246.9
834.0571	746.014	57871.3	56933.4
834.2021	748.0974	57677.3	56734
834.347	750.1802	58040.65	57093.7
834.492	752.2624	57460.35	56519.4
834.637	754.3439	57516.9	56571.55
834.782	756.4247	57590.1	56640.5
834.9269	758.5048	57405.2	56464.3
835.0719	760.5843	57597.4	56656
835.2169	762.6631	57762	56821.75
835.3619	764.7413	57799.2	56857.75
835.5069	766.8188	58052.5	57110.6
835.6519	768.8956	58275.5	57332.9
835.7969	770.9718	58343.4	57401.6
835.9419	773.0473	58157.5	57214.35
836.0869	775.1221	57884	56942.05
836.232	777.1962	57778.7	56836.75
836.377	779.2697	57458.3	56518.65
836.522	781.3426	57551.9	56597.8
836.667	783.4147	57609.85	56665.3
836.8121	785.4862	57563.95	56620.55
836.9571	787.557	57267.1	56323.85
837.1021	789.6271	57333.1	56391.65
837.2472	791.6966	56832.4	55889.95
837.3922	793.7654	56318.95	55375.95
837.5373	795.8335	56161.45	55215.05
837.6823	797.901	56057.85	55111.95
837.8274	799.9678	55865.45	54920.7
837.9724	802.0339	55771.05	54825.3
838.1175	804.0993	55758.45	54800.15
838.2626	806.1641	55567.15	54622.1
838.4076	808.2282	55470.75	54527.95
838.5527	810.2916	55436.25	54488.2
838.6978	812.3544	55491.8	54547.85
838.8428	814.4164	55108	54164.7
838.9879	816.4778	55238.85	54293.55
839.133	818.5385	55171.15	54222.3
839.2781	820.5986	55148.25	54198.6
839.4232	822.658	55308	54361.65
839.5682	824.7166	55349.5	54408.15
839.7133	826.7747	55393.65	54445.55
839.8584	828.832	55633.8	54686.5
840.0035	830.8886	55770.2	54822.2
840.1486	832.9446	55833.8	54885.5
840.2937	834.9999	55320.1	54372.1
840.4388	837.0545	55377.4	54427
840.5839	839.1085	55271	54324.3
840.729	841.1618	55075.05	54125.9
840.8741	843.2143	54667.35	53721.4
841.0192	845.2662	54548.9	53602.4
841.1643	847.3175	54569.3	53619.9
841.3095	849.368	54047.25	53097.8
841.4546	851.4179	54357.65	53409.6
841.5997	853.467	53917.45	52967.35
841.7448	855.5155	54049.25	53100.25
841.8899	857.5633	53745.45	52799.05
842.0351	859.6105	53508.95	52562.7
842.1802	861.6569	53614.45	52665.95
842.3253	863.7027	53178.05	52228
842.4704	865.7478	53269.05	52320.25
842.6156	867.7922	53127.45	52178.85
842.7607	869.8359	53247.8	52296.7
842.9058	871.8789	52854.8	51907.3
843.0509	873.9212	53030.3	52047.65
843.1961	875.9629	53017.25	52067.2
843.3412	878.0039	53013.5	52061.35
843.4863	880.0441	52909.85	51964.2
843.6315	882.0837	52896.05	51947.1
843.7766	884.1226	52845.7	51894.65
843.9218	886.1609	52839.4	51891.4
844.0669	888.1984	52734.9	51789.15
844.212	890.2352	53114.85	52166.2
844.3572	892.2714	52641	51684.3
844.5023	894.3069	52768.75	51818.95
844.6475	896.3416	52433.15	51485.65
844.7926	898.3757	52254.85	51304.65
844.9377	900.4091	51777.7	50825.9
845.0829	902.4418	52235.35	51276.9
845.228	904.4739	51907	50953.6
845.3732	906.5052	51979.45	51024.6
845.5183	908.5358	51721.15	50766.45
845.6635	910.5658	51525.95	50568.7
845.8086	912.595	51389.15	50436.8
845.9538	914.6236	50854.25	49901.1
846.0989	916.6515	51315.45	50364.9
846.2441	918.6786	50527.75	49572.7
846.3892	920.7051	50674.35	49719.5
846.5344	922.7309	50638.85	49685.65
846.6795	924.756	50608.2	49655.65
846.8246	926.7804	50461.1	49509
846.9698	928.8041	49890.2	48938.05
847.1149	930.8272	50218.4	49265.45
847.2601	932.8495	50102.35	49148.25
847.4052	934.8711	49824.15	48867.35
847.5504	936.892	49500.05	48546.65
847.6955	938.9123	49569.15	48612.05
847.8407	940.9318	49397.3	48446.35
847.9858	942.9506	49273.25	48323.35
848.131	944.9688	49209.25	48257.2
848.2761	946.9862	48695.55	47742.65
848.4213	949.003	48660.15	47707.7
848.5664	951.019	48174.95	47222.5
848.7115	953.0344	48170.95	47216.9
848.8567	955.0491	48084.7	47135.2
849.0018	957.063	48147.7	47195.6
849.147	959.0763	48271.8	47313.6
849.2921	961.0888	47942.9	46989.65
849.4373	963.1007	48122.6	47174.85
849.5824	965.1119	48024.75	47081.15
849.7275	967.1223	47833.25	46894.95
849.8727	969.1321	47932.4	46994.9
850.0178	971.1412	47682.55	46736.15
850.1629	973.1495	47420.2	46467.5
850.3081	975.1572	47496.05	46524.2
850.4532	977.1641	47454.1	46501.75
850.5983	979.1704	47237.6	46284.05
850.7435	981.1759	47130.7	46174.75
850.8886	983.1808	47043.95	46089.75
851.0337	985.1849	46935	45974.85
851.1788	987.1884	46912.1	45958.25
851.324	989.1911	47045.6	46092.55
851.4691	991.1932	46691.55	45740.7
851.6142	993.1945	46670.85	45720.95
851.7593	995.1951	46521.55	45567.75
851.9045	997.1951	46345	45392.1
852.0496	999.1943	46165.15	45215.15
852.1947	1001.1928	45955.05	45001.7
852.3398	1003.1906	45901.8	44953.1
852.4849	1005.1877	45791.55	44842.2
852.63	1007.1841	45628.8	44676.35
852.7751	1009.1798	45479.15	44529
852.9202	1011.1748	45335.6	44384.2
853.0653	1013.1691	45110.75	44161.9
853.2104	1015.1627	44656.8	43706.4
853.3555	1017.1556	44329.05	43378.5
853.5006	1019.1477	44239.25	43292.1
853.6457	1021.1392	43850.2	42908.15
853.7908	1023.1299	43611.5	42669.7
853.9359	1025.12	43558.9	42624.15
854.081	1027.1093	43374.3	42449.8
854.2261	1029.0979	43354.05	42429.55
854.3712	1031.0859	43297.65	42367.5
854.5163	1033.0731	43015.05	42076.6
854.6613	1035.0596	42941.8	41999.35
854.8064	1037.0454	42711.45	41767.3
854.9515	1039.0304	42491.85	41543.65
855.0965	1041.0148	42163.55	41216.8
855.2416	1042.9985	42034.55	41083.4
855.3867	1044.9814	41984.05	41036.75
855.5317	1046.9636	41734.4	40782.2
855.6768	1048.9452	41605.1	40657.5
855.8219	1050.926	41582	40636.45
855.9669	1052.9061	41453.55	40505.25
856.112	1054.8855	41389.75	40442.9
856.257	1056.8642	41296.25	40347.5
856.4021	1058.8421	41285.55	40331.75
856.5471	1060.8194	41202.4	40253.75
856.6921	1062.7959	41135.8	40186.4
856.8372	1064.7717	41091.05	40144.15
856.9822	1066.7469	40996.9	40050.75
857.1272	1068.7213	40992	40041.9
857.2723	1070.695	40938.95	39989.6
857.4173	1072.6679	40744.05	39795.8
857.5623	1074.6402	40680.25	39729.65
857.7073	1076.6117	40636.7	39682.15
857.8523	1078.5826	40564.6	39616.85
857.9973	1080.5527	40339.8	39389
858.1423	1082.5221	40087.6	39138.4
858.2873	1084.4908	40066.45	39116
858.4323	1086.4587	39968.2	39020.95
858.5773	1088.426	39956.4	39006.1
858.7223	1090.3925	39776.3	38824.7
858.8673	1092.3584	39821.85	38874.3
859.0123	1094.3235	39591.3	38645.55
859.1573	1096.2879	39473.85	38524.3
859.3022	1098.2515	39525.25	38579.05
859.4472	1100.2145	39587.3	38642.8
859.5922	1102.1767	39545.1	38599.35
859.7371	1104.1382	39617.6	38671
859.8821	1106.099	39746.1	38793.6
860.027	1108.0591	39788.1	38842.75
860.172	1110.0185	39784.95	38837
860.3169	1111.9771	39806.5	38862.3
860.4619	1113.9351	39580.7	38634.8
860.6068	1115.8923	39293.85	38347.4
860.7517	1117.8488	39036.55	38087.55
860.8967	1119.8045	38743.9	37796.2
861.0416	1121.7596	38643.55	37695.95
861.1865	1123.7139	38413.7	37469.3
861.3314	1125.6675	38298.55	37353.5
861.4763	1127.6204	38335.5	37388.7
861.6212	1129.5726	38114.7	37165.25
861.7661	1131.524	38062.75	37115.15
861.911	1133.4748	37906.95	36959.2
862.0559	1135.4248	37646.35	36699.7
862.2008	1137.3741	37457.95	36513.4
862.3457	1139.3226	37289.25	36341.05
862.4905	1141.2705	37280.3	36332.05
862.6354	1143.2176	36984.6	36034.9
862.7803	1145.164	36921.65	35975.3
862.9251	1147.1097	36848.9	35901.85
863.07	1149.0546	36712.55	35763.4
863.2148	1150.9989	36616	35667.9
863.3597	1152.9424	36470.35	35521.95
863.5045	1154.8852	36295.6	35350.2
863.6493	1156.8272	36182.55	35235.8
863.7942	1158.7686	36185.7	35232.1
863.939	1160.7092	36113.3	35165.85
864.0838	1162.6491	35943.55	34995.6
864.2286	1164.5883	36019.95	35076.05
864.3734	1166.5267	35976.45	35028.55
864.5182	1168.4644	36027.5	35081.5
864.663	1170.4014	36110.05	35163.7
864.8078	1172.3377	36287.05	35343.4
864.9526	1174.2732	36429.45	35486.8
865.0974	1176.2081	36697.6	35752.75
865.2421	1178.1421	36917.65	35967
865.3869	1180.0755	37218.95	36274
865.5317	1182.0082	37355.7	36414.45
865.6764	1183.9401	37449.65	36504.55
865.8212	1185.8713	37205.4	36269.95
865.9659	1187.8017	36909.1	35978.1
866.1106	1189.7315	36599.6	35673.75
866.2554	1191.6605	36126.6	35200.35
866.4001	1193.5888	35754.3	34825.15
866.5448	1195.5163	35610.5	34672.25
866.6895	1197.4432	35436	34496.9
866.8342	1199.3693	35269.7	34333.6
866.9789	1201.2947	35134.95	34191.2
867.1236	1203.2193	34994.3	34052.85
867.2683	1205.1432	34927.15	33987.75
867.413	1207.0664	34787.6	33849.7
867.5576	1208.9889	34628.95	33683.5
867.7023	1210.9106	34564.2	33623.5
867.847	1212.8316	34414.25	33472.2
867.9916	1214.7519	34394.8	33444.35
868.1363	1216.6715	34344.95	33402.7
868.2809	1218.5903	34361.55	33418.4
868.4255	1220.5084	34277.05	33337.05
868.5701	1222.4257	34328.3	33386.95
868.7148	1224.3424	34157.7	33221.1
868.8594	1226.2583	34210.15	33268.1
869.004	1228.1735	34211.25	33270
869.1486	1230.0879	34160.95	33217.95
869.2932	1232.0016	34248.75	33309
869.4377	1233.9146	34250.5	33309
869.5823	1235.8269	34109.9	33163.45
869.7269	1237.7384	34078.9	33136.9
869.8715	1239.6492	33846.4	32908.4
870.016	1241.5592	33776.7	32833.05
870.1606	1243.4686	33620.8	32683.45
870.3051	1245.3772	33708.85	32770.7
870.4496	1247.285	33727.55	32786.1
870.5941	1249.1922	33752.15	32812.1
870.7387	1251.0986	33809.1	32869.6
870.8832	1253.0042	33763.45	32822.15
871.0277	1254.9092	33770.45	32831.4
871.1722	1256.8134	33758.35	32821.1
871.3167	1258.7169	33838.8	32897.9
871.4611	1260.6196	33865.1	32927.55
871.6056	1262.5216	34042.65	33101.85
871.7501	1264.4229	34082.5	33145.95
871.8945	1266.3234	34190.7	33251.3
872.039	1268.2232	34191.7	33253.3
872.1834	1270.1223	34189.1	33246.35
872.3278	1272.0207	34167.25	33227.8
872.4723	1273.9183	34079.85	33134.65
872.6167	1275.8151	33945.75	33006.45
872.7611	1277.7113	33869.3	32929.7
872.9055	1279.6067	33810.8	32872.65
873.0499	1281.5014	33902.8	32964
873.1943	1283.3953	34092.8	33152.65
873.3386	1285.2885	34408.95	33469.4
873.483	1287.181	34656.5	33716.2
873.6274	1289.0727	34988.35	34050.45
873.7717	1290.9637	35163.6	34225.35
873.9161	1292.854	35283.75	34348.2
874.0604	1294.7435	35213.6	34277.45
874.2047	1296.6323	35071.75	34132.25
874.349	1298.5204	34980.15	34040.15
874.4933	1300.4077	34787.05	33849.3
874.6376	1302.2943	34566	33629.5
874.7819	1304.1802	34346.4	33413.25
874.9262	1306.0653	33937	32997.4
875.0705	1307.9497	33544.1	32607.95
875.2147	1309.8333	33221.55	32286.2
875.359	1311.7162	32939.75	32002.95
875.5032	1313.5984	32778.1	31835.55
875.6475	1315.4798	32638.9	31685.75
875.7917	1317.3605	32544.7	31591.6
875.9359	1319.2405	32428.95	31486.9
876.0801	1321.1197	32212.25	31273.1
876.2243	1322.9982	31839.55	30896.45
876.3685	1324.876	31705.75	30770.9
876.5127	1326.753	31422.8	30484.05
876.6569	1328.6293	31277.95	30336.9
876.801	1330.5048	31097.9	30159.4
876.9452	1332.3796	30926	29986.1
877.0893	1334.2537	30868.8	29906.35
877.2335	1336.127	30742.95	29802.85
877.3776	1337.9996	30618.1	29681.55
877.5217	1339.8714	30547.15	29609.9
877.6658	1341.7426	30512.4	29528.2
877.8099	1343.6129	30443.95	29502.45
877.954	1345.4826	30369.95	29429.65
878.0981	1347.3515	30413.25	29471.5
878.2422	1349.2196	30357.35	29418.15
878.3862	1351.087	30343.2	29402.75
878.5303	1352.9537	30300.3	29360.85
878.6743	1354.8197	30362.25	29424.9
878.8184	1356.6849	30474.85	29538.05
878.9624	1358.5493	30489.45	29547.45
879.1064	1360.4131	30564.25	29629.25
879.2504	1362.276	30609.65	29675.7
879.3944	1364.1383	30468.35	29530
879.5384	1365.9998	30313.25	29370.35
879.6823	1367.8606	30019.25	29082.45
879.8263	1369.7206	29666.85	28728.55
879.9702	1371.5799	29317.2	28375.6
880.1142	1373.4384	29095.75	28160.2
880.2581	1375.2962	28893.85	27952.45
880.402	1377.1533	28521.45	27589.45
880.5459	1379.0096	28091.45	27158.65
880.6898	1380.8652	27786	26853
880.8337	1382.7201	27555.05	26622.4
880.9776	1384.5742	27208.85	26273.65
881.1215	1386.4275	26976.45	26038.25
881.2653	1388.2802	26758.1	25821
881.4092	1390.132	26632.5	25694.3
881.553	1391.9832	26565.05	25627.25
881.6968	1393.8336	26406.8	25469.1
881.8406	1395.6832	26293.05	25352.95
881.9844	1397.5322	26174.2	25240.35
882.1282	1399.3803	26095.9	25152.35
882.272	1401.2278	25916.1	24981.4
882.4158	1403.0745	25894.65	24960.25
882.5595	1404.9204	25755.95	24822.9
882.7033	1406.7656	25736.75	24801.8
882.847	1408.6101	25588.65	24651.5
882.9908	1410.4538	25490.95	24555.5
883.1345	1412.2968	25491.5	24557.25
883.2782	1414.139	25441.05	24506.65
883.4219	1415.9805	25494.2	24560.35
883.5656	1417.8213	25442.2	24491.9
883.7092	1419.6613	25484.1	24552.4
883.8529	1421.5006	25548.85	24615.2
883.9965	1423.3391	25634.65	24701.4
884.1402	1425.1769	25723.6	24787.45
884.2838	1427.0139	26076.6	25142.35
884.4274	1428.8502	26383.9	25449.4
884.571	1430.6858	26744.85	25809.55
884.7146	1432.5206	26929.7	25995.3
884.8582	1434.3547	27079.65	26146.35
885.0018	1436.188	27087.5	26155.65
885.1453	1438.0206	27008.85	26077.4
885.2889	1439.8524	26776.3	25844.85
885.4324	1441.6835	26669.1	25735.75
885.5759	1443.5139	26526.3	25590.4
885.7194	1445.3435	26379.4	25446.4
885.8629	1447.1724	26359.25	25423.55
886.0064	1449.0005	26293.6	25362.5
886.1499	1450.8279	26185.05	25252.25
886.2933	1452.6545	26147.15	25217.6
886.4368	1454.4804	26194.05	25261.8
886.5802	1456.3056	26088.55	25150.85
886.7237	1458.13	25984.25	25055.45
886.8671	1459.9536	25847.3	24916.25
887.0105	1461.7766	25579.6	24647.7
887.1539	1463.5987	25319.15	24383.55
887.2972	1465.4202	25004.1	24070.85
887.4406	1467.2409	24680.5	23749.5
887.584	1469.0608	24475.05	23541.25
887.7273	1470.88	24212.95	23281.4
887.8706	1472.6984	24006.65	23078.45
888.0139	1474.5161	23805.6	22872.3
888.1572	1476.3331	23616.15	22687.1
888.3005	1478.1493	23498	22565.9
888.4438	1479.9648	23426.75	22495.55
888.5871	1481.7795	23288.85	22356
888.7303	1483.5935	23207.45	22276.7
888.8736	1485.4067	23128.05	22196.7
889.0168	1487.2192	23082.85	22150.85
889.16	1489.031	23029.95	22095.1
889.3032	1490.842	22913.55	21980.85
889.4464	1492.6522	22898.5	21968.75
889.5896	1494.4618	22798	21863.8
889.7327	1496.2705	22753.2	21822.2
889.8759	1498.0785	22681.7	21750.15
890.019	1499.8858	22599.7	21669.5
890.1622	1501.6924	22504.3	21573.45
890.3053	1503.4981	22475.8	21542.95
890.4484	1505.3032	22444.35	21513.45
890.5914	1507.1075	22307.25	21376.45
890.7345	1508.911	22262.75	21335.15
890.8776	1510.7138	22212.55	21281.55
891.0206	1512.5159	22065	21138.6
891.1637	1514.3172	22036.6	21109.05
891.3067	1516.1178	21888.2	20959.5
891.4497	1517.9176	21876.35	20942.6
891.5927	1519.7166	21795	20867
891.7357	1521.515	21734.2	20801.3
891.8786	1523.3126	21642.75	20718.5
892.0216	1525.1094	21586.2	20659.25
892.1645	1526.9055	21487	20561.4
892.3074	1528.7008	21417.8	20490.1
892.4503	1530.4954	21326.9	20393.9
892.5932	1532.2893	21280.55	20355.2
892.7361	1534.0824	21155.35	20227.55
892.879	1535.8747	21102.8	20179.7
893.0218	1537.6663	21086.95	20164.35
893.1647	1539.4572	21037.6	20114.3
893.3075	1541.2473	20988.9	20066.25
893.4503	1543.0367	20917.05	19992.9
893.5931	1544.8253	20847.2	19921.9
893.7359	1546.6132	20883.55	19956.95
893.8787	1548.4003	20767.7	19834.15
894.0214	1550.1867	20813	19883.45
894.1642	1551.9723	20768.2	19839.85
894.3069	1553.7572	20814.2	19891.85
894.4496	1555.5414	20836.9	19917.4
894.5923	1557.3247	20857.3	19937.5
894.735	1559.1074	20927.05	20011.7
894.8777	1560.8893	21012.25	20096.1
895.0204	1562.6705	21043.6	20124.55
895.163	1564.4509	21127.4	20212.2
895.3056	1566.2305	21122.2	20208.6
895.4482	1568.0094	21208.95	20294.75
895.5908	1569.7876	21165.3	20249.85
895.7334	1571.565	21110.2	20192.4
895.876	1573.3417	21075.8	20158.6
896.0186	1575.1176	21025.25	20109.75
896.1611	1576.8928	20940.5	20026.4
896.3036	1578.6672	20892.3	19982.45
896.4461	1580.4409	20820.5	19910.6
896.5886	1582.2138	20767.45	19854.75
896.7311	1583.986	20724.45	19808.8
896.8736	1585.7575	20771.9	19857
897.0161	1587.5282	20733.85	19824.15
897.1585	1589.2981	20798.1	19887.65
897.3009	1591.0673	20804.4	19896.3
897.4433	1592.8358	20844.7	19935.9
897.5857	1594.6035	20866.95	19951.9
897.7281	1596.3704	20885.65	19971.25
897.8705	1598.1366	20889.75	19979.7
898.0128	1599.9021	20888.95	19977.25
898.1551	1601.6668	20899.8	19984.2
898.2975	1603.4308	20942.05	20029.2
898.4398	1605.194	21003	20087.6
898.5821	1606.9564	21094	20189.95
898.7243	1608.7182	21260.95	20355.3
898.8666	1610.4791	21449.6	20547.7
899.0088	1612.2394	21610.6	20709.95
899.1511	1613.9988	21787.35	20883.7
899.2933	1615.7576	22000.55	21094.8
899.4355	1617.5156	22145	21229.65
899.5776	1619.2728	22208.35	21296.25
899.7198	1621.0293	22133.95	21222.15
899.862	1622.785	21958.95	21050.9
900.0041	1624.54	21642.85	20738.15
900.1462	1626.2942	21377.5	20475.6
900.2883	1628.0477	20951.85	20044.9
900.4304	1629.8005	20689.6	19780.75
900.5725	1631.5525	20406.35	19502.2
900.7145	1633.3037	20127.2	19223.4
900.8566	1635.0542	19966.05	19059.35
900.9986	1636.804	19768.85	18861.7
901.1406	1638.553	19691.1	18734.35
901.2826	1640.3013	19536.35	18631.5
901.4245	1642.0488	19465.7	18560.75
901.5665	1643.7955	19468.15	18564.2
901.7085	1645.5416	19434.05	18531.65
901.8504	1647.2868	19532.45	18627.45
901.9923	1649.0313	19505.85	18597.75
902.1342	1650.7751	19620.65	18713.35
902.2761	1652.5181	19677.65	18772.5
902.4179	1654.2604	19725.55	18823
902.5598	1656.0019	19896.15	18992.8
902.7016	1657.7427	20060.95	19155.45
902.8434	1659.4828	20253.55	19349.05
902.9852	1661.222	20325.45	19419.8
903.127	1662.9606	20251.4	19345.5
903.2687	1664.6984	20048.05	19140.45
903.4105	1666.4354	19730.1	18818.7
903.5522	1668.1717	19267.05	18359.05
903.6939	1669.9072	18754.95	17845.9
903.8356	1671.642	18402.85	17492.85
903.9773	1673.3761	18063.75	17158.95
904.119	1675.1094	17764.6	16859.45
904.2606	1676.8419	17577.05	16672.8
904.4022	1678.5737	17373.75	16467.5
904.5439	1680.3048	17215.6	16308.85
904.6855	1682.0351	17075.1	16170.2
904.827	1683.7646	16929.4	16020.6
904.9686	1685.4934	16816.35	15909.35
905.1101	1687.2215	16710	15802.9
905.2517	1688.9488	16571.25	15666.45
905.3932	1690.6754	16477.05	15575.5
905.5347	1692.4012	16430	15523.45
905.6761	1694.1263	16370.2	15464.9
905.8176	1695.8506	16316.7	15410.4
905.9591	1697.5742	16248.9	15346.35
906.1005	1699.297	16161.15	15259.15
906.2419	1701.0191	16073.95	15173.65
906.3833	1702.7404	15980.15	15078.15
906.5246	1704.461	15919.55	15018.4
906.666	1706.1808	15837.5	14934.35
906.8073	1707.8999	15802.1	14900.7
906.9487	1709.6182	15743.85	14846.7
907.09	1711.3358	15674.05	14776.8
907.2313	1713.0527	15639.6	14743.2
907.3725	1714.7688	15562	14656.7
907.5138	1716.4841	15490.4	14587.85
907.655	1718.1987	15477.9	14570.7
907.7962	1719.9126	15408.9	14509.95
907.9374	1721.6257	15354.25	14454.4
908.0786	1723.338	15299.9	14401.55
908.2198	1725.0496	15211.55	14313.6
908.3609	1726.7605	15197.7	14298.85
908.502	1728.4706	15147.9	14244.95
908.6431	1730.18	15063.45	14164.2
908.7842	1731.8886	15049.3	14154.45
908.9253	1733.5964	15027.15	14122.5
909.0664	1735.3036	14986.35	14086.85
909.2074	1737.0099	14931.6	14032.45
909.3484	1738.7156	14882.45	13984.1
909.4894	1740.4204	14818.2	13915.6
909.6304	1742.1246	14801.9	13899.7
909.7714	1743.8279	14712.9	13813.65
909.9123	1745.5306	14685.65	13786.55
910.0532	1747.2325	14679.6	13782.95
910.1941	1748.9336	14593	13694
910.335	1750.634	14515.45	13614.1
910.4759	1752.3336	14509.3	13611.85
910.6168	1754.0325	14485.4	13590.2
910.7576	1755.7307	14433.75	13538
910.8984	1757.4281	14440.5	13539.8
911.0392	1759.1247	14426.7	13517.5
911.18	1760.8206	14405.45	13499.7
911.3208	1762.5158	14343.7	13437.7
911.4615	1764.2102	14308.85	13410.65
911.6022	1765.9039	14222.25	13323.45
911.7429	1767.5968	14219.4	13323.65
911.8836	1769.289	14167.3	13270.35
912.0243	1770.9804	14122.15	13224.5
912.1649	1772.6711	14119.2	13218.6
912.3056	1774.361	14074.55	13170.95
912.4462	1776.0502	14059.75	13159.05
912.5868	1777.7386	14065.5	13164.65
912.7274	1779.4263	13968.6	13069.7
912.8679	1781.1132	13974.9	13079.3
913.0084	1782.7994	13945.1	13049.85
913.149	1784.4849	13876.15	12981
913.2895	1786.1696	13819.3	12916.65
913.4299	1787.8535	13821.65	12926.9
913.5704	1789.5367	13787.4	12893.65
913.7108	1791.2192	13768.8	12873.9
913.8513	1792.9009	13750.95	12827.6
913.9917	1794.5818	13686.3	12784.95
914.132	1796.2621	13663.15	12763.85
914.2724	1797.9415	13643.35	12744.85
914.4128	1799.6202	13565.5	12668.45
914.5531	1801.2982	13558.3	12658.55
914.6934	1802.9755	13526.5	12626.6
914.8337	1804.6519	13490.45	12590.5
914.9739	1806.3277	13448.4	12551.95
915.1142	1808.0027	13374.75	12481
915.2544	1809.6769	13364.85	12470.55
915.3946	1811.3504	13293.8	12399.9
915.5348	1813.0231	13309.7	12416.2
915.675	1814.6951	13284.9	12389.35
915.8151	1816.3664	13272.15	12371.05
915.9553	1818.0369	13228.4	12330.75
916.0954	1819.7067	13186.65	12289.75
916.2355	1821.3757	13194.6	12296
916.3755	1823.044	13179.4	12282.8
916.5156	1824.7115	13133.05	12234.1
916.6556	1826.3783	13075.75	12178.55
916.7956	1828.0443	13047.65	12152.35
916.9356	1829.7096	13013.1	12115.65
917.0756	1831.3741	13022.65	12122.85
917.2155	1833.0379	12970.85	12074.3
917.3555	1834.701	12904.05	12009.6
917.4954	1836.3633	12923.7	12028.7
917.6353	1838.0248	12862.25	11964.35
917.7751	1839.6856	12842.8	11944.2
917.915	1841.3457	12840.8	11944.3
918.0548	1843.005	12814.15	11916.85
918.1946	1844.6636	12795.8	11899.45
918.3344	1846.3214	12745.7	11848.35
918.4742	1847.9785	12738.1	11841.65
918.6139	1849.6349	12719.8	11821.7
918.7537	1851.2904	12695.45	11784.9
918.8934	1852.9453	12657	11758.45
919.0331	1854.5994	12619	11719.15
919.1727	1856.2528	12627.45	11724.25
919.3124	1857.9054	12592.7	11697.2
919.452	1859.5572	12559.75	11662.3
919.5916	1861.2083	12547	11648.65
919.7312	1862.8587	12519.65	11622
919.8708	1864.5084	12499.6	11602.95
920.0103	1866.1572	12451.3	11552.25
920.1498	1867.8054	12378.45	11479.2
920.2893	1869.4528	12400.1	11498.75
920.4288	1871.0994	12370.4	11472
920.5683	1872.7453	12339.25	11441.6
920.7077	1874.3905	12294.35	11389.65
920.8471	1876.0349	12260.95	11362.1
920.9865	1877.6786	12253.25	11354.85
921.1259	1879.3215	12230	11333.05
921.2653	1880.9637	12207.1	11307.45
921.4046	1882.6051	12167.6	11271.3
921.5439	1884.2458	12172.6	11274.85
921.6832	1885.8858	12106.15	11209.4
921.8225	1887.525	12062.85	11165.4
921.9617	1889.1634	12016.45	11118.2
922.101	1890.8011	11993.6	11094.05
922.2402	1892.4381	11990	11091.6
922.3794	1894.0743	11993.35	11097.2
922.5185	1895.7098	11947.15	11048.85
922.6577	1897.3446	11905.9	11007.85
922.7968	1898.9786	11899.05	10996.25
922.9359	1900.6118	11887.25	10990.4
923.075	1902.2443	11791.35	10892.6
923.214	1903.8761	11771.45	10873.75
923.3531	1905.5071	11704.95	10808.45
923.4921	1907.1374	11695.95	10802.2
923.6311	1908.7669	11688.95	10793.35
923.77	1910.3957	11665.5	10770.4
923.909	1912.0237	11566	10671.5
924.0479	1913.651	11558.4	10661.2
924.1868	1915.2776	11514.3	10619.9
924.3257	1916.9034	11506.8	10610
924.4646	1918.5285	11458.35	10563.1
924.6034	1920.1528	11419.7	10524.2
924.7422	1921.7764	11382.05	10485.85
924.881	1923.3992	11353.45	10454.9
925.0198	1925.0213	11304.25	10408.55
925.1586	1926.6427	11244.9	10350.8
925.2973	1928.2633	11299.8	10325.3
925.436	1929.8832	11207.6	10311.1
925.5747	1931.5023	11149.6	10252.2
925.7134	1933.1207	11124.9	10227.85
925.852	1934.7383	11107.35	10210.55
925.9906	1936.3552	11060.1	10164.15
926.1292	1937.9714	11057.6	10161.9
926.2678	1939.5868	11021.4	10122.15
926.4064	1941.2015	10956.1	10056.8
926.5449	1942.8154	10912.1	10015.2
926.6834	1944.4286	10889.25	9992.4
926.8219	1946.041	10861.45	9941.95
926.9604	1947.6528	10790.3	9888.45
927.0988	1949.2637	10753.7	9857.5
927.2372	1950.8739	10746.75	9849.75
927.3756	1952.4834	10703.15	9806.7
927.514	1954.0921	10684.45	9789
927.6523	1955.7001	10662.2	9764.05
927.7907	1957.3074	10614.15	9721.5
927.929	1958.9139	10544.7	9652.55
928.0673	1960.5197	10539.55	9644.4
928.2055	1962.1247	10496.6	9602.7
928.3438	1963.729	10444	9551.2
928.482	1965.3325	10433.15	9515.75
928.6202	1966.9353	10413.4	9519.55
928.7584	1968.5374	10341.55	9447.8
928.8965	1970.1387	10318.15	9422.35
929.0346	1971.7393	10295.4	9399.15
929.1727	1973.3392	10284.5	9390.6
929.3108	1974.9383	10235.75	9342.75
929.4489	1976.5366	10185.05	9292.75
929.5869	1978.1342	10181.3	9289.45
929.7249	1979.7311	10150.75	9259.5
929.8629	1981.3273	10132.25	9241
930.0009	1982.9227	10097	9202.65
930.1388	1984.5173	10052.3	9163.25
930.2767	1986.1112	10035.15	9143
930.4146	1987.7044	9992.8	9101.8
930.5525	1989.2968	9955.75	9064.1
930.6904	1990.8885	9963.55	9068.5
930.8282	1992.4795	9921.65	9031.8
930.966	1994.0697	9889.3	8998.45
931.1038	1995.6592	9841.5	8953
931.2415	1997.2479	9813.2	8922.3
931.3793	1998.8359	9812	8923.8
931.517	2000.4232	9777.55	8889.7
931.6547	2002.0097	9727.9	8843.35
931.7923	2003.5955	9684.1	8794.4
931.93	2005.1805	9707.95	8817.45
932.0676	2006.7648	9668.05	8778.9
932.2052	2008.3484	9635.1	8745.35
932.3427	2009.9312	9646.65	8757.2
932.4803	2011.5133	9580	8692.65
932.6178	2013.0946	9558.85	8675.15
932.7553	2014.6752	9544.25	8656
932.8928	2016.2551	9545.9	8656.5
933.0302	2017.8342	9483.8	8593.3
933.1676	2019.4126	9446.25	8559.15
933.305	2020.9902	9403.55	8517.85
933.4424	2022.5672	9397.3	8507.65
933.5798	2024.1433	9391.35	8499.2
933.7171	2025.7188	9355.35	8467.3
933.8544	2027.2935	9327.2	8442.15
933.9917	2028.8674	9288.35	8402.8
934.129	2030.4406	9269.65	8385.75
934.2662	2032.0131	9237.2	8352.15
934.4034	2033.5849	9226.9	8338.45
934.5406	2035.1559	9193.25	8308.55
934.6778	2036.7261	9165	8277.2
934.8149	2038.2957	9141.45	8251.9
934.952	2039.8645	9131.9	8241.25
935.0891	2041.4325	9104.7	8211.4
935.2262	2042.9998	9087.4	8199.15
935.3632	2044.5664	9083.4	8193.05
935.5002	2046.1323	9051.3	8165.45
935.6372	2047.6974	9029.35	8144.35
935.7742	2049.2617	8997.75	8115.55
935.9111	2050.8254	8983.55	8071.95
936.048	2052.3883	8962.75	8072.9
936.1849	2053.9504	8937.55	8046.85
936.3218	2055.5118	8895.95	8007.25
936.4586	2057.0725	8864	7971.95
936.5955	2058.6325	8861.3	7974.8
936.7323	2060.1917	8818.05	7929.35
936.869	2061.7502	8808.7	7920.4
937.0058	2063.3079	8773.2	7888.15
937.1425	2064.8649	8735.8	7847.15
937.2792	2066.4212	8743.85	7855.15
937.4159	2067.9767	8735.65	7847.95
937.5525	2069.5315	8676.1	7787.5
937.6891	2071.0856	8617.35	7728.85
937.8257	2072.6389	8615.65	7729.25
937.9623	2074.1915	8588.65	7704
938.0989	2075.7433	8536.15	7648.95
938.2354	2077.2945	8520.05	7633.85
938.3719	2078.8448	8514.7	7626
938.5084	2080.3945	8472	7581.05
938.6448	2081.9434	8460.2	7570.6
938.7812	2083.4916	8437.65	7545.6
938.9176	2085.039	8438.35	7544.35
939.054	2086.5857	8395.5	7498.85
939.1903	2088.1317	8405.25	7510.3
939.3267	2089.677	8368.1	7473.35
939.463	2091.2215	8307.8	7415.15
939.5992	2092.7652	8297	7399.45
939.7355	2094.3083	8304.5	7411.55
939.8717	2095.8506	8256.9	7366.65
940.0079	2097.3921	8262.7	7372.5
940.1441	2098.933	8215.25	7325.9
940.2802	2100.4731	8221.7	7332.2
940.4163	2102.0124	8248.25	7348.9
940.5524	2103.5511	8190.75	7298.3
940.6885	2105.089	8169.85	7278.05
940.8245	2106.6261	8176.15	7285.7
940.9606	2108.1626	8121.6	7233.2
941.0965	2109.6983	8153.7	7233.95
941.2325	2111.2332	8121.15	7230.8
941.3684	2112.7675	8094.95	7203.9
941.5044	2114.301	8063.65	7171.25
941.6403	2115.8337	8047.2	7154.75
941.7761	2117.3657	8018.5	7126.2
941.912	2118.897	7992.6	7100.65
942.0478	2120.4276	7975.6	7077.5
942.1835	2121.9575	7947.25	7053.5
942.3193	2123.4866	7950.8	7056.65
942.455	2125.0149	7941	7047.65
942.5907	2126.5426	7903.1	7014.35
942.7264	2128.0695	7855.1	6961.6
942.8621	2129.5956	7852.95	6968.75
942.9977	2131.1211	7825.85	6934.05
943.1333	2132.6458	7808.95	6919.4
943.2689	2134.1698	7806.3	6914.15
943.4044	2135.693	7785.2	6889.15
943.54	2137.2155	7739.9	6846.8
943.6755	2138.7373	7735.4	6843.5
943.8109	2140.2584	7732	6841.65
943.9464	2141.7787	7705.05	6814.4
944.0818	2143.2983	7670.85	6785
944.2172	2144.8171	7619.55	6733.55
944.3526	2146.3353	7636.9	6747.75
944.4879	2147.8527	7591.2	6701.8
944.6232	2149.3693	7601.85	6709.05
944.7585	2150.8853	7559.3	6665.1
944.8938	2152.4005	7534.9	6642.85
945.029	2153.9149	7544.45	6652.35
945.1642	2155.4287	7583.05	6590.7
945.2994	2156.9417	7511	6617.35
945.4346	2158.454	7454.2	6560.35
945.5697	2159.9655	7434.5	6547.15
945.7048	2161.4764	7445.1	6556.45
945.8399	2162.9865	7416.95	6526.35
945.9749	2164.4958	7401.15	6510.2
946.1099	2166.0045	7370.95	6478.7
946.2449	2167.5124	7369.25	6480.2
946.3799	2169.0195	7316.85	6425
946.5148	2170.526	7315.2	6423.65
946.6498	2172.0317	7304.6	6414.9
946.7846	2173.5367	7291.35	6398.75
946.9195	2175.0409	7240.8	6350.05
947.0543	2176.5445	7260.95	6369.7
947.1891	2178.0473	7240.3	6343
947.3239	2179.5494	7208.8	6312.1
947.4587	2181.0507	7182.35	6289.85
947.5934	2182.5513	7144.15	6253
947.7281	2184.0512	7154.55	6262.4
947.8628	2185.5504	7138.8	6246.5
947.9974	2187.0488	7090.5	6202.05
948.132	2188.5465	7078.55	6190.7
948.2666	2190.0435	7036.65	6145.65
948.4012	2191.5397	7024.55	6134.7
948.5357	2193.0353	7022.6	6130.6
948.6702	2194.5301	6993.1	6099
948.8047	2196.0241	6973.85	6079.85
948.9392	2197.5175	6934.3	6036.9
949.0736	2199.0101	6922.8	6024.75
949.208	2200.502	6919.7	6027.95
949.3424	2201.9931	6864.75	5976
949.4767	2203.4835	6845.1	5954.65
949.611	2204.9733	6841.2	5935.15
949.7453	2206.4622	6808.95	5920.25
949.8796	2207.9505	6796.5	5903.35
950.0138	2209.438	6763.25	5877.7
950.148	2210.9248	6746.8	5856.85
950.2822	2212.4109	6708.7	5818.3
950.4164	2213.8962	6695.25	5799.65
950.5505	2215.3809	6706.45	5810.2
950.6846	2216.8648	6681.65	5784.45
950.8186	2218.3479	6665.45	5764.85
950.9527	2219.8304	6636.55	5739.25
951.0867	2221.3121	6616.05	5720.35
951.2207	2222.7931	6589.5	5695.65
951.3546	2224.2733	6579.7	5686.2
951.4886	2225.7529	6550.3	5658.75
951.6225	2227.2317	6510.35	5616.5
951.7563	2228.7098	6502.5	5611.8
951.8902	2230.1872	6482.85	5594.7
952.024	2231.6638	6472.45	5581.25
952.1578	2233.1397	6476.35	5584.2
952.2916	2234.6149	6438.7	5549.25
952.4253	2236.0894	6408.65	5519.5
952.559	2237.5632	6426	5531.7
952.6927	2239.0362	6384.1	5492.2
952.8263	2240.5085	6367.3	5475
952.9599	2241.9801	6346.45	5454.45
953.0935	2243.4509	6345.5	5451.2
953.2271	2244.921	6316.35	5423.15
953.3606	2246.3904	6298.8	5401.75
953.4941	2247.8591	6265.65	5373.2
953.6276	2249.3271	6247.45	5354.2
953.7611	2250.7943	6238.75	5344.65
953.8945	2252.2608	6210.85	5318.2
954.0279	2253.7266	6216.3	5323.4
954.1612	2255.1917	6188.9	5297.25
954.2946	2256.656	6137.55	5245.1
954.4279	2258.1197	6129.55	5240.3
954.5612	2259.5826	6129.2	5237.05
954.6944	2261.0447	6118.3	5224.3
954.8276	2262.5062	6096.25	5202.55
954.9608	2263.9669	6080.85	5185.4
955.094	2265.4269	6076.5	5184.3
955.2271	2266.8862	6053	5161.7
955.3602	2268.3448	6047.95	5156.95
955.4933	2269.8026	6030	5140.25
955.6264	2271.2598	6018.45	5127.85
955.7594	2272.7162	6009.4	5120.55
955.8924	2274.1719	5989.3	5096.3
956.0253	2275.6268	5984.9	5090.65
956.1583	2277.0811	5953.25	5058.55
956.2912	2278.5346	5947.4	5056.25
956.4241	2279.9874	5935.4	5045.25
956.5569	2281.4395	5933.65	5045.05
956.6897	2282.8908	5896.85	4998.75
956.8225	2284.3414	5889.45	4997.25
956.9553	2285.7914	5871.7	4976.7
957.088	2287.2406	5860.65	4965.7
957.2207	2288.689	5826.45	4931.95
957.3534	2290.1368	5830.4	4932.65
957.486	2291.5838	5797.4	4897.95
957.6186	2293.0302	5793.7	4895.05
957.7512	2294.4758	5767.7	4873.55
957.8838	2295.9206	5748.5	4854.45
958.0163	2297.3648	5727.2	4835.4
958.1488	2298.8082	5754.3	4861.85
958.2813	2300.251	5710.6	4817.25
958.4137	2301.693	5707.65	4810.15
958.5461	2303.1343	5679.75	4784.7
958.6785	2304.5748	5676.1	4783.2
958.8108	2306.0147	5645.5	4752.5
958.9432	2307.4538	5641.75	4747.1
959.0754	2308.8922	5634.4	4747.4
959.2077	2310.3299	5612.15	4723.75
959.3399	2311.7669	5587.8	4696.2
959.4721	2313.2031	5591.7	4698.3
959.6043	2314.6387	5569.5	4676.1
959.7365	2316.0735	5540.85	4649
959.8686	2317.5076	5527.9	4636.15
960.0006	2318.941	5534.8	4640.45
960.1327	2320.3737	5487.75	4592
960.2647	2321.8056	5495.25	4597.4
960.3967	2323.2369	5458.35	4563.5
960.5287	2324.6674	5453	4558.45
960.6606	2326.0972	5445.55	4552.3
960.7925	2327.5263	5404.05	4511.95
960.9244	2328.9547	5416.75	4523.5
961.0562	2330.3823	5407.95	4511.05
961.1881	2331.8092	5397.05	4498.8
961.3198	2333.2355	5382	4486.15
961.4516	2334.661	5353.75	4460.3
961.5833	2336.0858	5348.65	4453.5
961.715	2337.5098	5329.3	4436.15
961.8467	2338.9332	5332.6	4439.65
961.9783	2340.3558	5305.8	4411.1
962.1099	2341.7778	5283.95	4393.05
962.2415	2343.199	5251.3	4358
962.373	2344.6195	5257.1	4366.1
962.5045	2346.0393	5240.4	4348
962.636	2347.4583	5233.15	4338.9
962.7675	2348.8767	5241.35	4346.55
962.8989	2350.2943	5227.95	4331.15
963.0303	2351.7113	5200.2	4302.85
963.1617	2353.1275	5189.8	4292.35
963.293	2354.543	5199.6	4278.35
963.4243	2355.9578	5173.7	4277.95
963.5556	2357.3718	5140.2	4249.25
963.6868	2358.7852	5134.7	4240.2
963.818	2360.1978	5103.15	4210.35
963.9492	2361.6098	5076	4182.2
964.0803	2363.021	5065.7	4168.9
964.2114	2364.4315	5068.15	4175.55
964.3425	2365.8413	5055.75	4162
964.4736	2367.2504	5046.4	4155.1
964.6046	2368.6587	5000.95	4111.65
964.7356	2370.0664	5006.3	4112.8
964.8666	2371.4733	4978.5	4084.3
964.9975	2372.8795	4972.45	4078.55
965.1284	2374.285	4952.45	4057.75
965.2593	2375.6899	4937.75	4047.9
965.3901	2377.0939	4921.9	4029.6
965.5209	2378.4973	4909.85	4017.95
965.6517	2379.9	4898.8	4006.1
965.7825	2381.3019	4885.95	3994.95
965.9132	2382.7032	4855.25	3967.6
966.0439	2384.1037	4846	3958.05
966.1745	2385.5035	4832.75	3942.6
966.3051	2386.9027	4811.8	3923.55
966.4357	2388.3011	4828.15	3934.1
966.5663	2389.6987	4799.8	3909.85
966.6968	2391.0957	4770.5	3880.3
966.8273	2392.492	4767.35	3877.1
966.9578	2393.8876	4746.8	3857.8
967.0882	2395.2824	4722.25	3832.75
967.2186	2396.6765	4717.35	3828.3
967.349	2398.07	4700.3	3808.1
967.4793	2399.4627	4707.6	3814.2
967.6097	2400.8547	4684.45	3791.75
967.7399	2402.246	4685.8	3786.25
967.8702	2403.6366	4660.55	3767.6
968.0004	2405.0265	4651.5	3759.75
968.1306	2406.4156	4623.4	3727.15
968.2607	2407.8041	4598.6	3704.35
968.3909	2409.1918	4584.8	3691
968.521	2410.5789	4574.85	3684
968.651	2411.9652	4557.15	3660.95
968.781	2413.3508	4551.15	3659.5
968.911	2414.7358	4525.5	3631.45
969.041	2416.12	4524.3	3631.85
969.1709	2417.5035	4516.55	3624.05
969.3008	2418.8863	4513.7	3621.55
969.4307	2420.2684	4478.3	3587.15
969.5606	2421.6497	4455.5	3562.15
969.6904	2423.0304	4446.35	3552.4
969.8201	2424.4104	4416.8	3523.15
969.9499	2425.7896	4418	3525.45
970.0796	2427.1682	4397.6	3506.3
970.2093	2428.546	4404.35	3511.7
970.3389	2429.9232	4380.35	3487.6
970.4685	2431.2996	4374.05	3481
970.5981	2432.6753	4385.95	3494.7
970.7277	2434.0503	4354.9	3462.65
970.8572	2435.4246	4332.9	3440.15
970.9867	2436.7982	4324.65	3430.5
971.1161	2438.1711	4323.45	3430.5
971.2456	2439.5433	4291.15	3395.95
971.375	2440.9148	4286.3	3386.95
971.5043	2442.2856	4275.2	3384.35
971.6336	2443.6557	4275.1	3380.7
971.7629	2445.025	4255.9	3362.85
971.8922	2446.3937	4245.65	3351.45
972.0214	2447.7617	4237.8	3340.2
972.1506	2449.1289	4230.85	3338.4
972.2798	2450.4955	4223.4	3327.2
972.4089	2451.8613	4213.35	3323.4
972.538	2453.2265	4189.4	3297.65
972.6671	2454.5909	4196.9	3304.2
972.7961	2455.9546	4176.65	3286.15
972.9251	2457.3177	4155.65	3263.1
973.0541	2458.68	4157.6	3262.4
973.1831	2460.0416	4136.95	3243.3
973.312	2461.4025	4143.45	3249.75
973.4408	2462.7627	4126.6	3224.5
973.5697	2464.1222	4101.7	3211.3
973.6985	2465.4811	4104.3	3214.9
973.8273	2466.8392	4103.5	3213.25
973.956	2468.1966	4097.05	3203.4
974.0847	2469.5533	4088.45	3194.35
974.2134	2470.9093	4074.2	3180.6
974.3421	2472.2645	4053.9	3161.5
974.4707	2473.6191	4049.4	3157.65
974.5993	2474.973	4035.4	3142.55
974.7278	2476.3262	4035.95	3141.2
974.8563	2477.6787	4024.95	3131.2
974.9848	2479.0305	3995.3	3103.65
975.1132	2480.3816	3985.5	3092.6
975.2417	2481.7319	3969.7	3076.9
975.37	2483.0816	3964.7	3071.35
975.4984	2484.4306	3957.15	3066.25
975.6267	2485.7789	3930	3040.25
975.755	2487.1264	3921.5	3031.05
975.8833	2488.4733	3916.25	3024.2
976.0115	2489.8195	3922.5	3015.35
976.1397	2491.165	3893.3	2998.3
976.2678	2492.5097	3880.2	2988.1
976.3959	2493.8538	3863.4	2970.95
976.524	2495.1972	3856.05	2964.15
976.6521	2496.5398	3846	2952.15
976.7801	2497.8818	3841.5	2946.15
976.9081	2499.2231	3818.3	2924.4
977.036	2500.5637	3826.1	2932.7
977.164	2501.9035	3805.1	2912.2
977.2918	2503.2427	3796.2	2897.55
977.4197	2504.5812	3789.7	2896.85
977.5475	2505.919	3777.55	2881.7
977.6753	2507.256	3769.85	2876.9
977.8031	2508.5924	3747.35	2855.9
977.9308	2509.9281	3739.35	2842.5
978.0585	2511.2631	3732.65	2839.25
978.1861	2512.5974	3723.05	2829.25
978.3137	2513.9309	3704.3	2813.7
978.4413	2515.2638	3713.1	2794.55
978.5689	2516.596	3695.4	2802.45
978.6964	2517.9275	3678.25	2786
978.8239	2519.2583	3667.8	2773.2
978.9513	2520.5884	3661.45	2768.2
979.0788	2521.9178	3655.15	2762.15
979.2062	2523.2465	3645.65	2755.95
979.3335	2524.5745	3633.25	2741.65
979.4608	2525.9018	3617.25	2725
979.5881	2527.2284	3601.75	2710.85
979.7154	2528.5543	3604.45	2711.6
979.8426	2529.8796	3599.8	2706.05
979.9698	2531.2041	3597.05	2704.6
980.0969	2532.5279	3589.2	2698.7
980.224	2533.851	3568	2675.6
980.3511	2535.1735	3572.55	2679.05
980.4781	2536.4952	3559.95	2665.95
980.6052	2537.8163	3545.1	2651.5
980.7321	2539.1366	3537.4	2644.7
980.8591	2540.4562	3551.25	2657.1
980.986	2541.7752	3532	2635.9
981.1129	2543.0935	3525.75	2633.45
981.2397	2544.411	3513.35	2620.65
981.3665	2545.7279	3507.05	2616.45
981.4933	2547.0441	3514.2	2622.45
981.62	2548.3596	3503.6	2609.2
981.7467	2549.6744	3493.8	2600.6
981.8734	2550.9885	3489.7	2595.05
982.0001	2552.3019	3468.75	2574.6
982.1267	2553.6146	3468.2	2577.4
982.2532	2554.9266	3459.85	2566.6
982.3798	2556.2379	3456.85	2560.7
982.5063	2557.5485	3453.2	2564.25
982.6327	2558.8585	3442.95	2544.95
982.7592	2560.1677	3449.1	2554.7
982.8856	2561.4762	3420.25	2528.1
983.0119	2562.7841	3425.3	2529.8
983.1383	2564.0913	3407	2516.15
983.2646	2565.3977	3397.85	2505.4
983.3908	2566.7035	3406.95	2512.95
983.517	2568.0086	3414.05	2518.75
983.6432	2569.313	3407.85	2513.85
983.7694	2570.6167	3404.1	2507.2
983.8955	2571.9197	3363.25	2471.7
984.0216	2573.222	3370.25	2474
984.1476	2574.5236	3371.3	2477.75
984.2737	2575.8246	3357.05	2464.6
984.3996	2577.1248	3353.7	2457.45
984.5256	2578.4244	3359.1	2465.3
984.6515	2579.7232	3351.05	2458.35
984.7774	2581.0214	3363.4	2441.2
984.9032	2582.3189	3330.65	2437.25
985.029	2583.6157	3340.7	2442.9
985.1548	2584.9118	3323.45	2429.85
985.2806	2586.2072	3332.45	2441.4
985.4063	2587.5019	3300.45	2408.45
985.5319	2588.7959	3297.65	2403
985.6576	2590.0893	3297.45	2403.5
985.7832	2591.3819	3292	2399.4
985.9087	2592.6739	3278.85	2386.5
986.0343	2593.9652	3282.9	2388.55
986.1597	2595.2557	3263.9	2371.75
986.2852	2596.5456	3273.5	2378.35
986.4106	2597.8348	3265.4	2373.5
986.536	2599.1234	3249.75	2357.75
986.6614	2600.4112	3237.05	2345.2
986.7867	2601.6983	3234.8	2340.9
986.912	2602.9848	3227.7	2335.95
987.0372	2604.2705	3211.2	2315.4
987.1624	2605.5556	3208.3	2315.4
987.2876	2606.84	3199.95	2308.85
987.4128	2608.1237	3171.45	2278.85
987.5379	2609.4067	3160.45	2267.4
987.6629	2610.689	3175.05	2273.5
987.788	2611.9707	3168.95	2273.5
987.913	2613.2516	3156.55	2260.4
988.0379	2614.5319	3144.55	2253.55
988.1629	2615.8115	3123.2	2231.3
988.2878	2617.0903	3104.7	2212.35
988.4126	2618.3685	3103.55	2211.35
988.5375	2619.6461	3087.75	2196.1
988.6622	2620.9229	3096.6	2206.5
988.787	2622.199	3087.75	2196.7
988.9117	2623.4745	3077.55	2186.5
989.0364	2624.7493	3073	2182.05
989.161	2626.0234	3075.45	2184.2
989.2857	2627.2968	3050.4	2158.7
989.4102	2628.5695	3033.75	2141.75
989.5348	2629.8415	3037.1	2145.05
989.6593	2631.1128	3030.8	2137.55
989.7837	2632.3835	3021.65	2130.7
989.9082	2633.6535	2994.95	2105.7
990.0326	2634.9228	3002.35	2111.65
990.1569	2636.1914	2998.15	2105.65
990.2812	2637.4593	2982.85	2090.95
990.4055	2638.7265	2991.7	2099.25
990.5298	2639.9931	2966.45	2074.2
990.654	2641.259	2972.5	2081.6
990.7782	2642.5242	2958.8	2070.05
990.9023	2643.7887	2951.5	2059.85
991.0264	2645.0525	2948.85	2057.6
991.1505	2646.3156	2956.95	2048.85
991.2745	2647.5781	2942.05	2049.85
991.3985	2648.8398	2937.1	2046.55
991.5225	2650.1009	2930.2	2016.2
991.6464	2651.3613	2923.05	2032.8
991.7703	2652.6211	2895.5	2005.8
991.8942	2653.8801	2890.6	2001.6
992.018	2655.1385	2901.1	2007.45
992.1418	2656.3961	2889.9	1998.15
992.2655	2657.6531	2880.75	1988.55
992.3892	2658.9094	2875.75	1984.35
992.5129	2660.1651	2867.9	1975.95
992.6366	2661.42	2875	1985.75
992.7602	2662.6743	2860.6	1969.25
992.8837	2663.9279	2868.85	1978.55
993.0073	2665.1808	2849.9	1958.6
993.1307	2666.433	2846.85	1954.9
993.2542	2667.6846	2848.75	1958.75
993.3776	2668.9354	2851.25	1959
993.501	2670.1856	2846.75	1956.45
993.6244	2671.4351	2849.05	1958.85
993.7477	2672.6839	2844.75	1955.7
993.8709	2673.9321	2826.65	1935.15
993.9942	2675.1795	2817.4	1928.25
994.1174	2676.4263	2816.85	1927.1
994.2405	2677.6724	2803.75	1913.95
994.3637	2678.9179	2821.3	1931.9
994.4868	2680.1626	2804.2	1912.6
994.6098	2681.4067	2799.1	1908.05
994.7328	2682.6501	2788.8	1897
994.8558	2683.8928	2776.95	1885.55
994.9788	2685.1348	2776.9	1886.75
995.1017	2686.3761	2753.85	1864.5
995.2245	2687.6168	2751.45	1863.35
995.3474	2688.8568	2754.3	1863.35
995.4702	2690.0961	2750.9	1862.25
995.5929	2691.3348	2735.85	1845
995.7156	2692.5727	2730.8	1839.55
995.8383	2693.81	2725.3	1833.75
995.961	2695.0466	2713.15	1825.25
996.0836	2696.2826	2712	1822.25
996.2062	2697.5178	2722.35	1829.3
996.3287	2698.7524	2706.05	1817.75
996.4512	2699.9863	2696.05	1803.55
996.5737	2701.2195	2684.4	1792.95
996.6961	2702.452	2697.7	1805.95
996.8185	2703.6839	2687.7	1797.35
996.9408	2704.9151	2688.8	1800.45
997.0631	2706.1456	2690.1	1801.05
997.1854	2707.3755	2678.75	1787.65
997.3077	2708.6046	2685.6	1792.75
997.4299	2709.8331	2680.55	1789.35
997.552	2711.0609	2681	1791.45
997.6742	2712.2881	2669.9	1780.25
997.7963	2713.5145	2676.05	1784.05
997.9183	2714.7403	2678.6	1789
998.0403	2715.9654	2682.15	1790.25
998.1623	2717.1899	2695.15	1790.3
998.2842	2718.4136	2674.15	1783.05
998.4062	2719.6367	2686.65	1797.4
998.528	2720.8591	2690.65	1794.85
998.6498	2722.0809	2681.35	1791.05
998.7716	2723.3019	2681.75	1789.95
998.8934	2724.5223	2689.7	1801.45
999.0151	2725.7421	2685.5	1794.75
999.1368	2726.9611	2682.1	1788.9
999.2584	2728.1795	2682.1	1788.65
999.38	2729.3972	2665.1	1773.25
999.5016	2730.6142	2654.95	1757.4
999.6231	2731.8306	2628.75	1737.45
999.7446	2733.0462	2613.2	1721.4
999.8661	2734.2612	2602.95	1709.6
999.9875	2735.4756	2592.8	1701.35
1000.1089	2736.6892	2561	1671.4
1000.2302	2737.9022	2545.75	1657.4
1000.3515	2739.1145	2536.35	1646.55
1000.4728	2740.3262	2526.75	1629.15
1000.594	2741.5372	2518.3	1628.75
1000.7152	2742.7475	2495.95	1605.85
1000.8363	2743.9571	2506.05	1613.4
1000.9575	2745.1661	2493.8	1600.15
1001.0785	2746.3744	2469.9	1578.55
1001.1996	2747.582	2464.8	1576.55
1001.3206	2748.7889	2451.75	1561.9
1001.4415	2749.9952	2442.25	1553.7
1001.5625	2751.2008	2430.95	1539.05
1001.6833	2752.4057	2420.1	1528.95
1001.8042	2753.61	2415.55	1524.65
1001.925	2754.8136	2406.6	1516.05
1002.0458	2756.0165	2402.25	1513.25
1002.1665	2757.2188	2395	1508.45
1002.2872	2758.4204	2403.15	1513.75
1002.4078	2759.6213	2390.25	1500.35
1002.5285	2760.8215	2377.4	1485.45
1002.649	2762.0211	2376.9	1485.55
1002.7696	2763.22	2377.45	1484.45
1002.8901	2764.4182	2371.45	1479.6
1003.0106	2765.6158	2358.05	1469.6
1003.131	2766.8127	2358.55	1469.35
1003.2514	2768.009	2348.2	1458.75
1003.3717	2769.2045	2347.5	1458.1
1003.492	2770.3994	2343.7	1453.15
1003.6123	2771.5936	2329.25	1437.95
1003.7325	2772.7872	2325.7	1438.3
1003.8527	2773.9801	2314.25	1423.3
1003.9729	2775.1723	2323.9	1417.55
1004.093	2776.3639	2303.05	1414.3
1004.2131	2777.5548	2305	1414.3
1004.3331	2778.745	2299.1	1406.95
1004.4531	2779.9346	2292.65	1403.9
1004.5731	2781.1235	2282.6	1393.65
1004.693	2782.3117	2282.15	1394.45
1004.8129	2783.4992	2285.9	1397.4
1004.9328	2784.6861	2278.9	1391.3
1005.0526	2785.8723	2291.35	1403.65
1005.1723	2787.0579	2273.5	1383
1005.2921	2788.2428	2278	1387.9
1005.4118	2789.427	2274.95	1387.1
1005.5314	2790.6106	2266.85	1379.15
1005.651	2791.7935	2275.05	1387.2
1005.7706	2792.9757	2273.8	1386
1005.8902	2794.1573	2272.5	1383
1006.0097	2795.3382	2287.05	1397.05
1006.1291	2796.5184	2271.05	1380.85
1006.2485	2797.698	2285.15	1393.85
1006.3679	2798.8769	2291.1	1402.95
1006.4873	2800.0551	2293.4	1404.85
1006.6066	2801.2327	2291.45	1400.25
1006.7258	2802.4096	2300.9	1412.9
1006.8451	2803.5859	2306.2	1417.25
1006.9642	2804.7615	2322.15	1435.15
1007.0834	2805.9364	2332.7	1444.1
1007.2025	2807.1106	2334.35	1445.65
1007.3216	2808.2842	2356.3	1468.2
1007.4406	2809.4572	2373.5	1485.9
1007.5596	2810.6294	2394.65	1506.4
1007.6785	2811.801	2405.85	1519.75
1007.7975	2812.972	2432.6	1544.6
1007.9163	2814.1423	2463.9	1577.45
1008.0352	2815.3119	2492	1603.9
1008.154	2816.4808	2521.25	1635.45
1008.2727	2817.6491	2566	1675.9
1008.3914	2818.8167	2597.7	1710.35
1008.5101	2819.9837	2633.75	1741.1
1008.6288	2821.15	2662.4	1773.8
1008.7474	2822.3157	2693.65	1808.75
1008.8659	2823.4807	2748.25	1859.65
1008.9844	2824.645	2787.05	1898.1
1009.1029	2825.8086	2826.7	1940.7
1009.2214	2826.9716	2860.1	1972.4
1009.3398	2828.134	2892.7	2006.75
1009.4581	2829.2957	2923.6	2035.8
1009.5764	2830.4567	2951.1	2063.55
1009.6947	2831.617	2963.65	2074.55
1009.813	2832.7767	2978.45	2091.3
1009.9312	2833.9358	2962.75	2075.9
1010.0493	2835.0941	2961.95	2072.45
1010.1675	2836.2519	2955.8	2067.05
1010.2855	2837.4089	2923.95	2034.9
1010.4036	2838.5653	2915.65	2026.65
1010.5216	2839.7211	2898.65	2013.55
1010.6396	2840.8761	2908.2	2020.85
1010.7575	2842.0306	2902.25	2016.6
1010.8754	2843.1843	2916	2029.25
1010.9932	2844.3374	2944.65	2058
1011.111	2845.4899	2974.55	2085.45
1011.2288	2846.6417	3014.15	2127.25
1011.3465	2847.7928	3056.1	2169.7
1011.4642	2848.9433	3086.15	2200.3
1011.5818	2850.0931	3127.15	2238.95
1011.6995	2851.2422	3180.2	2291.25
1011.817	2852.3907	3233.65	2343.75
1011.9345	2853.5385	3269.95	2380.1
1012.052	2854.6857	3290.85	2396.2
1012.1695	2855.8323	3331.55	2444.6
1012.2869	2856.9781	3367.9	2480.6
1012.4042	2858.1233	3401.15	2515.45
1012.5216	2859.2679	3443.95	2556.7
1012.6389	2860.4118	3480.9	2594.5
1012.7561	2861.555	3509.15	2616.75
1012.8733	2862.6976	3539.6	2651.1
1012.9905	2863.8395	3552.15	2664.15
1013.1076	2864.9808	3572.75	2686.05
1013.2247	2866.1214	3582.3	2695.55
1013.3417	2867.2614	3601.55	2714.75
1013.4587	2868.4007	3596.9	2708.55
1013.5757	2869.5393	3611	2722.3
1013.6926	2870.6773	3618.1	2728.1
1013.8095	2871.8146	3624.35	2733.4
1013.9263	2872.9513	3631.25	2741
1014.0431	2874.0874	3612.65	2722.65
1014.1599	2875.2227	3596.2	2709.15
1014.2766	2876.3574	3574.65	2687.05
1014.3933	2877.4915	3553.45	2667.6
1014.51	2878.6249	3534.95	2649.6
1014.6266	2879.7577	3518.35	2630.1
1014.7431	2880.8898	3514.95	2616.05
1014.8596	2882.0212	3493.15	2605.35
1014.9761	2883.152	3467.65	2580.65
1015.0925	2884.2821	3461.45	2577.6
1015.2089	2885.4116	3466.5	2580.6
1015.3253	2886.5405	3455.55	2569.5
1015.4416	2887.6686	3459.5	2569.8
1015.5579	2888.7962	3434.05	2548.85
1015.6741	2889.923	3455.55	2572.35
1015.7903	2891.0493	3453.65	2567.75
1015.9065	2892.1748	3469.45	2583.95
1016.0226	2893.2997	3463.75	2576.25
1016.1387	2894.424	3460.05	2574.9
1016.2547	2895.5476	3470.15	2583.85
1016.3707	2896.6706	3482.3	2595
1016.4866	2897.7929	3495.8	2608.65
1016.6025	2898.9145	3506.7	2619.95
1016.7184	2900.0355	3534.95	2648.3
1016.8342	2901.1559	3547.4	2659.25
1016.95	2902.2756	3571.7	2684.65
1017.0658	2903.3946	3605.1	2720.7
1017.1815	2904.513	3613.85	2723.15
1017.2971	2905.6308	3626.3	2738.9
1017.4127	2906.7479	3653.1	2765.65
1017.5283	2907.8643	3646.8	2758.9
1017.6439	2908.9801	3668.35	2783.1
1017.7594	2910.0953	3651.1	2764.45
1017.8748	2911.2098	3661.45	2771.2
1017.9902	2912.3236	3657.9	2764.05
1018.1056	2913.4368	3635.9	2747.8
1018.2209	2914.5494	3616.9	2730.75
1018.3362	2915.6613	3595	2702.25
1018.4515	2916.7725	3567.45	2678.15
1018.5667	2917.8831	3550.7	2662.3
1018.6819	2918.9931	3528.6	2638.95
1018.797	2920.1024	3499.25	2614.35
1018.9121	2921.211	3476.35	2592.8
1019.0271	2922.319	3461.25	2572.35
1019.1421	2923.4264	3457.85	2572.4
1019.2571	2924.5331	3432.9	2549.95
1019.372	2925.6391	3439.6	2556.2
1019.4869	2926.7445	3438.8	2552.55
1019.6017	2927.8493	3440.55	2553.45
1019.7165	2928.9534	3431.25	2542.9
1019.8313	2930.0569	3433.3	2543.75
1019.946	2931.1597	3434.45	2547.1
1020.0606	2932.2619	3438.55	2554.65
1020.1753	2933.3634	3425.6	2538.75
1020.2899	2934.4643	3442.1	2549.2
1020.4044	2935.5645	3432.75	2540.4
1020.5189	2936.6641	3395.5	2505.3
1020.6334	2937.763	3365.5	2480.45
1020.7478	2938.8613	3349.1	2463.4
1020.8622	2939.959	3311.25	2422.7
1020.9765	2941.056	3270.25	2384.55
1021.0908	2942.1523	3209.9	2322.2
1021.2051	2943.248	3147.4	2260.9
1021.3193	2944.3431	3079.5	2193.2
1021.4334	2945.4375	2996.5	2110.15
1021.5476	2946.5313	2916.85	2032.1
1021.6617	2947.6244	2839.25	1951.3
1021.7757	2948.7169	2772.8	1887.3
1021.8897	2949.8087	2700.8	1814.2
1022.0037	2950.8999	2637.85	1751.8
1022.1176	2951.9904	2567.1	1681.9
1022.2315	2953.0803	2523.1	1635.5
1022.3453	2954.1696	2471.5	1585.15
1022.4591	2955.2582	2430.05	1545.95
1022.5728	2956.3462	2379.15	1496.1
1022.6865	2957.4335	2352.7	1465.1
1022.8002	2958.5202	2333.75	1444.7
1022.9138	2959.6062	2302.35	1417.7
1023.0274	2960.6916	2287.85	1403.45
1023.141	2961.7764	2276.2	1390.4
1023.2545	2962.8605	2258.05	1371.8
1023.3679	2963.9439	2238.05	1353.9
1023.4813	2965.0267	2223.4	1337.8
1023.5947	2966.1089	2250.25	1342.8
1023.708	2967.1905	2211.9	1326
1023.8213	2968.2714	2220.9	1335.9
1023.9346	2969.3516	2202.2	1317.4
1024.0478	2970.4312	2219.85	1324.65
1024.1609	2971.5102	2204.45	1318.5
1024.274	2972.5885	2209.5	1323.4
1024.3871	2973.6662	2208.3	1317.2
1024.5002	2974.7432	2202.35	1317.9
1024.6132	2975.8196	2200.75	1315.65
1024.7261	2976.8954	2183.35	1298.3
1024.839	2977.9705	2186.5	1300.05
1024.9519	2979.045	2176.45	1291.4
1025.0647	2980.1188	2158.6	1274.45
1025.1775	2981.192	2148.45	1262.75
1025.2902	2982.2645	2133.75	1245.85
1025.4029	2983.3364	2111	1223.45
1025.5156	2984.4077	2088.65	1202.35
1025.6282	2985.4783	2077.65	1186
1025.7407	2986.5483	2050.9	1167.05
1025.8532	2987.6177	2023.5	1137.25
1025.9657	2988.6864	1993	1105.65
1026.0782	2989.7545	1972.85	1085.15
1026.1906	2990.8219	1936.35	1052.85
1026.3029	2991.8887	1918.55	1030.15
1026.4152	2992.9548	1892.65	1007.4
1026.5275	2994.0204	1857.9	972.85
1026.6397	2995.0852	1843.95	959.65
1026.7519	2996.1495	1823.65	936.55
1026.864	2997.2131	1800.25	916.5
1026.9761	2998.276	1781.6	895.25
1027.0882	2999.3383	1761.55	875.8
1027.2002	3000.4	1739.5	854.9
1027.3122	3001.4611	1730.45	845
1027.4241	3002.5215	1706.1	822.4
1027.536	3003.5812	1693.65	807.85
1027.6478	3004.6404	1683.65	796.55
1027.7596	3005.6989	1673.55	786.75
1027.8714	3006.7567	1664.25	777.25
1027.9831	3007.8139	1662.5	757.7
1028.0947	3008.8705	1642.8	756.95
1028.2064	3009.9264	1648.4	747.45
1028.3179	3010.9818	1639.15	755.75
1028.4295	3012.0364	1623.9	738
1028.541	3013.0905	1623.85	740.55
1028.6524	3014.1439	1608.45	723.15
1028.7638	3015.1966	1608.55	724.45
1028.8752	3016.2487	1598.5	714.55
1028.9865	3017.3002	1596.5	704.65
1029.0978	3018.3511	1597.7	712.3
1029.209	3019.4013	1581.65	696.4
1029.3202	3020.4509	1578.75	694.75
1029.4314	3021.4998	1584.1	699.95
1029.5425	3022.5481	1585.2	701.05
1029.6535	3023.5958	1574.45	688.3
1029.7645	3024.6428	1577.35	692.15
1029.8755	3025.6892	1576.6	689.65
1029.9864	3026.735	1580.75	695.55
1030.0973	3027.7802	1565.3	680.9
1030.2082	3028.8247	1560.2	675.45
1030.319	3029.8685	1568.4	681.85
1030.4297	3030.9118	1559.35	672.65
1030.5404	3031.9544	1564.9	682
1030.6511	3032.9963	1557.85	671.4
1030.7617	3034.0376	1568.45	683.9
1030.8723	3035.0783	1565	678.8
1030.9829	3036.1184	1569.25	681.85
1031.0934	3037.1578	1568.1	683.1
1031.2038	3038.1966	1564.3	678.35
1031.3142	3039.2348	1564.9	681.4
1031.4246	3040.2723	1564.5	672.8
1031.5349	3041.3092	1562.6	676.85
1031.6452	3042.3455	1561.3	676.2
1031.7554	3043.3811	1557.2	672.85
1031.8656	3044.4161	1553.5	669.55
1031.9758	3045.4505	1551.95	668.6
1032.0859	3046.4842	1544.15	658
1032.1959	3047.5173	1543.8	660.25
1032.3059	3048.5498	1539.1	653.35
1032.4159	3049.5816	1536.5	651.45
1032.5258	3050.6128	1533.85	650.05
1032.6357	3051.6434	1529	641.15
1032.7455	3052.6734	1519.4	635.75
1032.8553	3053.7027	1517.7	632.45
1032.9651	3054.7314	1513.85	627.5
1033.0748	3055.7594	1510.15	625.95
1033.1845	3056.7868	1510.05	624.6
1033.2941	3057.8136	1506.45	623.75
1033.4037	3058.8398	1497.45	614.1
1033.5132	3059.8653	1497.1	610.75
1033.6227	3060.8902	1487.05	601.65
1033.7321	3061.9145	1488.9	604.45
1033.8415	3062.9381	1489.45	603.4
1033.9509	3063.9612	1494.05	594.05
1034.0602	3064.9835	1475.15	591
1034.1694	3066.0053	1475.4	586.8
1034.2787	3067.0264	1474.2	589.65
1034.3878	3068.0469	1466.65	580.35
1034.497	3069.0668	1466.2	579.75
1034.6061	3070.086	1457.55	575.6
1034.7151	3071.1046	1457.95	570.6
1034.8241	3072.1226	1447.8	562.3
1034.9331	3073.1399	1447.5	563.7
1035.042	3074.1567	1433.8	548.25
1035.1508	3075.1727	1436	549.95
1035.2597	3076.1882	1413.4	528.6
1035.3684	3077.203	1420.7	535.65
1035.4772	3078.2173	1415.95	529.4
1035.5859	3079.2308	1402.45	513.4
1035.6945	3080.2438	1397.95	510.25
1035.8031	3081.2561	1388.4	503.05
1035.9117	3082.2678	1384.75	498.9
1036.0202	3083.2789	1379.85	495.35
1036.1286	3084.2893	1372.35	487.3
1036.2371	3085.2991	1370.4	485.85
1036.3454	3086.3083	1365.5	477.2
1036.4538	3087.3169	1359.3	474.85
1036.562	3088.3248	1351.9	465.65
1036.6703	3089.3321	1352.5	465.6
1036.7785	3090.3388	1342.65	457.75
1036.8866	3091.3449	1334.9	450.15
1036.9948	3092.3503	1338.3	453.1
1037.1028	3093.3551	1334.15	452.75
1037.2108	3094.3593	1331.1	446.7
1037.3188	3095.3629	1326.15	442.3
1037.4267	3096.3658	1320.8	435.3
1037.5346	3097.3681	1318.1	435.1
1037.6425	3098.3698	1321.05	434.2
1037.7503	3099.3708	1319.55	429.95
1037.858	3100.3713	1303.95	420.65
1037.9657	3101.3711	1301.95	418.6
1038.0734	3102.3702	1429.35	403.4
1038.181	3103.3688	1298.65	411.7
1038.2886	3104.3667	1295.05	412.5
1038.3961	3105.364	1286.65	404.2
1038.5036	3106.3607	1290.95	404.3
1038.611	3107.3568	1283	398.9
1038.7184	3108.3522	1277.25	393.6
1038.8257	3109.347	1282.9	397
1038.933	3110.3412	1281.25	394.05
1039.0403	3111.3348	1277.25	392.75
1039.1475	3112.3277	1268.1	384.2
1039.2547	3113.32	1266.8	381.95
1039.3618	3114.3117	1266.65	381.5
1039.4689	3115.3028	1257.35	372.9
1039.5759	3116.2932	1261.1	373.65
1039.6829	3117.2831	1252.2	362.15
1039.7898	3118.2723	1256.15	372.85
1039.8967	3119.2608	1247.55	362.6
1040.0035	3120.2488	1254.6	370.6
1040.1103	3121.2361	1246.85	362.6
1040.2171	3122.2229	1242.2	359.45
1040.3238	3123.209	1242.55	357.7
1040.4305	3124.1944	1234.05	351.95
1040.5371	3125.1793	1234.35	350.25
1040.6437	3126.1635	1231.65	349.15
1040.7502	3127.1471	1235.95	352.65
1040.8567	3128.1301	1224.6	339.15
1040.9631	3129.1125	1226.1	341.6
1041.0695	3130.0942	1221.15	337.85
1041.1759	3131.0753	1232.25	341.35
1041.2822	3132.0558	1225.85	340.8
1041.3884	3133.0357	1216.1	330.8
1041.4946	3134.015	1220.3	335.25
1041.6008	3134.9936	1219.6	335.7
1041.7069	3135.9716	1235.85	331.5
1041.813	3136.949	1212.5	329.4
1041.919	3137.9258	1232.75	328.7
1042.025	3138.902	1213.65	322.15
1042.1309	3139.8775	1206.75	322.25
1042.2368	3140.8524	1209.05	325.55
1042.3427	3141.8267	1205.05	318.9
1042.4485	3142.8004	1207	322.7
1042.5542	3143.7735	1206.95	317.9
1042.6599	3144.7459	1202.5	317.05
1042.7656	3145.7178	1198.9	314.95
1042.8712	3146.689	1192.65	310.1
1042.9768	3147.6596	1191.6	305.55
1043.0823	3148.6295	1188.9	304.25
1043.1878	3149.5989	1196.9	312.8
1043.2932	3150.5676	1190.7	308.95
1043.3986	3151.5357	1184	300.35
1043.5039	3152.5032	1183.8	300.25
1043.6092	3153.4701	1184.3	300.75
1043.7145	3154.4364	1184.65	299.4
1043.8197	3155.402	1176.4	293.35
1043.9248	3156.367	1177.6	293.35
1044.03	3157.3315	1207.2	289.35
1044.135	3158.2952	1170.05	285.75
1044.24	3159.2584	1173.8	290.8
1044.345	3160.221	1173.9	289.6
1044.4499	3161.1829	1170.7	284.6
1044.5548	3162.1442	1167.25	283.9
1044.6596	3163.105	1160.3	276.95
1044.7644	3164.065	1160.3	275.55
1044.8692	3165.0245	1166.9	280.95
1044.9739	3165.9834	1158.8	275.05
1045.0785	3166.9416	1162.5	278.9
1045.1831	3167.8993	1154.4	268.75
1045.2877	3168.8563	1148.85	263.5
1045.3922	3169.8127	1155.6	271.45
1045.4966	3170.7684	1153.6	270
1045.6011	3171.7236	1155.95	272.8
1045.7054	3172.6782	1151.75	268.75
1045.8098	3173.6321	1143.4	260.75
1045.914	3174.5854	1151.2	262.4
1046.0183	3175.5381	1147.4	264.15
1046.1224	3176.4902	1142.5	258.55
1046.2266	3177.4417	1143.15	259.75
1046.3307	3178.3926	1136.25	252.05
1046.4347	3179.3428	1140.65	258.45
1046.5387	3180.2924	1134.6	250.95
1046.6427	3181.2415	1134.25	249.3
1046.7466	3182.1899	1139.6	253.5
1046.8504	3183.1377	1132.85	250.45
1046.9542	3184.0848	1135.2	248.3
1047.058	3185.0314	1129	244.25
1047.1617	3185.9773	1134.35	251.5
1047.2654	3186.9227	1128.4	241.65
1047.369	3187.8674	1133.05	249.3
1047.4726	3188.8115	1128.75	239.5
1047.5761	3189.755	1115.9	229.25
1047.6796	3190.6979	1124.5	241.65
1047.783	3191.6402	1116.7	233.9
1047.8864	3192.5818	1120	236.7
1047.9898	3193.5229	1124.35	234.65
1048.0931	3194.4633	1120.15	236.35
1048.1963	3195.4031	1118.1	232.95
1048.2995	3196.3423	1109.6	226.65
1048.4027	3197.2809	1115.45	231.45
1048.5058	3198.2189	1115.4	233.5
1048.6089	3199.1563	1117.4	226.6
1048.7119	3200.0931	1109.35	228.35
1048.8148	3201.0292	1109.25	226.4
1048.9178	3201.9648	1109.1	226.25
1049.0206	3202.8997	1109.35	222.4
1049.1235	3203.834	1107.75	225.6
1049.2262	3204.7677	1104.5	219.2
1049.329	3205.7008	1105.85	219.4
1049.4317	3206.6333	1100.7	218.7
1049.5343	3207.5652	1101.8	217.3
1049.6369	3208.4964	1101.55	218.2
1049.7394	3209.4271	1097.15	215.1
1049.8419	3210.3571	1100.1	216.65
1049.9444	3211.2865	1099.25	217.2
1050.0468	3212.2154	1096	212.05
1050.1491	3213.1436	1098.45	212.35
1050.2514	3214.0712	1099.55	210.2
1050.3537	3214.9982	1092.55	208.25
1050.4559	3215.9246	1090.05	206.6
1050.5581	3216.8503	1090.5	209.05
1050.6602	3217.7755	1087.65	204.75
1050.7623	3218.7001	1086.6	204.25
1050.8643	3219.624	1086.45	203.1
1050.9663	3220.5473	1086.2	201.8
1051.0682	3221.4701	1085.6	202.2
1051.1701	3222.3922	1084.7	197.15
1051.2719	3223.3137	1085.2	203
1051.3737	3224.2346	1078.95	197.2
1051.4754	3225.1549	1082.9	200
1051.5771	3226.0746	1079.7	198.2
1051.6788	3226.9937	1083.85	198.7
1051.7804	3227.9121	1077.7	195.6
1051.8819	3228.83	1078.4	196.65
1051.9834	3229.7473	1076.75	193.85
1052.0849	3230.6639	1076	193.6
1052.1863	3231.5799	1075.35	191.45
1052.2876	3232.4954	1072.55	188.85
1052.3889	3233.4102	1069.1	185.15
1052.4902	3234.3244	1069.8	185.15
1052.5914	3235.238	1069.65	186.6
1052.6926	3236.151	1090.65	183.75
1052.7937	3237.0634	1064.35	184.8
1052.8948	3237.9752	1060.7	178.05
1052.9958	3238.8864	1061.3	178.05
1053.0968	3239.797	1060.8	180.4
1053.1977	3240.7069	1062.35	179.45
1053.2986	3241.6163	1059	174
1053.3994	3242.5251	1059.95	178.35
1053.5002	3243.4332	1055.3	172.95
1053.6009	3244.3408	1057.15	173.45
1053.7016	3245.2477	1055.2	170.65
1053.8022	3246.154	1053.55	171.05
1053.9028	3247.0598	1051.45	168.65
1054.0034	3247.9649	1053.3	168.35
1054.1039	3248.8694	1052.55	168.5
1054.2043	3249.7733	1051.8	168.05
1054.3047	3250.6766	1046.5	163.1
1054.4051	3251.5793	1050.55	167.5
1054.5054	3252.4814	1048.2	164.1
1054.6056	3253.3829	1044.9	160.95
1054.7058	3254.2838	1047.75	165.15
1054.806	3255.1841	1044.3	163.6
1054.9061	3256.0838	1045.45	163.05
1055.0061	3256.9829	1040.25	157.9
1055.1062	3257.8814	1040.95	155.65
1055.2061	3258.7792	1035.15	148.75
1055.306	3259.6765	1037.35	152.7
1055.4059	3260.5731	1034.55	152.25
1055.5057	3261.4692	1035.25	150.7
1055.6055	3262.3647	1033.95	147.7
1055.7052	3263.2595	1027.4	145.65
1055.8049	3264.1538	1025.9	141.85
1055.9045	3265.0474	1031.35	147.6
1056.0041	3265.9404	1024.45	142.75
1056.1036	3266.8329	1017.65	138.25
1056.2031	3267.7247	1029.2	135.8
1056.3025	3268.616	1014.35	131.65
1056.4019	3269.5066	1013.65	131.9
1056.5013	3270.3966	1009.05	124.2
1056.6005	3271.286	1004.9	122.15
