Software Version:	3.9.2.0
Unit SN:	10000200
Spectrometer SN:	6960
Date:	3/26/2024 2:15:12 PM
Data Line Index:	25
Spectral Points:	2048
Integration time (ms):	125
Averages:	20
Delay (ms):	30000
Sequence Number:	1
Processing:	dark subtract
Laser Power (mW):	300
Laser Current (mA):	820
Laser Diode Temp (C):	25
Laser Case Temp (C):	27.6
System Temp (C):	27.6
Spectrometer Temp (C):	25.5
CCD Temp (C):	0.004
Secondary Temp (C):	20.001
Heatsink Temp (C):	22.878
CCDPCB Temp (C):	37.041
SecondaryPCB Temp (C):	34.551

Wavelength	RamanShift	Raw Counts	Dark Subtracted
787.061	30.1047	687.05	277.3
787.2016	32.3739	696	288.75
787.3422	34.6426	713.85	304.85
787.4828	36.9109	735.75	324.4
787.6235	39.1787	758	341.55
787.7642	41.4461	789.15	368.95
787.9049	43.7131	814.95	391.95
788.0456	45.9796	840.05	412.15
788.1863	48.2456	877.4	444.95
788.3271	50.5112	912.65	477.95
788.4679	52.7764	939.85	501.8
788.6087	55.0411	968.55	527.85
788.7496	57.3054	1009.65	564.05
788.8904	59.5692	1048.45	597.7
789.0313	61.8326	1094.2	642.15
789.1722	64.0955	1134.6	678.6
789.3132	66.3579	1190.45	729.7
789.4541	68.6199	1257.65	793.3
789.5951	70.8815	1361.3	894.85
789.7361	73.1426	1605.1	1136.2
789.8771	75.4032	2182.4	1703.2
790.0181	77.6634	3633.1	3147
790.1592	79.9231	7308.8	6814.95
790.3003	82.1824	15772.5	15259.8
790.4414	84.4412	38778.7	38227.85
790.5825	86.6995	64733.8	64135.4
790.7237	88.9574	65535	64888.2
790.8648	91.2148	65535	64853.9
791.006	93.4717	65535	64833.55
791.1472	95.7282	65535	64823.5
791.2885	97.9842	65535	64814.9
791.4297	100.2398	65535	64816.8
791.571	102.4949	65535	64815.6
791.7123	104.7495	65535	64811.45
791.8536	107.0036	65535	64807.75
791.9949	109.2573	65535	64809.95
792.1363	111.5105	65535	64802.45
792.2777	113.7632	65535	64805.55
792.4191	116.0154	65535	64792.7
792.5605	118.2672	65535	64798.15
792.7019	120.5185	65535	64799.1
792.8434	122.7693	65535	64793.95
792.9849	125.0197	65535	64795.4
793.1264	127.2696	65535	64791.8
793.2679	129.519	65535	64785.1
793.4094	131.7679	65535	64781.35
793.551	134.0163	65535	64777.55
793.6926	136.2642	65535	64773.75
793.8342	138.5117	65535	64769.7
793.9758	140.7587	65535	64769.15
794.1175	143.0052	65535	64772.9
794.2591	145.2512	65535	64769.95
794.4008	147.4967	65535	64769.6
794.5425	149.7417	65535	64770
794.6842	151.9863	65535	64768.9
794.826	154.2304	65535	64755.85
794.9677	156.4739	65535	64755.5
795.1095	158.717	65535	64752.6
795.2513	160.9596	65535	64750.8
795.3931	163.2017	65535	64745.4
795.535	165.4433	65535	64742.5
795.6768	167.6844	65535	64745.75
795.8187	169.925	65535	64742.75
795.9606	172.1651	65535	64745.95
796.1025	174.4047	65535	64740
796.2445	176.6439	65535	64739.85
796.3864	178.8825	65535	64739.7
796.5284	181.1206	65535	64730.05
796.6704	183.3582	65535	64722.35
796.8124	185.5954	65535	64722.4
796.9544	187.832	65535	64718.25
797.0965	190.0681	65535	64722.2
797.2386	192.3037	65535	64716
797.3806	194.5388	65535	64712.5
797.5228	196.7734	65535	64706.25
797.6649	199.0075	65535	64705.45
797.807	201.2411	65535	64699.4
797.9492	203.4742	65535	64703.5
798.0914	205.7068	65535	64700.1
798.2336	207.9389	65535	64700.4
798.3758	210.1704	65535	64701.2
798.518	212.4015	65535	64694.65
798.6603	214.632	65535	64696.85
798.8025	216.862	65535	64706.95
798.9448	219.0915	65535	64712.15
799.0871	221.3205	65535	64713.7
799.2294	223.549	65535	64714.5
799.3718	225.777	65535	64714.6
799.5141	228.0044	65535	64718.8
799.6565	230.2314	65535	64717.45
799.7989	232.4578	65535	64718.1
799.9413	234.6837	65535	64712.75
800.0837	236.909	65535	64703.95
800.2262	239.1339	65535	64680.55
800.3687	241.3582	65535	64697.45
800.5111	243.582	65535	64661.85
800.6536	245.8053	65535	64679.7
800.7961	248.0281	65535	64679.1
800.9387	250.2503	65535	64679.15
801.0812	252.472	65535	64672.15
801.2238	254.6932	65535	64670.65
801.3664	256.9139	65535	64671.1
801.509	259.134	65535	64667.5
801.6516	261.3536	65535	64663.85
801.7942	263.5727	65535	64661.8
801.9369	265.7912	65535	64668.9
802.0795	268.0092	65535	64671.05
802.2222	270.2267	65535	64665.4
802.3649	272.4436	65535	64664.5
802.5076	274.6601	65535	64657.65
802.6504	276.8759	65535	64668.05
802.7931	279.0913	65535	64661.55
802.9359	281.3061	65535	64663.9
803.0787	283.5204	65535	64655.1
803.2215	285.7341	65535	64654.15
803.3643	287.9473	65535	64642.55
803.5071	290.16	65535	64646.6
803.6499	292.3721	65535	64653.75
803.7928	294.5837	65535	64648.6
803.9357	296.7947	65535	64649.9
804.0786	299.0052	65535	64646.25
804.2215	301.2152	65535	64653.75
804.3644	303.4246	65535	64658.2
804.5074	305.6334	65535	64655.85
804.6503	307.8418	65535	64652.95
804.7933	310.0495	65535	64656.8
804.9363	312.2568	65535	64646.75
805.0793	314.4635	65535	64641.5
805.2223	316.6696	65535	64644.95
805.3653	318.8752	65535	64637.4
805.5084	321.0802	65535	64644.4
805.6514	323.2847	65535	64641
805.7945	325.4887	65535	64640.9
805.9376	327.692	65535	64641.6
806.0807	329.8949	65535	64642.45
806.2238	332.0972	65535	64641.75
806.367	334.2989	65535	64636.95
806.5101	336.5001	65535	64635.4
806.6533	338.7007	65535	64635
806.7965	340.9008	65535	64639.55
806.9397	343.1003	65535	64635.45
807.0829	345.2992	65535	64633.5
807.2261	347.4976	65535	64632.5
807.3693	349.6955	65535	64624.9
807.5126	351.8927	65535	64623.5
807.6559	354.0895	65535	64614.55
807.7991	356.2856	65535	64625
807.9424	358.4812	65535	64627.9
808.0857	360.6763	65535	64621.05
808.2291	362.8707	65535	64619.95
808.3724	365.0646	65535	64623
808.5158	367.258	65535	64622.9
808.6591	369.4508	65535	64622.1
808.8025	371.643	65535	64619.1
808.9459	373.8346	65535	64619.15
809.0893	376.0257	65535	64611.8
809.2327	378.2162	65535	64616.5
809.3762	380.4062	65535	64615.7
809.5196	382.5956	65535	64611.95
809.6631	384.7844	65535	64615.45
809.8066	386.9726	65535	64617.25
809.9501	389.1603	65535	64613.9
810.0936	391.3474	65535	64587.45
810.2371	393.5339	65535	64613.7
810.3806	395.7199	65535	64616.2
810.5241	397.9052	65535	64612.65
810.6677	400.09	65535	64620.15
810.8113	402.2743	65535	64624.3
810.9548	404.4579	65535	64624.6
811.0984	406.641	65535	64623.9
811.2421	408.8235	65535	64624.15
811.3857	411.0054	65535	64621.45
811.5293	413.1868	65535	64613.55
811.673	415.3675	65535	64613.95
811.8166	417.5477	65535	64612.25
811.9603	419.7273	65535	64613.95
812.104	421.9064	65535	64607.5
812.2477	424.0848	65535	64612.15
812.3914	426.2627	65535	64610.8
812.5351	428.4399	65535	64612.7
812.6788	430.6166	65535	64604.4
812.8226	432.7928	65535	64605.25
812.9663	434.9683	65535	64607.1
813.1101	437.1432	65535	64607.75
813.2539	439.3176	65535	64614.15
813.3977	441.4914	65535	64618.95
813.5415	443.6645	65535	64609.4
813.6853	445.8371	65535	64609.6
813.8291	448.0091	65535	64608.95
813.973	450.1806	65535	64611.5
814.1168	452.3514	65535	64615.6
814.2607	454.5216	65535	64607.7
814.4046	456.6913	65535	64610.25
814.5485	458.8603	65535	64612.25
814.6924	461.0288	65535	64615.45
814.8363	463.1967	65535	64615.75
814.9802	465.3639	65535	64609.85
815.1241	467.5306	65535	64609.6
815.2681	469.6967	65535	64616.45
815.412	471.8622	65535	64615.1
815.556	474.0271	65535	64616.2
815.7	476.1914	65535	64609.55
815.844	478.3551	65535	64606.45
815.988	480.5182	65535	64615.9
816.132	482.6807	65535	64619.65
816.276	484.8426	65535	64629.8
816.4201	487.0039	65535	64623.9
816.5641	489.1647	65535	64611.35
816.7082	491.3248	65535	64608.8
816.8522	493.4843	65535	64611.8
816.9963	495.6432	65535	64615
817.1404	497.8015	65535	64599.35
817.2845	499.9592	65535	64597.6
817.4286	502.1163	65535	64598.65
817.5727	504.2728	65535	64605.95
817.7168	506.4287	65535	64620.3
817.861	508.5839	65535	64617.2
818.0051	510.7386	65535	64610.55
818.1493	512.8927	65535	64597.65
818.2935	515.0461	65535	64604.35
818.4377	517.199	65535	64601.35
818.5818	519.3512	65535	64596.95
818.726	521.5029	65535	64600.4
818.8703	523.6539	65535	64602.85
819.0145	525.8043	65535	64600.3
819.1587	527.9541	65535	64598.35
819.303	530.1033	65535	64597.75
819.4472	532.2519	65535	64600.5
819.5915	534.3999	65535	64597.7
819.7357	536.5472	65535	64603.25
819.88	538.694	65535	64607.25
820.0243	540.8401	65535	64599.45
820.1686	542.9856	65535	64590.5
820.3129	545.1305	65535	64578.25
820.4572	547.2748	65535	64576.55
820.6016	549.4185	65535	64574.65
820.7459	551.5615	65535	64581.2
820.8902	553.704	65535	64584.8
821.0346	555.8458	65535	64585.35
821.1789	557.987	65535	64587.6
821.3233	560.1276	65535	64584.05
821.4677	562.2675	65535	64581.05
821.6121	564.4069	65535	64587.55
821.7565	566.5456	65535	64586.3
821.9009	568.6837	65535	64588.75
822.0453	570.8212	65535	64590.6
822.1897	572.958	65535	64596.45
822.3342	575.0942	65535	64599.35
822.4786	577.2299	65535	64603.55
822.6231	579.3648	65535	64612.3
822.7675	581.4992	65535	64625.9
822.912	583.6329	65535	64624.1
823.0565	585.766	65535	64621
823.201	587.8985	65535	64615.25
823.3454	590.0304	65535	64588.35
823.4899	592.1616	65535	64590.8
823.6345	594.2922	65535	64588.6
823.779	596.4222	65535	64588.95
823.9235	598.5515	65535	64584.85
824.068	600.6802	65535	64585.1
824.2126	602.8083	65535	64588.8
824.3571	604.9358	65535	64589.25
824.5017	607.0626	65535	64585.8
824.6462	609.1888	65535	64576.8
824.7908	611.3144	65535	64583.3
824.9354	613.4393	65535	64581.85
825.08	615.5636	65535	64573.7
825.2246	617.6873	65535	64576.85
825.3692	619.8103	65535	64581.85
825.5138	621.9327	65535	64583.25
825.6584	624.0544	65535	64587.8
825.803	626.1756	65535	64591.15
825.9477	628.2961	65535	64584.55
826.0923	630.4159	65535	64582.2
826.237	632.5351	65535	64582.55
826.3816	634.6537	65535	64579.4
826.5263	636.7716	65535	64574.1
826.6709	638.8889	65535	64573.7
826.8156	641.0056	65535	64571.1
826.9603	643.1216	65535	64574.85
827.105	645.237	65535	64574.45
827.2497	647.3518	65535	64588
827.3944	649.4659	65535	64591.2
827.5391	651.5793	65535	64590
827.6838	653.6922	65535	64588.35
827.8285	655.8043	65535	64586.6
827.9733	657.9159	65535	64584.4
828.118	660.0268	65535	64583.4
828.2627	662.137	65535	64579.15
828.4075	664.2466	65535	64573.6
828.5522	666.3556	65535	64575.15
828.697	668.4639	65535	64579.55
828.8418	670.5716	65535	64589.75
828.9865	672.6786	65535	64583.7
829.1313	674.785	65535	64576.8
829.2761	676.8907	65535	64583.05
829.4209	678.9958	65535	64589.15
829.5657	681.1002	65535	64576.65
829.7105	683.204	65535	64572.75
829.8553	685.3072	65535	64570.4
830.0001	687.4097	65535	64579.4
830.1449	689.5115	65535	64575.25
830.2898	691.6127	65535	64579.55
830.4346	693.7132	65535	64584.9
830.5794	695.8131	65535	64559.35
830.7243	697.9123	65535	64570.85
830.8691	700.0109	65535	64571.25
831.014	702.1089	65535	64575.05
831.1588	704.2061	65535	64579.05
831.3037	706.3028	65535	64572.35
831.4486	708.3987	65535	64576.05
831.5935	710.4941	65535	64575.05
831.7383	712.5887	65535	64574.8
831.8832	714.6827	65535	64571.25
832.0281	716.7761	65535	64581.7
832.173	718.8688	65535	64578.35
832.3179	720.9608	65535	64568.85
832.4628	723.0522	65535	64566.95
832.6077	725.1429	65535	64570
832.7527	727.233	65535	64572.4
832.8976	729.3224	65535	64576.3
833.0425	731.4112	65535	64573.3
833.1874	733.4993	65535	64570.55
833.3324	735.5867	65535	64573.05
833.4773	737.6735	65535	64573.6
833.6222	739.7596	65535	64569.95
833.7672	741.845	65535	64577.85
833.9122	743.9298	65535	64573.7
834.0571	746.014	65535	64573.6
834.2021	748.0974	65535	64566.1
834.347	750.1802	65535	64562.9
834.492	752.2624	65535	64567.55
834.637	754.3439	65535	64566.15
834.782	756.4247	65535	64559.6
834.9269	758.5048	65535	64566.3
835.0719	760.5843	65535	64566.75
835.2169	762.6631	65535	64565.85
835.3619	764.7413	65535	64567.2
835.5069	766.8188	65535	64567.05
835.6519	768.8956	65535	64562.2
835.7969	770.9718	65535	64568.35
835.9419	773.0473	65535	64566.15
836.0869	775.1221	65535	64567.85
836.232	777.1962	65535	64569.1
836.377	779.2697	65535	64568.75
836.522	781.3426	65535	64551
836.667	783.4147	65535	64563.6
836.8121	785.4862	65535	64566.5
836.9571	787.557	65535	64565.45
837.1021	789.6271	65535	64558.85
837.2472	791.6966	65535	64567.95
837.3922	793.7654	65535	64563.1
837.5373	795.8335	65535	64566.3
837.6823	797.901	65535	64570.45
837.8274	799.9678	65535	64562.4
837.9724	802.0339	65535	64561.05
838.1175	804.0993	65535	64554.65
838.2626	806.1641	65535	64567.75
838.4076	808.2282	65535	64566.25
838.5527	810.2916	65535	64564
838.6978	812.3544	65535	64570
838.8428	814.4164	65535	64570.3
838.9879	816.4778	65535	64558.65
839.133	818.5385	65535	64555.95
839.2781	820.5986	65535	64559.4
839.4232	822.658	65535	64563.45
839.5682	824.7166	65535	64563.55
839.7133	826.7747	65535	64565.9
839.8584	828.832	65535	64562.95
840.0035	830.8886	65535	64559.65
840.1486	832.9446	65535	64557.75
840.2937	834.9999	65535	64566.4
840.4388	837.0545	65535	64559.25
840.5839	839.1085	65535	64562.25
840.729	841.1618	65535	64558.2
840.8741	843.2143	65535	64561.75
841.0192	845.2662	65535	64562.7
841.1643	847.3175	65535	64564.75
841.3095	849.368	65535	64560.75
841.4546	851.4179	65535	64562.15
841.5997	853.467	65535	64567.05
841.7448	855.5155	65535	64564.45
841.8899	857.5633	65535	64562.35
842.0351	859.6105	65535	64561.85
842.1802	861.6569	65535	64560.9
842.3253	863.7027	65535	64559.6
842.4704	865.7478	65535	64563.9
842.6156	867.7922	65535	64561.15
842.7607	869.8359	65535	64560.6
842.9058	871.8789	65535	64563.65
843.0509	873.9212	65535	64528.65
843.1961	875.9629	65535	64562.75
843.3412	878.0039	65535	64559.6
843.4863	880.0441	65535	64560.3
843.6315	882.0837	65535	64559.35
843.7766	884.1226	65535	64556.45
843.9218	886.1609	65535	64562.05
844.0669	888.1984	65535	64562.1
844.212	890.2352	65535	64561.95
844.3572	892.2714	65535	64559.3
844.5023	894.3069	65535	64561.55
844.6475	896.3416	65535	64560.9
844.7926	898.3757	65535	64562.7
844.9377	900.4091	65535	64561.35
845.0829	902.4418	65535	64557.55
845.228	904.4739	65535	64560.2
845.3732	906.5052	65535	64557.1
845.5183	908.5358	65535	64562.25
845.6635	910.5658	65535	64553.6
845.8086	912.595	65535	64561.35
845.9538	914.6236	65519.85	64544.85
846.0989	916.6515	65535	64559.55
846.2441	918.6786	65519.9	64542.8
846.3892	920.7051	65527.55	64552.4
846.5344	922.7309	65524.85	64550.25
846.6795	924.756	65528.6	64555.3
846.8246	926.7804	65522.8	64545.65
846.9698	928.8041	65478.1	64502.3
847.1149	930.8272	65515.2	64541.85
847.2601	932.8495	65515.85	64541.35
847.4052	934.8711	65477.95	64502.15
847.5504	936.892	65447.95	64473.35
847.6955	938.9123	65478.6	64499.3
847.8407	940.9318	65448.2	64471.8
847.9858	942.9506	65430.55	64453.6
848.131	944.9688	65435.2	64465.25
848.2761	946.9862	65327.25	64354.05
848.4213	949.003	65383.2	64408.7
848.5664	951.019	65256.55	64284
848.7115	953.0344	65290.05	64311.95
848.8567	955.0491	65249.25	64272.45
849.0018	957.063	65311.7	64334.05
849.147	959.0763	65336.55	64355.35
849.2921	961.0888	65173.05	64197.45
849.4373	963.1007	65292.7	64322.7
849.5824	965.1119	65307.6	64343.4
849.7275	967.1223	65188.3	64232.8
849.8727	969.1321	65326.6	64365.65
850.0178	971.1412	65114.75	64153.35
850.1629	973.1495	65041.65	64072.5
850.3081	975.1572	65187.25	64160.2
850.4532	977.1641	65047.8	64073.4
850.5983	979.1704	65045.3	64067.85
850.7435	981.1759	65050.15	64073.15
850.8886	983.1808	64882.5	63909.2
851.0337	985.1849	64912.55	63928.95
851.1788	987.1884	64991.6	64015.8
851.324	989.1911	65104.9	64130.35
851.4691	991.1932	64607.05	63635.85
851.6142	993.1945	64798.05	63825.7
851.7593	995.1951	64965.7	63991.2
851.9045	997.1951	64613.65	63634.85
852.0496	999.1943	64570.6	63599.2
852.1947	1001.1928	64349.3	63373.55
852.3398	1003.1906	64541.8	63569.3
852.4849	1005.1877	63909.05	62936.45
852.63	1007.1841	63806.6	62834.15
852.7751	1009.1798	63826.45	62857.05
852.9202	1011.1748	63754.1	62781.8
853.0653	1013.1691	63610.75	62637.4
853.2104	1015.1627	62096.2	61127.65
853.3555	1017.1556	62857.25	61893.65
853.5006	1019.1477	63036.55	62070.85
853.6457	1021.1392	62378	61415.4
853.7908	1023.1299	61442.35	60484.1
853.9359	1025.12	62128.85	61177.3
854.081	1027.1093	61630.2	60690.3
854.2261	1029.0979	61606.25	60670.7
854.3712	1031.0859	61513.35	60569.2
854.5163	1033.0731	60757.8	59801.6
854.6613	1035.0596	61128.25	60163.05
854.8064	1037.0454	60901.35	59937.75
854.9515	1039.0304	60420.6	59453.3
855.0965	1041.0148	59491.65	58522.45
855.2416	1042.9985	59741.8	58770
855.3867	1044.9814	60225.4	59258.95
855.5317	1046.9636	59270	58302.1
855.6768	1048.9452	59380.25	58418.9
855.8219	1050.926	59138.1	58171.9
855.9669	1052.9061	59101	58136.25
856.112	1054.8855	59131.45	58158.1
856.257	1056.8642	58690.2	57720.8
856.4021	1058.8421	58360.25	57386.3
856.5471	1060.8194	58419.75	57447.15
856.6921	1062.7959	58045.7	57074.95
856.8372	1064.7717	58461.35	57487.8
856.9822	1066.7469	58090.8	57125.5
857.1272	1068.7213	58049.3	57078.25
857.2723	1070.695	57677	56710.75
857.4173	1072.6679	57187.5	56220.45
857.5623	1074.6402	57424.2	56455.25
857.7073	1076.6117	57002.55	56025.35
857.8523	1078.5826	56959.25	55989
857.9973	1080.5527	57043.2	56072.8
858.1423	1082.5221	56758.8	55791.4
858.2873	1084.4908	56999.9	56030.5
858.4323	1086.4587	56905.05	55938.45
858.5773	1088.426	57005.25	56037.1
858.7223	1090.3925	56801	55828.35
858.8673	1092.3584	56663.3	55695.8
859.0123	1094.3235	56036.2	55069.85
859.1573	1096.2879	55887.4	54922.6
859.3022	1098.2515	55898.55	54930.65
859.4472	1100.2145	55629.05	54662.2
859.5922	1102.1767	55492.9	54523.35
859.7371	1104.1382	55696.1	54732.35
859.8821	1106.099	55577.05	54609.9
860.027	1108.0591	55510.25	54545.8
860.172	1110.0185	55086.6	54119.2
860.3169	1111.9771	55503.25	54535.6
860.4619	1113.9351	54974.8	54012.25
860.6068	1115.8923	54451.1	53484.1
860.7517	1117.8488	53893.4	52925.8
860.8967	1119.8045	53335.35	52370.1
861.0416	1121.7596	53308.9	52344.85
861.1865	1123.7139	52968.3	52004.75
861.3314	1125.6675	52979.5	52017
861.4763	1127.6204	52852.75	51886.45
861.6212	1129.5726	52498.6	51534.05
861.7661	1131.524	52696.35	51729.35
861.911	1133.4748	52683.7	51718.1
862.0559	1135.4248	52351.7	51383.5
862.2008	1137.3741	52303.55	51339.15
862.3457	1139.3226	52130.75	51164.25
862.4905	1141.2705	52047.4	51083.3
862.6354	1143.2176	51761.05	50789.3
862.7803	1145.164	51528.65	50559.3
862.9251	1147.1097	51472.8	50509.75
863.07	1149.0546	51492.55	50520.5
863.2148	1150.9989	51398.8	50437.05
863.3597	1152.9424	50945.85	49981.15
863.5045	1154.8852	50788.35	49824.85
863.6493	1156.8272	50389.6	49427.05
863.7942	1158.7686	50479.4	49510.55
863.939	1160.7092	49918.1	48951.95
864.0838	1162.6491	49818.2	48853.3
864.2286	1164.5883	49857.2	48893.6
864.3734	1166.5267	49663.75	48696.25
864.5182	1168.4644	49820.75	48854.1
864.663	1170.4014	49803.95	48834.2
864.8078	1172.3377	50063.45	49105.65
864.9526	1174.2732	50165.85	49205.75
865.0974	1176.2081	50061.2	49095.6
865.2421	1178.1421	50036.6	49072.5
865.3869	1180.0755	50266.5	49303.9
865.5317	1182.0082	49926.6	48964.75
865.6764	1183.9401	49844.25	48886.1
865.8212	1185.8713	49432.5	48475.45
865.9659	1187.8017	49057.85	48109.6
866.1106	1189.7315	48810.5	47872.65
866.2554	1191.6605	48335.95	47395.25
866.4001	1193.5888	47901.45	46956.3
866.5448	1195.5163	47693	46741.3
866.6895	1197.4432	47423	46466.9
866.8342	1199.3693	47271.5	46311.5
866.9789	1201.2947	47003.55	46034.5
867.1236	1203.2193	46853.8	45896.7
867.2683	1205.1432	46670.55	45712.05
867.413	1207.0664	46545.55	45583.2
867.5576	1208.9889	46475.35	45513.8
867.7023	1210.9106	46423.15	45466.2
867.847	1212.8316	46285	45330.5
867.9916	1214.7519	46267.1	45298.35
868.1363	1216.6715	46093.3	45138.6
868.2809	1218.5903	46005.2	45046.7
868.4255	1220.5084	45753.5	44794.65
868.5701	1222.4257	45683.4	44726.05
868.7148	1224.3424	45324.15	44369.4
868.8594	1226.2583	45306.8	44348.75
869.004	1228.1735	45298.7	44338.5
869.1486	1230.0879	45159.45	44198.45
869.2932	1232.0016	45180.5	44222.65
869.4377	1233.9146	44981.85	44018.35
869.5823	1235.8269	44827.85	43868.1
869.7269	1237.7384	44704.15	43746.65
869.8715	1239.6492	44271.95	43315.6
870.016	1241.5592	44067.85	43110.15
870.1606	1243.4686	43779.35	42818.55
870.3051	1245.3772	43627.3	42668.6
870.4496	1247.285	43443.8	42483
870.5941	1249.1922	43166.55	42208.5
870.7387	1251.0986	43094.15	42136.5
870.8832	1253.0042	42900.8	41948.85
871.0277	1254.9092	42882.5	41924.7
871.1722	1256.8134	42817.7	41862.85
871.3167	1258.7169	42921.45	41967.55
871.4611	1260.6196	42923.4	41968.85
871.6056	1262.5216	43015.55	42057
871.7501	1264.4229	43058.95	42102.05
871.8945	1266.3234	43106.65	42152.25
872.039	1268.2232	43024.7	42066.9
872.1834	1270.1223	42849.75	41891.8
872.3278	1272.0207	42752.45	41791.4
872.4723	1273.9183	42593.85	41631.15
872.6167	1275.8151	42421.25	41468.05
872.7611	1277.7113	42243.4	41290.85
872.9055	1279.6067	41962.6	41007.4
873.0499	1281.5014	41659.35	40704.25
873.1943	1283.3953	41475.55	40517.55
873.3386	1285.2885	41259	40305
873.483	1287.181	41102.9	40149.15
873.6274	1289.0727	41035.75	40085.25
873.7717	1290.9637	40927.8	39974.05
873.9161	1292.854	41044.05	40089.9
874.0604	1294.7435	40990.55	40038.4
874.2047	1296.6323	41152.55	40194.55
874.349	1298.5204	41330.2	40374.05
874.4933	1300.4077	41512.65	40555.35
874.6376	1302.2943	41609.95	40656.7
874.7819	1304.1802	41661.95	40706.6
874.9262	1306.0653	41367.65	40409.05
875.0705	1307.9497	41165.95	40214.25
875.2147	1309.8333	41051.4	40099.85
875.359	1311.7162	40957.6	40003.5
875.5032	1313.5984	40992.25	40034.4
875.6475	1315.4798	40947.65	39981.95
875.7917	1317.3605	41127.05	40169.55
875.9359	1319.2405	41185.25	40232.6
876.0801	1321.1197	41149	40193.05
876.2243	1322.9982	40910.5	39954.95
876.3685	1324.876	40943.75	39990.6
876.5127	1326.753	40799.55	39846.4
876.6569	1328.6293	40795.1	39838.95
876.801	1330.5048	40801.6	39847.7
876.9452	1332.3796	40673.35	39718.65
877.0893	1334.2537	40540.8	39562.75
877.2335	1336.127	40349.85	39395.25
877.3776	1337.9996	40241.95	39288.25
877.5217	1339.8714	40077.75	39120.25
877.6658	1341.7426	39907.35	38905.9
877.8099	1343.6129	39858.35	38902.3
877.954	1345.4826	39677.4	38724.1
878.0981	1347.3515	39615.5	38656.55
878.2422	1349.2196	39474.85	38520.2
878.3862	1351.087	39374.05	38421.05
878.5303	1352.9537	39351.25	38395.65
878.6743	1354.8197	39430.8	38474.3
878.8184	1356.6849	39559.05	38607
878.9624	1358.5493	39481.4	38529.8
879.1064	1360.4131	39405.35	38451.75
879.2504	1362.276	39236.05	38285.15
879.3944	1364.1383	38986.25	38034.2
879.5384	1365.9998	38645.5	37685.35
879.6823	1367.8606	38210.75	37258.15
879.8263	1369.7206	37946.7	36991.45
879.9702	1371.5799	37672	36717.2
880.1142	1373.4384	37446.8	36494.85
880.2581	1375.2962	37310.45	36358.95
880.402	1377.1533	36844.75	35893.35
880.5459	1379.0096	36410.45	35462.8
880.6898	1380.8652	36070.6	35125.1
880.8337	1382.7201	35784.2	34834.3
880.9776	1384.5742	35435.3	34485.95
881.1215	1386.4275	35171.95	34219.15
881.2653	1388.2802	34979.15	34030.4
881.4092	1390.132	34722.3	33772.25
881.553	1391.9832	34654.2	33701.45
881.6968	1393.8336	34416	33464.15
881.8406	1395.6832	34282.3	33326.05
881.9844	1397.5322	34111.15	33162.1
882.1282	1399.3803	33981.25	33029.05
882.272	1401.2278	33748.45	32800.75
882.4158	1403.0745	33689.2	32741.15
882.5595	1404.9204	33530.55	32583.55
882.7033	1406.7656	33504.85	32553.7
882.847	1408.6101	33351.5	32401.6
882.9908	1410.4538	33210.45	32262.35
883.1345	1412.2968	33166.35	32217.2
883.2782	1414.139	32996.95	32048.25
883.4219	1415.9805	33034.6	32085
883.5656	1417.8213	32999.85	32034.6
883.7092	1419.6613	32964.75	32017.65
883.8529	1421.5006	33114.4	32165.25
883.9965	1423.3391	33279.9	32331.45
884.1402	1425.1769	33479.2	32529.2
884.2838	1427.0139	33915.3	32966.3
884.4274	1428.8502	34498.5	33551.85
884.571	1430.6858	34996.9	34048.2
884.7146	1432.5206	35216.85	34271.2
884.8582	1434.3547	35447.25	34501.25
885.0018	1436.188	35429.2	34480.05
885.1453	1438.0206	35314	34366.45
885.2889	1439.8524	35089.4	34140.15
885.4324	1441.6835	34917.25	33970.4
885.5759	1443.5139	34785.2	33833.25
885.7194	1445.3435	34573.6	33628.2
885.8629	1447.1724	34497.05	33555.3
886.0064	1449.0005	34344.7	33400.95
886.1499	1450.8279	34180.5	33236.35
886.2933	1452.6545	34093.05	33150.95
886.4368	1454.4804	34092.6	33149.9
886.5802	1456.3056	34009.85	33060.35
886.7237	1458.13	33868.75	32924.35
886.8671	1459.9536	33617.7	32672.75
887.0105	1461.7766	33135	32186.1
887.1539	1463.5987	32733.2	31784.75
887.2972	1465.4202	32281.25	31331.55
887.4406	1467.2409	31813.9	30866.35
887.584	1469.0608	31544.3	30598.2
887.7273	1470.88	31223.15	30278.2
887.8706	1472.6984	30913.85	29969.6
888.0139	1474.5161	30604.4	29655.2
888.1572	1476.3331	30389.65	29444.8
888.3005	1478.1493	30262.65	29315
888.4438	1479.9648	30137.85	29190.7
888.5871	1481.7795	29961.7	29015.4
888.7303	1483.5935	29838.8	28893.15
888.8736	1485.4067	29726.05	28777.65
889.0168	1487.2192	29665.4	28722.25
889.16	1489.031	29570.85	28626.1
889.3032	1490.842	29399.2	28454.3
889.4464	1492.6522	29370.5	28425.8
889.5896	1494.4618	29213.15	28267
889.7327	1496.2705	29213.05	28271.2
889.8759	1498.0785	29080.05	28134.4
890.019	1499.8858	29028.95	28080.1
890.1622	1501.6924	28895.05	27952.55
890.3053	1503.4981	28836.2	27892.9
890.4484	1505.3032	28781.7	27838.3
890.5914	1507.1075	28699.9	27755.65
890.7345	1508.911	28650.5	27706.5
890.8776	1510.7138	28553.4	27608.9
891.0206	1512.5159	28404.45	27462.3
891.1637	1514.3172	28278.85	27336.9
891.3067	1516.1178	28155.9	27218.5
891.4497	1517.9176	28135.05	27192.8
891.5927	1519.7166	27971.15	27034.35
891.7357	1521.515	27896.5	26951.75
891.8786	1523.3126	27829.55	26890
892.0216	1525.1094	27729.8	26787
892.1645	1526.9055	27609.95	26668
892.3074	1528.7008	27517.4	26576.3
892.4503	1530.4954	27299.75	26353.3
892.5932	1532.2893	27274.05	26339.85
892.7361	1534.0824	27155.65	26216.3
892.879	1535.8747	27125.4	26192.1
893.0218	1537.6663	27038.6	26101.1
893.1647	1539.4572	26926.35	25988.3
893.3075	1541.2473	26872.9	25936.6
893.4503	1543.0367	26749.5	25814.7
893.5931	1544.8253	26666.7	25725.5
893.7359	1546.6132	26606.95	25664.8
893.8787	1548.4003	26461.6	25512.05
894.0214	1550.1867	26469.2	25521.2
894.1642	1551.9723	26351.2	25411.65
894.3069	1553.7572	26360.25	25426.8
894.4496	1555.5414	26283.2	25350.5
894.5923	1557.3247	26272.8	25343.25
894.735	1559.1074	26198.45	25269.8
894.8777	1560.8893	26141.8	25215.1
895.0204	1562.6705	26122.05	25194.35
895.163	1564.4509	26119.4	25192.95
895.3056	1566.2305	26092.55	25170
895.4482	1568.0094	26222.8	25299
895.5908	1569.7876	26262.35	25334.6
895.7334	1571.565	26215.85	25283.7
895.876	1573.3417	26240.4	25312.4
896.0186	1575.1176	26191.45	25264.15
896.1611	1576.8928	26088.25	25166.6
896.3036	1578.6672	25957.95	25039.5
896.4461	1580.4409	25791.25	24872
896.5886	1582.2138	25568.6	24644.45
896.7311	1583.986	25376.65	24453.05
896.8736	1585.7575	25251.9	24328.55
897.0161	1587.5282	25050.2	24130.4
897.1585	1589.2981	24963.75	24044.05
897.3009	1591.0673	24829.6	23910.75
897.4433	1592.8358	24790.55	23872.15
897.5857	1594.6035	24709.75	23785.1
897.7281	1596.3704	24611.15	23685
897.8705	1598.1366	24556.05	23632.45
898.0128	1599.9021	24516.85	23595.9
898.1551	1601.6668	24446.9	23523.35
898.2975	1603.4308	24404.75	23479.85
898.4398	1605.194	24447.55	23519.45
898.5821	1606.9564	24444.65	23529.35
898.7243	1608.7182	24468.75	23557.05
898.8666	1610.4791	24498.5	23592.85
899.0088	1612.2394	24553.4	23650.25
899.1511	1613.9988	24692.15	23782.5
899.2933	1615.7576	24905.3	23995.2
899.4355	1617.5156	25090.45	24164.3
899.5776	1619.2728	25250.4	24327.05
899.7198	1621.0293	25402.45	24480
899.862	1622.785	25404.8	24489.4
900.0041	1624.54	25285.85	24373.55
900.1462	1626.2942	25097.8	24185.95
900.2883	1628.0477	24750.4	23834.1
900.4304	1629.8005	24456.3	23538.7
900.5725	1631.5525	24184.6	23269.15
900.7145	1633.3037	23912.75	22998.85
900.8566	1635.0542	23725.65	22814.65
900.9986	1636.804	23465.7	22551.45
901.1406	1638.553	23370.2	22410.9
901.2826	1640.3013	23237.05	22322.4
901.4245	1642.0488	23099.3	22185
901.5665	1643.7955	23055.9	22147.25
901.7085	1645.5416	23012.35	22102.85
901.8504	1647.2868	23046.85	22132.25
901.9923	1649.0313	22983.6	22068.5
902.1342	1650.7751	23078.55	22160.4
902.2761	1652.5181	23216.8	22307.05
902.4179	1654.2604	23322.25	22412.05
902.5598	1656.0019	23586.25	22674.55
902.7016	1657.7427	23856.15	22941.95
902.8434	1659.4828	24205.15	23288.95
902.9852	1661.222	24417.65	23503
903.127	1662.9606	24428.05	23514.5
903.2687	1664.6984	24255.55	23340.65
903.4105	1666.4354	23918.1	22999.2
903.5522	1668.1717	23431.65	22511.2
903.6939	1669.9072	22932.4	22013.3
903.8356	1671.642	22521.45	21600
903.9773	1673.3761	22200.2	21286.7
904.119	1675.1094	21889.7	20974.9
904.2606	1676.8419	21657.05	20745.6
904.4022	1678.5737	21439.65	20523.75
904.5439	1680.3048	21254.1	20337.2
904.6855	1682.0351	21084.55	20168.95
904.827	1683.7646	20994.1	20075.55
904.9686	1685.4934	20867.65	19953.1
905.1101	1687.2215	20778.9	19864.55
905.2517	1688.9488	20637.05	19724.15
905.3932	1690.6754	20564.9	19653.4
905.5347	1692.4012	20521.5	19608.3
905.6761	1694.1263	20413.85	19498
905.8176	1695.8506	20360.15	19448.15
905.9591	1697.5742	20281	19370.8
906.1005	1699.297	20167.35	19260.1
906.2419	1701.0191	20087.6	19180.2
906.3833	1702.7404	19984.85	19076.25
906.5246	1704.461	19895.9	18984.4
906.666	1706.1808	19779.75	18868.6
906.8073	1707.8999	19725.6	18817.3
906.9487	1709.6182	19637.25	18731.4
907.09	1711.3358	19608.6	18703.35
907.2313	1713.0527	19529.55	18626.1
907.3725	1714.7688	19449.75	18538.1
907.5138	1716.4841	19352.25	18444.35
907.655	1718.1987	19367.2	18454.75
907.7962	1719.9126	19269.5	18369
907.9374	1721.6257	19198.5	18294.65
908.0786	1723.338	19182.9	18281.05
908.2198	1725.0496	19017.2	18111.7
908.3609	1726.7605	18978.35	18070.6
908.502	1728.4706	18934.6	18029.35
908.6431	1730.18	18815.95	17909.65
908.7842	1731.8886	18812.65	17910.3
908.9253	1733.5964	18719.25	17796.1
909.0664	1735.3036	18675.35	17769.1
909.2074	1737.0099	18635.7	17733.3
909.3484	1738.7156	18613.7	17711.65
909.4894	1740.4204	18497.85	17594.65
909.6304	1742.1246	18485.4	17578.4
909.7714	1743.8279	18428.15	17525.2
909.9123	1745.5306	18375.65	17473.75
910.0532	1747.2325	18319.95	17418.55
910.1941	1748.9336	18258.6	17354.2
910.335	1750.634	18178.25	17271.75
910.4759	1752.3336	18137.15	17235.2
910.6168	1754.0325	18131.35	17233.15
910.7576	1755.7307	18028.3	17130.3
910.8984	1757.4281	18056.9	17155.95
911.0392	1759.1247	18027.4	17113.3
911.18	1760.8206	17939.65	17029.15
911.3208	1762.5158	17935	17024.5
911.4615	1764.2102	17829.25	16925.55
911.6022	1765.9039	17748.8	16848.25
911.7429	1767.5968	17724.5	16823.35
911.8836	1769.289	17697.55	16798.2
912.0243	1770.9804	17651.65	16747.3
912.1649	1772.6711	17646.15	16739.4
912.3056	1774.361	17591.25	16685.2
912.4462	1776.0502	17496.15	16589.3
912.5868	1777.7386	17458.7	16552.6
912.7274	1779.4263	17422.65	16521.8
912.8679	1781.1132	17390.15	16489.95
913.0084	1782.7994	17334.3	16435.75
913.149	1784.4849	17284.85	16388
913.2895	1786.1696	17247	16330.05
913.4299	1787.8535	17191.9	16296
913.5704	1789.5367	17132.3	16237.35
913.7108	1791.2192	17090.35	16191.35
913.8513	1792.9009	17047.8	16122.05
913.9917	1794.5818	16991.55	16086.4
914.132	1796.2621	16982.6	16079.1
914.2724	1797.9415	16913.15	16010.3
914.4128	1799.6202	16853.35	15950.75
914.5531	1801.2982	16833.9	15927.25
914.6934	1802.9755	16793.8	15887.95
914.8337	1804.6519	16760.65	15860.8
914.9739	1806.3277	16666.45	15767.9
915.1142	1808.0027	16609.6	15714.1
915.2544	1809.6769	16614.8	15720.95
915.3946	1811.3504	16542.7	15645.75
915.5348	1813.0231	16526.6	15629.45
915.675	1814.6951	16464.25	15566.35
915.8151	1816.3664	16479.15	15577
915.9553	1818.0369	16428.65	15527.15
916.0954	1819.7067	16400.05	15499.3
916.2355	1821.3757	16335.25	15430.45
916.3755	1823.044	16307.55	15401.85
916.5156	1824.7115	16296.9	15396.15
916.6556	1826.3783	16189.9	15289.15
916.7956	1828.0443	16142.55	15241.2
916.9356	1829.7096	16096.35	15194.9
917.0756	1831.3741	16130.55	15225.85
917.2155	1833.0379	16071.15	15174.25
917.3555	1834.701	16002.05	15104.2
917.4954	1836.3633	15991.75	15094.2
917.6353	1838.0248	15922.85	15023.65
917.7751	1839.6856	15886.15	14988.7
917.915	1841.3457	15858.75	14959
918.0548	1843.005	15831.85	14930
918.1946	1844.6636	15817.25	14917.2
918.3344	1846.3214	15755.4	14856.85
918.4742	1847.9785	15743.3	14842.75
918.6139	1849.6349	15706.25	14804.25
918.7537	1851.2904	15668.25	14756.15
918.8934	1852.9453	15608.4	14704.85
919.0331	1854.5994	15572.65	14667.1
919.1727	1856.2528	15620.9	14714.1
919.3124	1857.9054	15531.2	14631.85
919.452	1859.5572	15523.05	14622.9
919.5916	1861.2083	15458.4	14560.2
919.7312	1862.8587	15452.95	14553.95
919.8708	1864.5084	15408	14503.9
920.0103	1866.1572	15363	14458.5
920.1498	1867.8054	15277.65	14372.65
920.2893	1869.4528	15234	14326.4
920.4288	1871.0994	15203.8	14303
920.5683	1872.7453	15212.25	14308.3
920.7077	1874.3905	15177.05	14271.45
920.8471	1876.0349	15118.25	14216.1
920.9865	1877.6786	15101.05	14198.3
921.1259	1879.3215	15073.85	14173.1
921.2653	1880.9637	15038.2	14135.25
921.4046	1882.6051	15025.5	14126.45
921.5439	1884.2458	14970.4	14068.75
921.6832	1885.8858	14897.3	13998.5
921.8225	1887.525	14853.55	13953.95
921.9617	1889.1634	14777.6	13874.2
922.101	1890.8011	14748.35	13847.4
922.2402	1892.4381	14719.05	13819.6
922.3794	1894.0743	14701.35	13801.25
922.5185	1895.7098	14641.15	13739.45
922.6577	1897.3446	14629.85	13730.7
922.7968	1898.9786	14625.8	13719.8
922.9359	1900.6118	14576.4	13677.6
923.075	1902.2443	14477.3	13574.55
923.214	1903.8761	14456.05	13555.15
923.3531	1905.5071	14375.6	13472.75
923.4921	1907.1374	14338.1	13438.65
923.6311	1908.7669	14311.05	13413.7
923.77	1910.3957	14293.45	13395.4
923.909	1912.0237	14170.15	13269.7
924.0479	1913.651	14145.95	13248.3
924.1868	1915.2776	14122.55	13222.7
924.3257	1916.9034	14094.05	13195
924.4646	1918.5285	14005.6	13110.2
924.6034	1920.1528	13941.7	13045.15
924.7422	1921.7764	13943.35	13044.4
924.881	1923.3992	13886.75	12987.65
925.0198	1925.0213	13816.2	12917.75
925.1586	1926.6427	13774.95	12876.4
925.2973	1928.2633	13777.05	12807.35
925.436	1929.8832	13700.1	12797.55
925.5747	1931.5023	13640.85	12740.1
925.7134	1933.1207	13576.8	12679.75
925.852	1934.7383	13576.8	12677.55
925.9906	1936.3552	13513.5	12618.55
926.1292	1937.9714	13520.6	12623.05
926.2678	1939.5868	13469.1	12566.2
926.4064	1941.2015	13365.2	12465
926.5449	1942.8154	13300.6	12398.75
926.6834	1944.4286	13233.15	12332.9
926.8219	1946.041	13199	12281.95
926.9604	1947.6528	13148.55	12242.6
927.0988	1949.2637	13111.7	12213.8
927.2372	1950.8739	13102.85	12204.95
927.3756	1952.4834	13043.45	12146.7
927.514	1954.0921	13029.1	12130.3
927.6523	1955.7001	12960.9	12061.15
927.7907	1957.3074	12924.05	12031.6
927.929	1958.9139	12882.6	11989.95
928.0673	1960.5197	12863.45	11966.85
928.2055	1962.1247	12787.45	11895.5
928.3438	1963.729	12739.9	11845.65
928.482	1965.3325	12695.95	11777.65
928.6202	1966.9353	12645.65	11751.9
928.7584	1968.5374	12604.15	11711
928.8965	1970.1387	12526.75	11633.1
929.0346	1971.7393	12502.75	11607.9
929.1727	1973.3392	12471.9	11578.95
929.3108	1974.9383	12438.9	11545.75
929.4489	1976.5366	12360.15	11468.45
929.5869	1978.1342	12358.15	11465.95
929.7249	1979.7311	12325.5	11431.45
929.8629	1981.3273	12267.65	11376.1
930.0009	1982.9227	12211.6	11317.35
930.1388	1984.5173	12191.65	11301.4
930.2767	1986.1112	12107.35	11216
930.4146	1987.7044	12115.5	11226.7
930.5525	1989.2968	12088.25	11196.05
930.6904	1990.8885	12060.5	11167.7
930.8282	1992.4795	12021.55	11131.15
930.966	1994.0697	11977.35	11089.1
931.1038	1995.6592	11910.35	11021.5
931.2415	1997.2479	11903.75	11012.65
931.3793	1998.8359	11875.65	10986.3
931.517	2000.4232	11826.25	10943.45
931.6547	2002.0097	11774.25	10890.35
931.7923	2003.5955	11720.2	10833.7
931.93	2005.1805	11713.7	10827.1
932.0676	2006.7648	11685.35	10795.25
932.2052	2008.3484	11659.6	10771.15
932.3427	2009.9312	11652.35	10764.65
932.4803	2011.5133	11589.75	10706.05
932.6178	2013.0946	11550.7	10666.1
932.7553	2014.6752	11522.8	10635.75
932.8928	2016.2551	11512.3	10623.4
933.0302	2017.8342	11453.05	10565.3
933.1676	2019.4126	11405.15	10520.15
933.305	2020.9902	11372	10488.65
933.4424	2022.5672	11350.9	10465.9
933.5798	2024.1433	11312.55	10419.7
933.7171	2025.7188	11282.55	10400.7
933.8544	2027.2935	11218.1	10332.75
933.9917	2028.8674	11184.7	10301.2
934.129	2030.4406	11162.9	10280.8
934.2662	2032.0131	11114.7	10232.45
934.4034	2033.5849	11099.9	10212.3
934.5406	2035.1559	11079	10195
934.6778	2036.7261	11029.85	10141.65
934.8149	2038.2957	11027.35	10138.5
934.952	2039.8645	11005.5	10113.6
935.0891	2041.4325	11029.15	10139.85
935.2262	2042.9998	10944.95	10060
935.3632	2044.5664	10913.55	10027.85
935.5002	2046.1323	10861.5	9978.55
935.6372	2047.6974	10837.6	9953.7
935.7742	2049.2617	10795.25	9911.85
935.9111	2050.8254	10809.1	9918.85
936.048	2052.3883	10793.45	9906
936.1849	2053.9504	10766.6	9875.6
936.3218	2055.5118	10713.65	9823.9
936.4586	2057.0725	10638.8	9745.25
936.5955	2058.6325	10620.85	9736.1
936.7323	2060.1917	10620.45	9736.05
936.869	2061.7502	10566.5	9681.05
937.0058	2063.3079	10499.35	9616.1
937.1425	2064.8649	10516.65	9629.95
937.2792	2066.4212	10476.3	9590.25
937.4159	2067.9767	10438	9549.95
937.5525	2069.5315	10410.25	9524
937.6891	2071.0856	10360.35	9473.45
937.8257	2072.6389	10317.05	9430.4
937.9623	2074.1915	10268.6	9383.7
938.0989	2075.7433	10220.95	9332.95
938.2354	2077.2945	10210.7	9328
938.3719	2078.8448	10181.05	9295.55
938.5084	2080.3945	10146.95	9260.5
938.6448	2081.9434	10141.9	9253.15
938.7812	2083.4916	10106.9	9215.25
938.9176	2085.039	10066.35	9173.6
939.054	2086.5857	10085.55	9190.4
939.1903	2088.1317	10036.2	9141.65
939.3267	2089.677	9966.6	9070.9
939.463	2091.2215	9971.8	9078.05
939.5992	2092.7652	9938.2	9041.35
939.7355	2094.3083	9919.6	9024.3
939.8717	2095.8506	9910.2	9019.75
940.0079	2097.3921	9872.85	8983.75
940.1441	2098.933	9833.3	8944.25
940.2802	2100.4731	9820	8930.85
940.4163	2102.0124	9811.9	8912.05
940.5524	2103.5511	9775.75	8882.75
940.6885	2105.089	9742.15	8850
940.8245	2106.6261	9744.35	8854
940.9606	2108.1626	9670.3	8782.1
941.0965	2109.6983	9707.9	8790.4
941.2325	2111.2332	9667.05	8777.85
941.3684	2112.7675	9631.8	8739.45
941.5044	2114.301	9570.4	8677.05
941.6403	2115.8337	9594.5	8705.15
941.7761	2117.3657	9553.4	8661.3
941.912	2118.897	9541.5	8647.2
942.0478	2120.4276	9501.4	8602.65
942.1835	2121.9575	9454.1	8558.1
942.3193	2123.4866	9473.4	8579.75
942.455	2125.0149	9445.85	8552.05
942.5907	2126.5426	9386.35	8496.3
942.7264	2128.0695	9367.75	8478.1
942.8621	2129.5956	9345.35	8462.15
942.9977	2131.1211	9333	8440.9
943.1333	2132.6458	9309.05	8418.45
943.2689	2134.1698	9277.7	8383.85
943.4044	2135.693	9267.6	8372
943.54	2137.2155	9241.1	8345.3
943.6755	2138.7373	9226.6	8336.3
943.8109	2140.2584	9179.85	8292.25
943.9464	2141.7787	9138.65	8248
944.0818	2143.2983	9114.55	8230.5
944.2172	2144.8171	9050.5	8166.6
944.3526	2146.3353	9030.1	8140.6
944.4879	2147.8527	9011.7	8123.25
944.6232	2149.3693	9003.8	8113.05
944.7585	2150.8853	8967.65	8075.45
944.8938	2152.4005	8923.05	8029.2
945.029	2153.9149	8934.55	8041.3
945.1642	2155.4287	8986.55	7985.05
945.2994	2156.9417	8874.8	7980.25
945.4346	2158.454	8847.55	7957.2
945.5697	2159.9655	8809.65	7922.2
945.7048	2161.4764	8799.75	7911.35
945.8399	2162.9865	8761.8	7874
945.9749	2164.4958	8764.4	7875.35
946.1099	2166.0045	8711.85	7819.45
946.2449	2167.5124	8709	7819.3
946.3799	2169.0195	8680.3	7790.15
946.5148	2170.526	8654.45	7762.55
946.6498	2172.0317	8624.1	7729.4
946.7846	2173.5367	8607.95	7719.4
946.9195	2175.0409	8585.45	7696.2
947.0543	2176.5445	8584.95	7696.15
947.1891	2178.0473	8521.4	7627.7
947.3239	2179.5494	8500.8	7604.3
947.4587	2181.0507	8489.1	7597.15
947.5934	2182.5513	8465.95	7573.2
947.7281	2184.0512	8425.65	7536.25
947.8628	2185.5504	8405.55	7515.95
947.9974	2187.0488	8349.75	7459.7
948.132	2188.5465	8333.55	7447.35
948.2666	2190.0435	8312.65	7422.85
948.4012	2191.5397	8305.35	7413.95
948.5357	2193.0353	8267.4	7373.55
948.6702	2194.5301	8222.15	7326.6
948.8047	2196.0241	8206.75	7310.2
948.9392	2197.5175	8176.75	7281.4
949.0736	2199.0101	8160.55	7261.55
949.208	2200.502	8112.65	7221.15
949.3424	2201.9931	8077.65	7188.3
949.4767	2203.4835	8034.8	7146.35
949.611	2204.9733	8068.8	7165.6
949.7453	2206.4622	8044.8	7158.7
949.8796	2207.9505	8009.65	7122.2
950.0138	2209.438	7958.25	7073.45
950.148	2210.9248	7932.7	7044.3
950.2822	2212.4109	7929.2	7039.25
950.4164	2213.8962	7891.15	6995.9
950.5505	2215.3809	7892.8	6996.6
950.6846	2216.8648	7850.6	6953.65
950.8186	2218.3479	7830.75	6930.2
950.9527	2219.8304	7786.6	6885.35
951.0867	2221.3121	7766	6868.8
951.2207	2222.7931	7755.25	6859.75
951.3546	2224.2733	7697.5	6804.5
951.4886	2225.7529	7691.2	6799.85
951.6225	2227.2317	7662.7	6768.8
951.7563	2228.7098	7634.55	6747.85
951.8902	2230.1872	7610.5	6721.95
952.024	2231.6638	7598.05	6711.55
952.1578	2233.1397	7587.3	6696.1
952.2916	2234.6149	7545.2	6658
952.4253	2236.0894	7518.4	6630.05
952.559	2237.5632	7506.8	6614.35
952.6927	2239.0362	7486.95	6596.1
952.8263	2240.5085	7454.05	6561.1
952.9599	2241.9801	7429.6	6537.1
953.0935	2243.4509	7421.45	6526.9
953.2271	2244.921	7370.15	6473.75
953.3606	2246.3904	7354.85	6455.6
953.4941	2247.8591	7339.55	6448.05
953.6276	2249.3271	7329.05	6437
953.7611	2250.7943	7291.5	6397.8
953.8945	2252.2608	7260.35	6368.3
954.0279	2253.7266	7253.35	6363.25
954.1612	2255.1917	7228.1	6336.55
954.2946	2256.656	7194	6301.65
954.4279	2258.1197	7185.45	6297.45
954.5612	2259.5826	7154.45	6261.75
954.6944	2261.0447	7134.25	6243.45
954.8276	2262.5062	7119.05	6225.3
954.9608	2263.9669	7108.55	6213.15
955.094	2265.4269	7096.9	6202.75
955.2271	2266.8862	7071.4	6179.65
955.3602	2268.3448	7062.25	6170.65
955.4933	2269.8026	7053.75	6162.55
955.6264	2271.2598	7020.3	6131.25
955.7594	2272.7162	6999.25	6108.85
955.8924	2274.1719	6982.95	6091.15
956.0253	2275.6268	6977.3	6081.9
956.1583	2277.0811	6947.25	6055.25
956.2912	2278.5346	6922.95	6032.45
956.4241	2279.9874	6921	6031.9
956.5569	2281.4395	6890.9	6003.25
956.6897	2282.8908	6877.1	5982.55
956.8225	2284.3414	6873.6	5978.85
956.9553	2285.7914	6844.55	5953.15
957.088	2287.2406	6823.2	5927.35
957.2207	2288.689	6800.8	5905.6
957.3534	2290.1368	6793.45	5895.15
957.486	2291.5838	6744.6	5844.3
957.6186	2293.0302	6740.1	5838.9
957.7512	2294.4758	6707.1	5810.3
957.8838	2295.9206	6667.6	5774.55
958.0163	2297.3648	6659.75	5769.25
958.1488	2298.8082	6661.2	5768.05
958.2813	2300.251	6628.7	5735.35
958.4137	2301.693	6608.2	5710.6
958.5461	2303.1343	6607.75	5712.2
958.6785	2304.5748	6596.9	5704.6
958.8108	2306.0147	6554.8	5664.75
958.9432	2307.4538	6539.95	5648.65
959.0754	2308.8922	6517.05	5631
959.2077	2310.3299	6478.5	5589.15
959.3399	2311.7669	6480.35	5589.6
959.4721	2313.2031	6455	5563.95
959.6043	2314.6387	6428.7	5535.2
959.7365	2316.0735	6418.05	5526.65
959.8686	2317.5076	6408.85	5514.6
960.0006	2318.941	6378.95	5486.8
960.1327	2320.3737	6372.6	5476.05
960.2647	2321.8056	6353.4	5457.95
960.3967	2323.2369	6342.05	5447.15
960.5287	2324.6674	6318.65	5423.75
960.6606	2326.0972	6304.6	5409
960.7925	2327.5263	6268.4	5375.4
960.9244	2328.9547	6267.5	5373.05
961.0562	2330.3823	6243.6	5348.8
961.1881	2331.8092	6243.95	5346.15
961.3198	2333.2355	6217.15	5321.05
961.4516	2334.661	6192.4	5297.4
961.5833	2336.0858	6172.9	5276.8
961.715	2337.5098	6180.6	5286.85
961.8467	2338.9332	6138.7	5244
961.9783	2340.3558	6115.35	5219.6
962.1099	2341.7778	6106.75	5216.25
962.2415	2343.199	6067.55	5174.05
962.373	2344.6195	6051.65	5161.1
962.5045	2346.0393	6050.1	5159.3
962.636	2347.4583	6057	5162.7
962.7675	2348.8767	6035.45	5139.25
962.8989	2350.2943	6029.6	5133.1
963.0303	2351.7113	6006.55	5109
963.1617	2353.1275	5971.4	5074.1
963.293	2354.543	5982.3	5078.1
963.4243	2355.9578	5962.95	5066.5
963.5556	2357.3718	5906.15	5013.25
963.6868	2358.7852	5902.35	5009.9
963.818	2360.1978	5886.45	4995.4
963.9492	2361.6098	5856.6	4964.6
964.0803	2363.021	5832.15	4934.7
964.2114	2364.4315	5825.9	4932.1
964.3425	2365.8413	5820	4926
964.4736	2367.2504	5791.4	4900.4
964.6046	2368.6587	5751.95	4860.65
964.7356	2370.0664	5727.75	4838.25
964.8666	2371.4733	5731.55	4839.05
964.9975	2372.8795	5718.5	4827.95
965.1284	2374.285	5692.05	4799.6
965.2593	2375.6899	5665.95	4776.95
965.3901	2377.0939	5629.2	4740.3
965.5209	2378.4973	5631.6	4740.3
965.6517	2379.9	5605.65	4715.45
965.7825	2381.3019	5593.1	4703.4
965.9132	2382.7032	5567.7	4678.25
966.0439	2384.1037	5560.4	4677.65
966.1745	2385.5035	5531.3	4645.15
966.3051	2386.9027	5518.05	4632.8
966.4357	2388.3011	5511.75	4622.75
966.5663	2389.6987	5495.6	4608.8
966.6968	2391.0957	5466.55	4579.25
966.8273	2392.492	5448.7	4558.9
966.9578	2393.8876	5421	4530.35
967.0882	2395.2824	5397.15	4508.25
967.2186	2396.6765	5378.35	4488.2
967.349	2398.07	5364.65	4475.8
967.4793	2399.4627	5358.5	4465.25
967.6097	2400.8547	5331.1	4439.65
967.7399	2402.246	5333.85	4437.5
967.8702	2403.6366	5287.85	4397.15
968.0004	2405.0265	5298	4409.75
968.1306	2406.4156	5279.1	4386.05
968.2607	2407.8041	5261.45	4368.1
968.3909	2409.1918	5221.7	4325.95
968.521	2410.5789	5209.25	4318.85
968.651	2411.9652	5198.65	4303.85
968.781	2413.3508	5174.2	4281.4
968.911	2414.7358	5170.3	4280.9
969.041	2416.12	5141.55	4252.75
969.1709	2417.5035	5124.8	4235.45
969.3008	2418.8863	5096.25	4203.25
969.4307	2420.2684	5092.8	4201.15
969.5606	2421.6497	5060.95	4169.05
969.6904	2423.0304	5042.6	4153.5
969.8201	2424.4104	5035.9	4144.85
969.9499	2425.7896	5033.95	4141.7
970.0796	2427.1682	5005.8	4115.15
970.2093	2428.546	4984.2	4092.95
970.3389	2429.9232	4981.45	4086.85
970.4685	2431.2996	4979.25	4087.85
970.5981	2432.6753	4966.5	4073.65
970.7277	2434.0503	4938.6	4047.2
970.8572	2435.4246	4925.95	4035.05
970.9867	2436.7982	4926.1	4033.05
971.1161	2438.1711	4909.55	4016.5
971.2456	2439.5433	4885.7	3993.3
971.375	2440.9148	4888.95	3991
971.5043	2442.2856	4837.6	3944.05
971.6336	2443.6557	4829.25	3935.15
971.7629	2445.025	4797.05	3905.9
971.8922	2446.3937	4812.4	3918.8
972.0214	2447.7617	4793	3901.5
972.1506	2449.1289	4795.55	3904.6
972.2798	2450.4955	4771.65	3876.05
972.4089	2451.8613	4775.3	3885.2
972.538	2453.2265	4732.15	3841.65
972.6671	2454.5909	4730.6	3837.55
972.7961	2455.9546	4745.5	3856.45
972.9251	2457.3177	4716.8	3825.3
973.0541	2458.68	4701.35	3808.8
973.1831	2460.0416	4691.05	3798.9
973.312	2461.4025	4706.25	3812.7
973.4408	2462.7627	4687.2	3784.45
973.5697	2464.1222	4661.8	3774.85
973.6985	2465.4811	4639.2	3748.9
973.8273	2466.8392	4622.55	3731.6
973.956	2468.1966	4618.25	3725.1
974.0847	2469.5533	4640	3745.2
974.2134	2470.9093	4621.25	3728.25
974.3421	2472.2645	4591.1	3699.5
974.4707	2473.6191	4585.75	3696.2
974.5993	2474.973	4570.1	3679.7
974.7278	2476.3262	4557.95	3663.8
974.8563	2477.6787	4528	3637.9
974.9848	2479.0305	4505.1	3615.35
975.1132	2480.3816	4489.6	3597.15
975.2417	2481.7319	4487.45	3596.65
975.37	2483.0816	4470.25	3575.7
975.4984	2484.4306	4463.5	3572.85
975.6267	2485.7789	4436.7	3548.6
975.755	2487.1264	4416.95	3525.65
975.8833	2488.4733	4396.4	3506.85
976.0115	2489.8195	4404.1	3496.4
976.1397	2491.165	4396.2	3501
976.2678	2492.5097	4378.85	3486.05
976.3959	2493.8538	4351.95	3464.35
976.524	2495.1972	4337.05	3446.95
976.6521	2496.5398	4330.3	3437.5
976.7801	2497.8818	4323.75	3430.55
976.9081	2499.2231	4305.6	3413.3
977.036	2500.5637	4275.15	3380.5
977.164	2501.9035	4297.9	3404.5
977.2918	2503.2427	4269.95	3371.95
977.4197	2504.5812	4268.15	3376.9
977.5475	2505.919	4263.75	3370.95
977.6753	2507.256	4250.35	3360.3
977.8031	2508.5924	4227.65	3339.35
977.9308	2509.9281	4206.3	3308
978.0585	2511.2631	4194.7	3304.4
978.1861	2512.5974	4180.65	3290.05
978.3137	2513.9309	4176.6	3287.5
978.4413	2515.2638	4176.45	3258.95
978.5689	2516.596	4151.25	3258.4
978.6964	2517.9275	4147	3254.2
978.8239	2519.2583	4132.1	3239.9
978.9513	2520.5884	4106.65	3214.95
979.0788	2521.9178	4099.45	3211.7
979.2062	2523.2465	4098	3208.45
979.3335	2524.5745	4072.7	3182.05
979.4608	2525.9018	4053.1	3162.3
979.5881	2527.2284	4054.15	3162.65
979.7154	2528.5543	4049.15	3158.35
979.8426	2529.8796	4014.9	3122.05
979.9698	2531.2041	4022.45	3131.2
980.0969	2532.5279	4013.8	3125.2
980.224	2533.851	3995.05	3103.45
980.3511	2535.1735	3998.55	3105
980.4781	2536.4952	3994.7	3103.15
980.6052	2537.8163	3995.8	3103.1
980.7321	2539.1366	3973.25	3083.95
980.8591	2540.4562	3951.7	3059.75
980.986	2541.7752	3954.45	3062.95
981.1129	2543.0935	3931.05	3037.3
981.2397	2544.411	3927.3	3032.55
981.3665	2545.7279	3925.55	3034.65
981.4933	2547.0441	3921.8	3029.7
981.62	2548.3596	3910.5	3014.45
981.7467	2549.6744	3898.2	3006.95
981.8734	2550.9885	3903	3007.7
982.0001	2552.3019	3886.85	2996.35
982.1267	2553.6146	3878.65	2986.05
982.2532	2554.9266	3870.6	2976.85
982.3798	2556.2379	3850.3	2956.85
982.5063	2557.5485	3824.7	2934.1
982.6327	2558.8585	3837.7	2937.55
982.7592	2560.1677	3828.9	2931.7
982.8856	2561.4762	3835.25	2941.5
983.0119	2562.7841	3830.25	2934.8
983.1383	2564.0913	3811.35	2920
983.2646	2565.3977	3799.05	2907.9
983.3908	2566.7035	3789.25	2896.6
983.517	2568.0086	3778.65	2883.85
983.6432	2569.313	3782.6	2888.7
983.7694	2570.6167	3766.9	2869.85
983.8955	2571.9197	3761.9	2867.45
984.0216	2573.222	3756.65	2861.05
984.1476	2574.5236	3751.5	2856.8
984.2737	2575.8246	3727.5	2834.3
984.3996	2577.1248	3729.8	2835.7
984.5256	2578.4244	3726.7	2833.05
984.6515	2579.7232	3719.8	2828.1
984.7774	2581.0214	3746.7	2821.4
984.9032	2582.3189	3732.05	2839.1
985.029	2583.6157	3709.05	2811.45
985.1548	2584.9118	3693.45	2802.65
985.2806	2586.2072	3695.55	2801.8
985.4063	2587.5019	3672.25	2778.2
985.5319	2588.7959	3679.55	2784.95
985.6576	2590.0893	3679.65	2784.2
985.7832	2591.3819	3663.85	2772.6
985.9087	2592.6739	3659.05	2766.9
986.0343	2593.9652	3654.4	2759.25
986.1597	2595.2557	3635.9	2743.95
986.2852	2596.5456	3624.55	2729.35
986.4106	2597.8348	3632.15	2739.1
986.536	2599.1234	3616.55	2724.7
986.6614	2600.4112	3609.15	2716.8
986.7867	2601.6983	3592.45	2696.55
986.912	2602.9848	3575.1	2681.35
987.0372	2604.2705	3573	2674.55
987.1624	2605.5556	3567.2	2673.2
987.2876	2606.84	3556.45	2665.3
987.4128	2608.1237	3546.3	2651.4
987.5379	2609.4067	3538.1	2644.7
987.6629	2610.689	3536.55	2635.45
987.788	2611.9707	3522.6	2627.7
987.913	2613.2516	3517.4	2621.05
988.0379	2614.5319	3494.55	2602.55
988.1629	2615.8115	3485.3	2591
988.2878	2617.0903	3470.15	2576.4
988.4126	2618.3685	3464.15	2572.05
988.5375	2619.6461	3448.3	2557
988.6622	2620.9229	3436.15	2543.25
988.787	2622.199	3437.9	2543.15
988.9117	2623.4745	3430.45	2535.8
989.0364	2624.7493	3425.65	2534.9
989.161	2626.0234	3409.9	2517.65
989.2857	2627.2968	3400.25	2508.25
989.4102	2628.5695	3386.25	2490.95
989.5348	2629.8415	3382.15	2491.55
989.6593	2631.1128	3368.45	2476.05
989.7837	2632.3835	3365.05	2474.7
989.9082	2633.6535	3358.25	2467.25
990.0326	2634.9228	3333.25	2443.75
990.1569	2636.1914	3336.55	2443.8
990.2812	2637.4593	3327.75	2430.35
990.4055	2638.7265	3328.2	2436.75
990.5298	2639.9931	3310.25	2419.3
990.654	2641.259	3300.65	2407.15
990.7782	2642.5242	3295.6	2401.85
990.9023	2643.7887	3286.55	2395.1
991.0264	2645.0525	3275.05	2381.55
991.1505	2646.3156	3276.6	2370.9
991.2745	2647.5781	3258.8	2366.35
991.3985	2648.8398	3250.55	2359.4
991.5225	2650.1009	3247.7	2350.4
991.6464	2651.3613	3221.85	2330.3
991.7703	2652.6211	3228.55	2338.15
991.8942	2653.8801	3224.45	2334.45
992.018	2655.1385	3221.5	2327.35
992.1418	2656.3961	3217.7	2327.15
992.2655	2657.6531	3194.65	2303.65
992.3892	2658.9094	3201.5	2311.4
992.5129	2660.1651	3184.9	2295.85
992.6366	2661.42	3170.25	2279.5
992.7602	2662.6743	3187.15	2296.3
992.8837	2663.9279	3177.65	2286.45
993.0073	2665.1808	3170.05	2278
993.1307	2666.433	3160.15	2266.95
993.2542	2667.6846	3162.5	2271.75
993.3776	2668.9354	3166.75	2272.3
993.501	2670.1856	3150.65	2258.55
993.6244	2671.4351	3152.75	2261.75
993.7477	2672.6839	3139.7	2246.85
993.8709	2673.9321	3132.6	2242.15
993.9942	2675.1795	3130.6	2238.8
994.1174	2676.4263	3125.25	2235.85
994.2405	2677.6724	3128.5	2237.4
994.3637	2678.9179	3114.75	2222.95
994.4868	2680.1626	3102.25	2212.05
994.6098	2681.4067	3109.45	2217.75
994.7328	2682.6501	3109.45	2217.85
994.8558	2683.8928	3086	2194.7
994.9788	2685.1348	3085.7	2194.85
995.1017	2686.3761	3071.25	2180.25
995.2245	2687.6168	3062.45	2171.5
995.3474	2688.8568	3045.5	2155.8
995.4702	2690.0961	3043.25	2152
995.5929	2691.3348	3038.85	2149.65
995.7156	2692.5727	3015	2122.85
995.8383	2693.81	3012.1	2120.85
995.961	2695.0466	3011.3	2120.6
996.0836	2696.2826	3002.5	2111.7
996.2062	2697.5178	2998.9	2106.05
996.3287	2698.7524	2992.7	2100.55
996.4512	2699.9863	2993.75	2103.05
996.5737	2701.2195	2975.45	2085.45
996.6961	2702.452	2977.65	2085.6
996.8185	2703.6839	2961.75	2070.3
996.9408	2704.9151	2963.4	2072.5
997.0631	2706.1456	2955.65	2064.5
997.1854	2707.3755	2976.4	2084.55
997.3077	2708.6046	2978.95	2086.75
997.4299	2709.8331	2972.3	2081.9
997.552	2711.0609	2958.35	2065.5
997.6742	2712.2881	2976.55	2086.85
997.7963	2713.5145	2971.15	2079.65
997.9183	2714.7403	2981.5	2090.2
998.0403	2715.9654	2985.85	2094.55
998.1623	2717.1899	2987.05	2083.3
998.2842	2718.4136	2985.85	2095.4
998.4062	2719.6367	2985.25	2094.9
998.528	2720.8591	2987.65	2092.8
998.6498	2722.0809	2996.8	2104.8
998.7716	2723.3019	3002.3	2109.3
998.8934	2724.5223	3003.1	2111.7
999.0151	2725.7421	2989.15	2099.25
999.1368	2726.9611	2989.75	2098.3
999.2584	2728.1795	2985.85	2090.3
999.38	2729.3972	2970.15	2080.3
999.5016	2730.6142	2953.4	2055.95
999.6231	2731.8306	2934.35	2043.4
999.7446	2733.0462	2921.1	2031.05
999.8661	2734.2612	2901.05	2005.55
999.9875	2735.4756	2863.85	1973
1000.1089	2736.6892	2850.65	1961.25
1000.2302	2737.9022	2824.75	1937
1000.3515	2739.1145	2797.1	1906.4
1000.4728	2740.3262	2804.6	1905.4
1000.594	2741.5372	2762.5	1873.8
1000.7152	2742.7475	2745.3	1854.3
1000.8363	2743.9571	2739.25	1849.2
1000.9575	2745.1661	2744.05	1852.15
1001.0785	2746.3744	2710.7	1821.25
1001.1996	2747.582	2697.55	1807.55
1001.3206	2748.7889	2698.9	1806.6
1001.4415	2749.9952	2672.9	1785.05
1001.5625	2751.2008	2671.45	1780.5
1001.6833	2752.4057	2663.75	1772.5
1001.8042	2753.61	2659.25	1770.9
1001.925	2754.8136	2640.5	1751.4
1002.0458	2756.0165	2633.35	1744.35
1002.1665	2757.2188	2640.4	1753.9
1002.2872	2758.4204	2634.6	1745.3
1002.4078	2759.6213	2615.7	1723.5
1002.5285	2760.8215	2612.9	1717.1
1002.649	2762.0211	2609.1	1716.9
1002.7696	2763.22	2605.65	1713.95
1002.8901	2764.4182	2603.25	1712.9
1003.0106	2765.6158	2597.05	1707
1003.131	2766.8127	2575.65	1687.75
1003.2514	2768.009	2574.7	1687.55
1003.3717	2769.2045	2564.7	1674.95
1003.492	2770.3994	2563.2	1672
1003.6123	2771.5936	2559.85	1670
1003.7325	2772.7872	2553.4	1665
1003.8527	2773.9801	2531.9	1643.15
1003.9729	2775.1723	2544.25	1640.75
1004.093	2776.3639	2528.25	1640.65
1004.2131	2777.5548	2516.65	1624.3
1004.3331	2778.745	2510.85	1621.05
1004.4531	2779.9346	2515.55	1627.15
1004.5731	2781.1235	2512.2	1623.6
1004.693	2782.3117	2511.3	1623.45
1004.8129	2783.4992	2514.95	1629.15
1004.9328	2784.6861	2510.05	1621
1005.0526	2785.8723	2509.95	1621.2
1005.1723	2787.0579	2521.25	1632.7
1005.2921	2788.2428	2509.3	1621.4
1005.4118	2789.427	2512.4	1625.35
1005.5314	2790.6106	2532.75	1644.5
1005.651	2791.7935	2525.05	1636.7
1005.7706	2792.9757	2528.45	1638.95
1005.8902	2794.1573	2542.5	1651.9
1006.0097	2795.3382	2559.9	1670.9
1006.1291	2796.5184	2551.35	1664.5
1006.2485	2797.698	2562.75	1672.2
1006.3679	2798.8769	2565.05	1679.15
1006.4873	2800.0551	2596.2	1707.05
1006.6066	2801.2327	2596.9	1706.3
1006.7258	2802.4096	2626.2	1739.25
1006.8451	2803.5859	2639.3	1751.05
1006.9642	2804.7615	2632.2	1743.75
1007.0834	2805.9364	2662.25	1776.6
1007.2025	2807.1106	2700.4	1813.8
1007.3216	2808.2842	2701.15	1812.8
1007.4406	2809.4572	2738.3	1849.4
1007.5596	2810.6294	2774.1	1887.05
1007.6785	2811.801	2812.85	1926.95
1007.7975	2812.972	2858	1972.1
1007.9163	2814.1423	2888.9	2000.45
1008.0352	2815.3119	2928.55	2040.1
1008.154	2816.4808	2973.95	2088.95
1008.2727	2817.6491	3028.35	2138.5
1008.3914	2818.8167	3054.3	2168.1
1008.5101	2819.9837	3112.35	2219.05
1008.6288	2821.15	3142.15	2253.85
1008.7474	2822.3157	3187.35	2300.9
1008.8659	2823.4807	3223.2	2335.3
1008.9844	2824.645	3268.65	2378.1
1009.1029	2825.8086	3297.8	2410.9
1009.2214	2826.9716	3342.85	2456.45
1009.3398	2828.134	3370.4	2483.95
1009.4581	2829.2957	3405.85	2519.75
1009.5764	2830.4567	3426.15	2539.8
1009.6947	2831.617	3437.1	2550.35
1009.813	2832.7767	3459	2571.85
1009.9312	2833.9358	3442.35	2558.2
1010.0493	2835.0941	3438.95	2550.25
1010.1675	2836.2519	3432.95	2546.4
1010.2855	2837.4089	3422.4	2534.15
1010.4036	2838.5653	3407.05	2517.95
1010.5216	2839.7211	3413	2529
1010.6396	2840.8761	3416.7	2528.95
1010.7575	2842.0306	3424.35	2539.95
1010.8754	2843.1843	3466.85	2580.45
1010.9932	2844.3374	3513.35	2625.7
1011.111	2845.4899	3577.9	2689.2
1011.2288	2846.6417	3651.75	2763.55
1011.3465	2847.7928	3715.2	2828.65
1011.4642	2848.9433	3777.4	2890.05
1011.5818	2850.0931	3847.15	2960.1
1011.6995	2851.2422	3919.05	3032.05
1011.817	2852.3907	3987.5	3100.5
1011.9345	2853.5385	4055.4	3166.2
1012.052	2854.6857	4115.7	3220.75
1012.1695	2855.8323	4155.95	3268.35
1012.2869	2856.9781	4208.75	3321.05
1012.4042	2858.1233	4248.85	3361.95
1012.5216	2859.2679	4285.8	3400.7
1012.6389	2860.4118	4330.4	3444.45
1012.7561	2861.555	4350.15	3459.25
1012.8733	2862.6976	4404.5	3515.85
1012.9905	2863.8395	4410.1	3524.3
1013.1076	2864.9808	4433.85	3546.25
1013.2247	2866.1214	4448.25	3564
1013.3417	2867.2614	4469.5	3583.7
1013.4587	2868.4007	4460.4	3572.1
1013.5757	2869.5393	4477.8	3589.25
1013.6926	2870.6773	4493.7	3604.6
1013.8095	2871.8146	4500.4	3611.45
1013.9263	2872.9513	4517.7	3630.25
1014.0431	2874.0874	4488.15	3602.35
1014.1599	2875.2227	4474.25	3587.75
1014.2766	2876.3574	4427.25	3539.65
1014.3933	2877.4915	4425.55	3541.55
1014.51	2878.6249	4394.2	3509.8
1014.6266	2879.7577	4381.05	3491.8
1014.7431	2880.8898	4354.3	3456.85
1014.8596	2882.0212	4330.6	3443.75
1014.9761	2883.152	4317.2	3430
1015.0925	2884.2821	4297.85	3411.3
1015.2089	2885.4116	4277.15	3390.3
1015.3253	2886.5405	4274.7	3389.75
1015.4416	2887.6686	4291.1	3402.3
1015.5579	2888.7962	4279.05	3394.35
1015.6741	2889.923	4291.6	3408.7
1015.7903	2891.0493	4304	3419.8
1015.9065	2892.1748	4310.7	3424.85
1016.0226	2893.2997	4328.05	3441.55
1016.1387	2894.424	4331.4	3446.4
1016.2547	2895.5476	4336.45	3450.8
1016.3707	2896.6706	4368.6	3484.2
1016.4866	2897.7929	4371.15	3483.7
1016.6025	2898.9145	4407.3	3523.65
1016.7184	2900.0355	4432.8	3548.75
1016.8342	2901.1559	4449.6	3563.25
1016.95	2902.2756	4486.95	3603.1
1017.0658	2903.3946	4520.05	3635.75
1017.1815	2904.513	4540.9	3652.85
1017.2971	2905.6308	4563	3678.4
1017.4127	2906.7479	4583.85	3698
1017.5283	2907.8643	4598.5	3710.25
1017.6439	2908.9801	4619.45	3736.05
1017.7594	2910.0953	4623.05	3737
1017.8748	2911.2098	4617.6	3728.8
1017.9902	2912.3236	4606	3711.15
1018.1056	2913.4368	4579.15	3690.1
1018.2209	2914.5494	4564.75	3680.15
1018.3362	2915.6613	4537.05	3645.35
1018.4515	2916.7725	4513.45	3626.15
1018.5667	2917.8831	4477.3	3593.65
1018.6819	2918.9931	4457.8	3570.75
1018.797	2920.1024	4435.8	3550.6
1018.9121	2921.211	4411.6	3527.05
1019.0271	2922.319	4380.25	3495.7
1019.1421	2923.4264	4354.95	3471.3
1019.2571	2924.5331	4340.65	3455.45
1019.372	2925.6391	4330.35	3446.05
1019.4869	2926.7445	4321.2	3436.85
1019.6017	2927.8493	4307.7	3424.95
1019.7165	2928.9534	4292.5	3407.85
1019.8313	2930.0569	4292.5	3404.05
1019.946	2931.1597	4273.15	3385.9
1020.0606	2932.2619	4248.7	3363.1
1020.1753	2933.3634	4244.7	3358
1020.2899	2934.4643	4233.8	3342.65
1020.4044	2935.5645	4219.3	3326.95
1020.5189	2936.6641	4173.75	3286.6
1020.6334	2937.763	4112.65	3230
1020.7478	2938.8613	4072.55	3188.35
1020.8622	2939.959	4018.55	3128.5
1020.9765	2941.056	3945.85	3061.7
1021.0908	2942.1523	3854.05	2969.85
1021.2051	2943.248	3780.35	2894.4
1021.3193	2944.3431	3669	2786.1
1021.4334	2945.4375	3573.3	2688.4
1021.5476	2946.5313	3462.1	2577.65
1021.6617	2947.6244	3368.45	2484.85
1021.7757	2948.7169	3263.7	2376.75
1021.8897	2949.8087	3171.65	2287.85
1022.0037	2950.8999	3073.55	2189
1022.1176	2951.9904	2990.7	2105.55
1022.2315	2953.0803	2922.35	2039.05
1022.3453	2954.1696	2859.15	1975.2
1022.4591	2955.2582	2802.95	1919.05
1022.5728	2956.3462	2754.45	1869.95
1022.6865	2957.4335	2716.1	1831.8
1022.8002	2958.5202	2677.85	1789.2
1022.9138	2959.6062	2644.75	1761.65
1023.0274	2960.6916	2620.75	1737.5
1023.141	2961.7764	2585.85	1701.7
1023.2545	2962.8605	2575.35	1691.9
1023.3679	2963.9439	2553.2	1669.1
1023.4813	2965.0267	2554.95	1670.55
1023.5947	2966.1089	2573.05	1666.6
1023.708	2967.1905	2519.25	1636.6
1023.8213	2968.2714	2517.25	1633.3
1023.9346	2969.3516	2525	1640.7
1024.0478	2970.4312	2522.5	1632.95
1024.1609	2971.5102	2515.25	1631.45
1024.274	2972.5885	2510.95	1628.7
1024.3871	2973.6662	2523.75	1632.8
1024.5002	2974.7432	2511.65	1627.35
1024.6132	2975.8196	2507.7	1623.25
1024.7261	2976.8954	2476.2	1592.2
1024.839	2977.9705	2471	1588.55
1024.9519	2979.045	2458.85	1575.1
1025.0647	2980.1188	2424.1	1540.45
1025.1775	2981.192	2417.35	1534.85
1025.2902	2982.2645	2398.1	1513.15
1025.4029	2983.3364	2367.2	1483.75
1025.5156	2984.4077	2347.5	1464.55
1025.6282	2985.4783	2312.6	1421.85
1025.7407	2986.5483	2267.75	1385.1
1025.8532	2987.6177	2233.9	1352
1025.9657	2988.6864	2210.05	1325.65
1026.0782	2989.7545	2156.4	1271.9
1026.1906	2990.8219	2131.15	1247.25
1026.3029	2991.8887	2099.75	1214.65
1026.4152	2992.9548	2071.7	1186.6
1026.5275	2994.0204	2032.9	1151.3
1026.6397	2995.0852	2007.2	1123.9
1026.7519	2996.1495	1982.5	1097.35
1026.864	2997.2131	1951.7	1068.5
1026.9761	2998.276	1939.75	1058.1
1027.0882	2999.3383	1914.4	1030.85
1027.2002	3000.4	1898.2	1015.5
1027.3122	3001.4611	1866.1	981.75
1027.4241	3002.5215	1847.3	961.7
1027.536	3003.5812	1836.85	951.2
1027.6478	3004.6404	1837	952.9
1027.7596	3005.6989	1821.25	934.9
1027.8714	3006.7567	1815.65	932.95
1027.9831	3007.8139	1810.55	905.35
1028.0947	3008.8705	1793.9	910.7
1028.2064	3009.9264	1799.4	901.3
1028.3179	3010.9818	1780.6	897.85
1028.4295	3012.0364	1768.75	885.4
1028.541	3013.0905	1765.2	881.45
1028.6524	3014.1439	1775	892.5
1028.7638	3015.1966	1760.35	877.3
1028.8752	3016.2487	1767.8	884.65
1028.9865	3017.3002	1764.85	874.25
1029.0978	3018.3511	1762.4	879.3
1029.209	3019.4013	1758.65	875.55
1029.3202	3020.4509	1747.8	865.15
1029.4314	3021.4998	1753.6	871.95
1029.5425	3022.5481	1746.8	862.25
1029.6535	3023.5958	1749.35	866.3
1029.7645	3024.6428	1747.25	860.4
1029.8755	3025.6892	1744.35	864.15
1029.9864	3026.735	1753.1	870.15
1030.0973	3027.7802	1752.25	868.7
1030.2082	3028.8247	1743.45	861.7
1030.319	3029.8685	1746.75	862.5
1030.4297	3030.9118	1750.4	868
1030.5404	3031.9544	1754.6	871.7
1030.6511	3032.9963	1752.2	868.5
1030.7617	3034.0376	1759.05	876.25
1030.8723	3035.0783	1756.95	872.25
1030.9829	3036.1184	1759.4	876.85
1031.0934	3037.1578	1767.75	884.3
1031.2038	3038.1966	1764.75	880.6
1031.3142	3039.2348	1767.5	885.15
1031.4246	3040.2723	1780.8	889.45
1031.5349	3041.3092	1760.8	879.9
1031.6452	3042.3455	1759	877.15
1031.7554	3043.3811	1760.1	878.05
1031.8656	3044.4161	1741	856.25
1031.9758	3045.4505	1738.3	857.05
1032.0859	3046.4842	1735.05	852.6
1032.1959	3047.5173	1721.05	838.25
1032.3059	3048.5498	1719.5	835.5
1032.4159	3049.5816	1705.45	822.9
1032.5258	3050.6128	1691.1	807.65
1032.6357	3051.6434	1694.6	812.8
1032.7455	3052.6734	1687.9	804.45
1032.8553	3053.7027	1687.2	803.4
1032.9651	3054.7314	1671.9	790.35
1033.0748	3055.7594	1657.7	774.75
1033.1845	3056.7868	1662	779.8
1033.2941	3057.8136	1652.55	771.5
1033.4037	3058.8398	1644.55	761.75
1033.5132	3059.8653	1641.5	758.6
1033.6227	3060.8902	1630.7	749.75
1033.7321	3061.9145	1617.1	734.6
1033.8415	3062.9381	1614.1	732.15
1033.9509	3063.9612	1626.9	729.15
1034.0602	3064.9835	1597.5	714.35
1034.1694	3066.0053	1585.95	704
1034.2787	3067.0264	1590.45	708.25
1034.3878	3068.0469	1575.65	692.6
1034.497	3069.0668	1573.4	688.95
1034.6061	3070.086	1554.75	671.35
1034.7151	3071.1046	1550.25	668.15
1034.8241	3072.1226	1542.45	655.9
1034.9331	3073.1399	1528.1	645.35
1035.042	3074.1567	1515.55	632.75
1035.1508	3075.1727	1504.45	620.25
1035.2597	3076.1882	1493.7	613.85
1035.3684	3077.203	1481.8	599.3
1035.4772	3078.2173	1484.95	601.05
1035.5859	3079.2308	1476.55	590.7
1035.6945	3080.2438	1466.1	581.25
1035.8031	3081.2561	1452.7	569.35
1035.9117	3082.2678	1449	567.05
1036.0202	3083.2789	1432.5	550
1036.1286	3084.2893	1431.15	550.75
1036.2371	3085.2991	1413.85	532.6
1036.3454	3086.3083	1416.05	530.45
1036.4538	3087.3169	1398.65	514.95
1036.562	3088.3248	1399.3	515.95
1036.6703	3089.3321	1396.6	513.95
1036.7785	3090.3388	1385.5	504.25
1036.8866	3091.3449	1382.7	500.8
1036.9948	3092.3503	1383.4	500.35
1037.1028	3093.3551	1372.75	490.15
1037.2108	3094.3593	1377.3	497.25
1037.3188	3095.3629	1365.15	481.35
1037.4267	3096.3658	1366.75	482
1037.5346	3097.3681	1358.8	476.9
1037.6425	3098.3698	1356.9	474.95
1037.7503	3099.3708	1358.55	472.65
1037.858	3100.3713	1349.05	466.35
1037.9657	3101.3711	1344.3	462.95
1038.0734	3102.3702	1466.9	449.5
1038.181	3103.3688	1340.75	457.2
1038.2886	3104.3667	1331.45	451.9
1038.3961	3105.364	1322.7	442.2
1038.5036	3106.3607	1322.65	438.85
1038.611	3107.3568	1323.9	439.9
1038.7184	3108.3522	1313.95	434.1
1038.8257	3109.347	1319.45	435.9
1038.933	3110.3412	1313.25	427.5
1039.0403	3111.3348	1302	419.55
1039.1475	3112.3277	1303.4	421.25
1039.2547	3113.32	1300.1	420.55
1039.3618	3114.3117	1297.95	416.4
1039.4689	3115.3028	1297.1	417.1
1039.5759	3116.2932	1291.05	410.6
1039.6829	3117.2831	1296.25	410.45
1039.7898	3118.2723	1295.2	414.1
1039.8967	3119.2608	1288.45	407.2
1040.0035	3120.2488	1288.45	405.4
1040.1103	3121.2361	1288.45	406.75
1040.2171	3122.2229	1282	400.2
1040.3238	3123.209	1276.9	392.3
1040.4305	3124.1944	1271.35	390.8
1040.5371	3125.1793	1274.05	389.15
1040.6437	3126.1635	1272.8	392.2
1040.7502	3127.1471	1271.45	390.4
1040.8567	3128.1301	1262.05	382.15
1040.9631	3129.1125	1258.75	378.95
1041.0695	3130.0942	1266.9	385.5
1041.1759	3131.0753	1270.85	381.8
1041.2822	3132.0558	1255.2	369.95
1041.3884	3133.0357	1260.55	379.55
1041.4946	3134.015	1258.75	375.2
1041.6008	3134.9936	1253.55	370.75
1041.7069	3135.9716	1263.8	361.4
1041.813	3136.949	1243.4	362.25
1041.919	3137.9258	1260.85	361.25
1042.025	3138.902	1244.95	359.7
1042.1309	3139.8775	1237.6	355.9
1042.2368	3140.8524	1236.1	355.05
1042.3427	3141.8267	1240.2	357.4
1042.4485	3142.8004	1233.8	352.9
1042.5542	3143.7735	1239.95	350.9
1042.6599	3144.7459	1236.85	353.25
1042.7656	3145.7178	1226.35	344.8
1042.8712	3146.689	1224.3	345.15
1042.9768	3147.6596	1220.35	336.75
1043.0823	3148.6295	1220.7	337.2
1043.1878	3149.5989	1223.05	340.35
1043.2932	3150.5676	1211.25	331.95
1043.3986	3151.5357	1221.45	341
1043.5039	3152.5032	1215.8	335.3
1043.6092	3153.4701	1210.05	330.3
1043.7145	3154.4364	1210.9	326.4
1043.8197	3155.402	1208.85	329.1
1043.9248	3156.367	1204.65	323.65
1044.03	3157.3315	1246.1	321.1
1044.135	3158.2952	1199.25	317.95
1044.24	3159.2584	1199.8	318.65
1044.345	3160.221	1189.25	305.6
1044.4499	3161.1829	1190.25	309.1
1044.5548	3162.1442	1196.65	316.35
1044.6596	3163.105	1187.25	306.15
1044.7644	3164.065	1186.1	305.55
1044.8692	3165.0245	1190.35	306.75
1044.9739	3165.9834	1182.85	304.5
1045.0785	3166.9416	1184.35	302.15
1045.1831	3167.8993	1181.5	300.75
1045.2877	3168.8563	1173.95	294.05
1045.3922	3169.8127	1175.85	295.55
1045.4966	3170.7684	1174.75	293.2
1045.6011	3171.7236	1169.3	286.95
1045.7054	3172.6782	1172.8	292.95
1045.8098	3173.6321	1172.8	289.65
1045.914	3174.5854	1167.2	282.8
1046.0183	3175.5381	1173.05	292.15
1046.1224	3176.4902	1163.6	282.9
1046.2266	3177.4417	1160.7	280.4
1046.3307	3178.3926	1159.1	277.85
1046.4347	3179.3428	1158.65	278.95
1046.5387	3180.2924	1154.5	275.35
1046.6427	3181.2415	1153.05	273.15
1046.7466	3182.1899	1157.2	274.05
1046.8504	3183.1377	1153.8	275.2
1046.9542	3184.0848	1158.05	272.65
1047.058	3185.0314	1151.2	272.75
1047.1617	3185.9773	1146.65	264.6
1047.2654	3186.9227	1151.6	269.5
1047.369	3187.8674	1149.85	267.55
1047.4726	3188.8115	1143.55	259.65
1047.5761	3189.755	1147.8	266.6
1047.6796	3190.6979	1142.55	261.75
1047.783	3191.6402	1136.75	257.9
1047.8864	3192.5818	1139.05	257.95
1047.9898	3193.5229	1141.55	255.05
1048.0931	3194.4633	1134.85	253.8
1048.1963	3195.4031	1138.1	256.05
1048.2995	3196.3423	1137.1	255.85
1048.4027	3197.2809	1136.75	255.25
1048.5058	3198.2189	1132.9	250.2
1048.6089	3199.1563	1143.5	257.9
1048.7119	3200.0931	1132	252.15
1048.8148	3201.0292	1124.7	245.1
1048.9178	3201.9648	1124.55	245.6
1049.0206	3202.8997	1128.75	245.75
1049.1235	3203.834	1122.15	241.8
1049.2262	3204.7677	1121.6	240.45
1049.329	3205.7008	1120.75	237.05
1049.4317	3206.6333	1123.65	245.1
1049.5343	3207.5652	1118.25	235.45
1049.6369	3208.4964	1117.35	235.2
1049.7394	3209.4271	1118.7	238.7
1049.8419	3210.3571	1112.55	233.95
1049.9444	3211.2865	1114.65	233.2
1050.0468	3212.2154	1116.15	235.35
1050.1491	3213.1436	1115.35	231.55
1050.2514	3214.0712	1117.6	232.3
1050.3537	3214.9982	1110.85	230.45
1050.4559	3215.9246	1107.75	225.15
1050.5581	3216.8503	1105.1	225.8
1050.6602	3217.7755	1105.3	221.1
1050.7623	3218.7001	1105.7	226.9
1050.8643	3219.624	1104.1	222.55
1050.9663	3220.5473	1106.1	224.55
1051.0682	3221.4701	1106.8	227.9
1051.1701	3222.3922	1100.6	217.8
1051.2719	3223.3137	1094.35	214.75
1051.3737	3224.2346	1099.7	218.15
1051.4754	3225.1549	1098.8	219.55
1051.5771	3226.0746	1093.65	214.35
1051.6788	3226.9937	1097.15	215.6
1051.7804	3227.9121	1093.05	214.2
1051.8819	3228.83	1091	211.45
1051.9834	3229.7473	1096.05	216.2
1052.0849	3230.6639	1089.7	209.4
1052.1863	3231.5799	1088.15	207.55
1052.2876	3232.4954	1082.9	203
1052.3889	3233.4102	1086.9	207.7
1052.4902	3234.3244	1086.05	205.35
1052.5914	3235.238	1084.45	202.6
1052.6926	3236.151	1106.95	200.95
1052.7937	3237.0634	1082.2	203.4
1052.8948	3237.9752	1085.25	204
1052.9958	3238.8864	1078.2	197.75
1053.0968	3239.797	1075.2	196.35
1053.1977	3240.7069	1074.75	192.45
1053.2986	3241.6163	1076.4	193.15
1053.3994	3242.5251	1072.85	193.85
1053.5002	3243.4332	1073.3	193.2
1053.6009	3244.3408	1070.25	188.85
1053.7016	3245.2477	1068.75	188.7
1053.8022	3246.154	1069.65	190.3
1053.9028	3247.0598	1069	188.6
1054.0034	3247.9649	1068.05	188.8
1054.1039	3248.8694	1061.9	181.6
1054.2043	3249.7733	1063.9	184.6
1054.3047	3250.6766	1065.7	186.45
1054.4051	3251.5793	1067.5	186.95
1054.5054	3252.4814	1060.35	181.15
1054.6056	3253.3829	1056.15	176.65
1054.7058	3254.2838	1059.05	177
1054.806	3255.1841	1059.65	180.4
1054.9061	3256.0838	1058.8	180
1055.0061	3256.9829	1053.9	175.05
1055.1062	3257.8814	1050.85	169.2
1055.2061	3258.7792	1050.6	169.45
1055.306	3259.6765	1048.7	167.5
1055.4059	3260.5731	1046.85	166.75
1055.5057	3261.4692	1042.7	162.05
1055.6055	3262.3647	1042.5	161.7
1055.7052	3263.2595	1042.75	161.25
1055.8049	3264.1538	1034.9	155.05
1055.9045	3265.0474	1037.5	158.7
1056.0041	3265.9404	1033.55	154.25
1056.1036	3266.8329	1032.5	156.2
1056.2031	3267.7247	1036.75	148.25
1056.3025	3268.616	1022.85	144.9
1056.4019	3269.5066	1022.15	144.25
1056.5013	3270.3966	1018.85	138.3
1056.6005	3271.286	1011.6	133.9
