Software Version:	3.9.2.0
Unit SN:	10000200
Spectrometer SN:	6960
Date:	3/26/2024 1:57:49 PM
Data Line Index:	25
Spectral Points:	2048
Integration time (ms):	125
Averages:	20
Delay (ms):	30000
Sequence Number:	1
Processing:	dark subtract
Laser Power (mW):	300
Laser Current (mA):	819
Laser Diode Temp (C):	25.1
Laser Case Temp (C):	27.3
System Temp (C):	27.4
Spectrometer Temp (C):	25.2
CCD Temp (C):	0.007
Secondary Temp (C):	20.007
Heatsink Temp (C):	22.58
CCDPCB Temp (C):	36.863
SecondaryPCB Temp (C):	34.462

Wavelength	RamanShift	Raw Counts	Dark Subtracted
787.061	30.1047	590.95	180.25
787.2016	32.3739	598.3	189.4
787.3422	34.6426	614	203.6
787.4828	36.9109	624.7	211.75
787.6235	39.1787	645.9	229.85
787.7642	41.4461	666.45	244.5
787.9049	43.7131	684	259.6
788.0456	45.9796	702.8	275.15
788.1863	48.2456	723.95	292.65
788.3271	50.5112	743.65	306.3
788.4679	52.7764	764.45	325.75
788.6087	55.0411	790.1	346.8
788.7496	57.3054	814.2	367.75
788.8904	59.5692	844.7	395.45
789.0313	61.8326	871.9	420
789.1722	64.0955	903.35	445.8
789.3132	66.3579	943	480.7
789.4541	68.6199	984.35	519.8
789.5951	70.8815	1058.25	590.25
789.7361	73.1426	1228.45	756.35
789.8771	75.4032	1637.85	1161.9
790.0181	77.6634	2659.65	2175.7
790.1592	79.9231	5185.15	4689.7
790.3003	82.1824	10942.55	10427.55
790.4414	84.4412	22913.2	22361.25
790.5825	86.6995	43408.2	42805.45
790.7237	88.9574	55120.5	54466.45
790.8648	91.2148	59480.75	58795.1
791.006	93.4717	60741.4	60032.15
791.1472	95.7282	61319.55	60597.85
791.2885	97.9842	61549.1	60823.05
791.4297	100.2398	61472.45	60742.7
791.571	102.4949	61403.65	60671.7
791.7123	104.7495	61332.4	60594.35
791.8536	107.0036	61067.45	60331.9
791.9949	109.2573	61274.05	60542.2
792.1363	111.5105	60932.95	60196.1
792.2777	113.7632	60940.55	60194.15
792.4191	116.0154	60982.2	60232
792.5605	118.2672	61112.85	60368.5
792.7019	120.5185	61084	60338
792.8434	122.7693	61023.4	60277.55
792.9849	125.0197	60686.75	59939.2
793.1264	127.2696	61235.4	60484.35
793.2679	129.519	61103.35	60342.65
793.4094	131.7679	61307.2	60538.4
793.551	134.0163	60687.85	59922.05
793.6926	136.2642	60906.2	60135.8
793.8342	138.5117	61235.75	60462.9
793.9758	140.7587	61037.1	60261.35
794.1175	143.0052	61012.25	60232.7
794.2591	145.2512	60664.1	59887.35
794.4008	147.4967	61051.35	60278.6
794.5425	149.7417	60898.6	60120.8
794.6842	151.9863	60880.9	60097.9
794.826	154.2304	60612.55	59826.8
794.9677	156.4739	60796.6	60008.3
795.1095	158.717	61030.25	60239.2
795.2513	160.9596	60805.05	60010.35
795.3931	163.2017	60459.4	59665.2
795.535	165.4433	60756.05	59955.05
795.6768	167.6844	60500.5	59698.7
795.8187	169.925	60602.95	59802.55
795.9606	172.1651	60385.5	59586.8
796.1025	174.4047	60449.15	59643.75
796.2445	176.6439	60411.85	59606.4
796.3864	178.8825	60294.95	59487.25
796.5284	181.1206	60502.9	59686.35
796.6704	183.3582	60442.65	59627.2
796.8124	185.5954	60260.75	59442.85
796.9544	187.832	60316.35	59495.65
797.0965	190.0681	60068.2	59242.15
797.2386	192.3037	60429.1	59592.2
797.3806	194.5388	60798.55	59960.55
797.5228	196.7734	59928.4	59091.1
797.6649	199.0075	60695.55	59859.1
797.807	201.2411	60407.05	59560.95
797.9492	203.4742	60846.25	59999.65
798.0914	205.7068	60771.35	59926.55
798.2336	207.9389	60742.55	59895.65
798.3758	210.1704	60682.3	59831.2
798.518	212.4015	61038.25	60190.05
798.6603	214.632	60598.55	59749.6
798.8025	216.862	61072.5	60232.7
798.9448	219.0915	60896.35	60059.05
799.0871	221.3205	60823.8	59989.55
799.2294	223.549	61179.8	60350.35
799.3718	225.777	61168.1	60338.05
799.5141	228.0044	61370.6	60539.6
799.6565	230.2314	61276.55	60451.95
799.7989	232.4578	61295.65	60468.25
799.9413	234.6837	61365.4	60531.95
800.0837	236.909	61904.95	61067.9
800.2262	239.1339	61125	60258.2
800.3687	241.3582	61464.85	60615.2
800.5111	243.582	61430.85	60550
800.6536	245.8053	61361.2	60496.3
800.7961	248.0281	61386	60518.55
800.9387	250.2503	61474.15	60603.2
801.0812	252.472	61179.5	60306.05
801.2238	254.6932	61355.2	60484.25
801.3664	256.9139	61254.75	60377.65
801.509	259.134	61712.55	60835.2
801.6516	261.3536	61142.9	60267.4
801.7942	263.5727	61523.5	60641.9
801.9369	265.7912	61316.25	60439.2
802.0795	268.0092	61378.95	60500
802.2222	270.2267	61413.9	60540.3
802.3649	272.4436	61189.85	60308.6
802.5076	274.6601	61380.35	60498.65
802.6504	276.8759	61478.9	60599.1
802.7931	279.0913	61337.35	60453.95
802.9359	281.3061	61378.7	60497.05
803.0787	283.5204	61413.3	60525.1
803.2215	285.7341	61379.15	60488.6
803.3643	287.9473	61649.1	60747.75
803.5071	290.16	61472.55	60574.65
803.6499	292.3721	61640.6	60751.45
803.7928	294.5837	61453.5	60556.55
803.9357	296.7947	61334.35	60441.25
804.0786	299.0052	61688.65	60797.9
804.2215	301.2152	61484.2	60591.15
804.3644	303.4246	61638.45	60752.4
804.5074	305.6334	61558.65	60671.15
804.6503	307.8418	61186.5	60293.55
804.7933	310.0495	61200.2	60301.6
804.9363	312.2568	61127.1	60225.8
805.0793	314.4635	61092.3	60190.85
805.2223	316.6696	61219.95	60316.45
805.3653	318.8752	61359.25	60448.55
805.5084	321.0802	60769.25	59865.05
805.6514	323.2847	61019.95	60112.6
805.7945	325.4887	61038.45	60135
805.9376	327.692	60878.15	59974.2
806.0807	329.8949	60986.65	60083.8
806.2238	332.0972	60821.2	59915.9
806.367	334.2989	60903	59996.4
806.5101	336.5001	61017.4	60105.8
806.6533	338.7007	60562.55	59650.25
806.7965	340.9008	60767.65	59859.25
806.9397	343.1003	60821.95	59909.75
807.0829	345.2992	60940.65	60030.05
807.2261	347.4976	60707.45	59792.3
807.3693	349.6955	60786.6	59866.85
807.5126	351.8927	60643.95	59723.3
807.6559	354.0895	60827.4	59896
807.7991	356.2856	60806.05	59885.55
807.9424	358.4812	60974.75	60056.65
808.0857	360.6763	60661.6	59740.15
808.2291	362.8707	60874.55	59956.2
808.3724	365.0646	60725.1	59803.05
808.5158	367.258	60739.05	59812.85
808.6591	369.4508	60561.3	59633.5
808.8025	371.643	60862.4	59930.35
808.9459	373.8346	60726.5	59796.9
809.0893	376.0257	60684.9	59749.15
809.2327	378.2162	60610.95	59681.2
809.3762	380.4062	60357.7	59421.35
809.5196	382.5956	60514.8	59576.85
809.6631	384.7844	60486.65	59555.9
809.8066	386.9726	60587.35	59657.3
809.9501	389.1603	60565.4	59641.3
810.0936	391.3474	60276.4	59304.8
810.2371	393.5339	60532.3	59602.65
810.3806	395.7199	60163.55	59235.4
810.5241	397.9052	60221.25	59297.95
810.6677	400.09	60344.45	59417.95
810.8113	402.2743	60457.95	59537.45
810.9548	404.4579	60269.1	59344.1
811.0984	406.641	60267.35	59339.3
811.2421	408.8235	60428.65	59505.95
811.3857	411.0054	60478.45	59557.5
811.5293	413.1868	60572.85	59641.75
811.673	415.3675	60555.3	59623.75
811.8166	417.5477	60574.4	59647.75
811.9603	419.7273	60528	59596.9
812.104	421.9064	60497.05	59559.3
812.2477	424.0848	60514.25	59579.7
812.3914	426.2627	60571.85	59637.85
812.5351	428.4399	60258.9	59323.95
812.6788	430.6166	60024.1	59082.1
812.8226	432.7928	60210	59269.1
812.9663	434.9683	59936.35	59001.25
813.1101	437.1432	59908.1	58974.3
813.2539	439.3176	60045.35	59116.05
813.3977	441.4914	59679.15	58750.2
813.5415	443.6645	59730.75	58797.05
813.6853	445.8371	59743.75	58808.9
813.8291	448.0091	59576.3	58641.25
813.973	450.1806	59485.75	58552.15
814.1168	452.3514	59498.65	58566.85
814.2607	454.5216	59360.75	58421.95
814.4046	456.6913	59433.35	58498.5
814.5485	458.8603	59472.65	58541.55
814.6924	461.0288	59307.15	58381
814.8363	463.1967	59495	58570.45
814.9802	465.3639	59487.9	58555.9
815.1241	467.5306	59154	58221.15
815.2681	469.6967	59350.9	58422.85
815.412	471.8622	59465.75	58538.4
815.556	474.0271	59377.15	58445.3
815.7	476.1914	59354.05	58419.8
815.844	478.3551	59375.85	58435.6
815.988	480.5182	59564.8	58635.25
816.132	482.6807	59303	58375.25
816.276	484.8426	59359.7	58441.35
816.4201	487.0039	59626.9	58700.7
816.5641	489.1647	59688.45	58758.2
816.7082	491.3248	59488.85	58553.75
816.8522	493.4843	59790.35	58863.6
816.9963	495.6432	59794.95	58864.15
817.1404	497.8015	59441.1	58497.1
817.2845	499.9592	59660.7	58709.5
817.4286	502.1163	59635.3	58689.7
817.5727	504.2728	59511.5	58575.25
817.7168	506.4287	59516.15	58593.1
817.861	508.5839	59249.65	58325.55
818.0051	510.7386	59298.3	58360.95
818.1493	512.8927	59313.65	58374.45
818.2935	515.0461	59216.85	58277.25
818.4377	517.199	59348.55	58407.5
818.5818	519.3512	59213.4	58270.8
818.726	521.5029	59181.2	58233.65
818.8703	523.6539	59227.05	58285.95
819.0145	525.8043	59076.9	58135.65
819.1587	527.9541	59214.5	58268.15
819.303	530.1033	59169.45	58224.4
819.4472	532.2519	59085.9	58144.65
819.5915	534.3999	59180.65	58240.6
819.7357	536.5472	59361.2	58419.85
819.88	538.694	59152.15	58215.15
820.0243	540.8401	59425.2	58479.7
820.1686	542.9856	59464.2	58508.3
820.3129	545.1305	59552.45	58588.85
820.4572	547.2748	59382.5	58420.15
820.6016	549.4185	59315.35	58349.5
820.7459	551.5615	59391.15	58430.35
820.8902	553.704	59294.5	58332.35
821.0346	555.8458	59176.65	58219.7
821.1789	557.987	59204.9	58252.35
821.3233	560.1276	59302.15	58343.05
821.4677	562.2675	59188.45	58230.6
821.6121	564.4069	59198.95	58239.6
821.7565	566.5456	59322.45	58367.3
821.9009	568.6837	59146.55	58194.35
822.0453	570.8212	59120.55	58169.7
822.1897	572.958	58816.6	57865.05
822.3342	575.0942	58922.25	57974.7
822.4786	577.2299	58733.15	57791.15
822.6231	579.3648	58700.6	57772.85
822.7675	581.4992	58596.15	57678.35
822.912	583.6329	58589.15	57672
823.0565	585.766	58620.5	57696.5
823.201	587.8985	58713.3	57785.65
823.3454	590.0304	58446.55	57493.95
823.4899	592.1616	58577.65	57628.1
823.6345	594.2922	58464.05	57509.35
823.779	596.4222	58349.55	57391.25
823.9235	598.5515	58364.25	57407.6
824.068	600.6802	58304.1	57347.05
824.2126	602.8083	58098.4	57149.3
824.3571	604.9358	58112.95	57156.75
824.5017	607.0626	58173.8	57218.95
824.6462	609.1888	58005.85	57043.3
824.7908	611.3144	58095.5	57128.8
824.9354	613.4393	57946.2	56980.2
825.08	615.5636	57917.2	56953.15
825.2246	617.6873	57967.5	57007.35
825.3692	619.8103	57865.55	56901.35
825.5138	621.9327	57872.85	56914.7
825.6584	624.0544	57873.3	56919.65
825.803	626.1756	57795.5	56839.4
825.9477	628.2961	57769.9	56808.6
826.0923	630.4159	57698.45	56737.85
826.237	632.5351	57680.1	56720.2
826.3816	634.6537	57811.6	56849.25
826.5263	636.7716	57633.05	56664.45
826.6709	638.8889	57657.1	56686.85
826.8156	641.0056	57678.05	56706.4
826.9603	643.1216	57649.2	56680.55
827.105	645.237	57707	56735.9
827.2497	647.3518	57596.6	56636.2
827.3944	649.4659	57592.15	56641.7
827.5391	651.5793	57581.5	56631.6
827.6838	653.6922	57560.25	56602.65
827.8285	655.8043	57413.25	56459.05
827.9733	657.9159	57565	56605.75
828.118	660.0268	57265.7	56307.05
828.2627	662.137	57381.95	56418.6
828.4075	664.2466	57418.9	56454.4
828.5522	666.3556	57350.65	56377.6
828.697	668.4639	57338.9	56378.65
828.8418	670.5716	57294.85	56343.05
828.9865	672.6786	57315.95	56356.55
829.1313	674.785	57219.95	56250.2
829.2761	676.8907	57209.7	56251.95
829.4209	678.9958	57231.6	56276.75
829.5657	681.1002	57225.55	56264.05
829.7105	683.204	57094.8	56123.15
829.8553	685.3072	57043.55	56075.65
830.0001	687.4097	57007.6	56036.4
830.1449	689.5115	57002.2	56035.1
830.2898	691.6127	57054	56093.45
830.4346	693.7132	56943.65	55983.75
830.5794	695.8131	56934.8	55955.05
830.7243	697.9123	56989.95	56019.05
830.8691	700.0109	56958.55	55983.55
831.014	702.1089	56806.55	55837.5
831.1588	704.2061	56854.45	55887.65
831.3037	706.3028	56829.25	55859.8
831.4486	708.3987	56824.8	55853.95
831.5935	710.4941	56801.3	55837.8
831.7383	712.5887	56867.4	55897.05
831.8832	714.6827	56869.3	55899.65
832.0281	716.7761	56926.9	55965.95
832.173	718.8688	57007.85	56047.5
832.3179	720.9608	56945.7	55974.2
832.4628	723.0522	56999.75	56018
832.6077	725.1429	56874	55894.95
832.7527	727.233	56921.6	55950.75
832.8976	729.3224	56655.55	55683.4
833.0425	731.4112	56674.1	55705.9
833.1874	733.4993	56598.9	55627.55
833.3324	735.5867	56483.85	55515.5
833.4773	737.6735	56428.6	55459.15
833.6222	739.7596	56319.4	55345.95
833.7672	741.845	56260.25	55290.5
833.9122	743.9298	56327.65	55357.45
834.0571	746.014	56204.8	55234.45
834.2021	748.0974	56147.7	55167.85
834.347	750.1802	56203.65	55227.1
834.492	752.2624	56000.6	55025.8
834.637	754.3439	55989.3	55011.6
834.782	756.4247	55955.95	54970.45
834.9269	758.5048	55870.4	54892.9
835.0719	760.5843	55928.1	54952.5
835.2169	762.6631	55987.85	55012.7
835.3619	764.7413	56072.15	55097.55
835.5069	766.8188	56185.8	55210.3
835.6519	768.8956	56248.05	55271.65
835.7969	770.9718	56297.75	55323.1
835.9419	773.0473	56139.95	55162
836.0869	775.1221	55991.35	55015.35
836.232	777.1962	55866.9	54891.05
836.377	779.2697	55670.45	54693.75
836.522	781.3426	55696.5	54702.05
836.667	783.4147	55771.7	54793.4
836.8121	785.4862	55784.15	54809.8
836.9571	787.557	55681.8	54700.85
837.1021	789.6271	55666.9	54685.55
837.2472	791.6966	55415.9	54441.85
837.3922	793.7654	55142	54170.8
837.5373	795.8335	55085.5	54109
837.6823	797.901	55029.75	54054.7
837.8274	799.9678	54889.35	53906.1
837.9724	802.0339	54814.15	53830
838.1175	804.0993	54844.8	53856.3
838.2626	806.1641	54696.25	53715.25
838.4076	808.2282	54606.95	53631.25
838.5527	810.2916	54518.25	53540.3
838.6978	812.3544	54638.65	53665.85
838.8428	814.4164	54326.35	53350.05
838.9879	816.4778	54372.4	53389.55
839.133	818.5385	54334.25	53352.5
839.2781	820.5986	54347.7	53365.65
839.4232	822.658	54371.7	53391.15
839.5682	824.7166	54353.85	53373.65
839.7133	826.7747	54320.7	53345.55
839.8584	828.832	54430.35	53453.35
840.0035	830.8886	54470.35	53488.45
840.1486	832.9446	54488.65	53508.75
840.2937	834.9999	54101.1	53125.2
840.4388	837.0545	54275.5	53290.2
840.5839	839.1085	54292.8	53308.65
840.729	841.1618	54180.2	53195.95
840.8741	843.2143	53853.65	52872.85
841.0192	845.2662	53757.5	52780.75
841.1643	847.3175	53812.55	52833.95
841.3095	849.368	53371.7	52391.7
841.4546	851.4179	53649.05	52669.85
841.5997	853.467	53352.85	52376.9
841.7448	855.5155	53434.65	52458.35
841.8899	857.5633	53112.7	52134.15
842.0351	859.6105	52887.4	51904.7
842.1802	861.6569	53085.5	52103.65
842.3253	863.7027	52624	51640.65
842.4704	865.7478	52786.75	51805.2
842.6156	867.7922	52649.15	51669.55
842.7607	869.8359	52835.65	51856.1
842.9058	871.8789	52385.8	51404.25
843.0509	873.9212	52635.75	51625
843.1961	875.9629	52699.8	51715.6
843.3412	878.0039	52679.3	51696.75
843.4863	880.0441	52531.05	51553.6
843.6315	882.0837	52552.7	51576
843.7766	884.1226	52487.15	51503.2
843.9218	886.1609	52388.9	51413.45
844.0669	888.1984	52116.9	51136.25
844.212	890.2352	52517.3	51537
844.3572	892.2714	52033.9	51044.5
844.5023	894.3069	52194	51213.5
844.6475	896.3416	51915.3	50934.15
844.7926	898.3757	51796.05	50812.9
844.9377	900.4091	51252.5	50269.85
845.0829	902.4418	51866.85	50880.5
845.228	904.4739	51488.9	50504.3
845.3732	906.5052	51524.1	50538.6
845.5183	908.5358	51267.15	50283.55
845.6635	910.5658	51066.5	50079.85
845.8086	912.595	50934.7	49951.25
845.9538	914.6236	50297.9	49315.4
846.0989	916.6515	51094.1	50112.85
846.2441	918.6786	50194.8	49209.15
846.3892	920.7051	50400.35	49412.5
846.5344	922.7309	50345	49362.95
846.6795	924.756	50423.8	49444.95
846.8246	926.7804	50159.35	49176.7
846.9698	928.8041	49522.75	48541
847.1149	930.8272	49909.7	48921.85
847.2601	932.8495	49796.5	48815.95
847.4052	934.8711	49338.5	48355.75
847.5504	936.892	49085.95	48104.4
847.6955	938.9123	49154.9	48168.9
847.8407	940.9318	48842.4	47861.9
847.9858	942.9506	48758.65	47777.9
848.131	944.9688	48714.8	47734.85
848.2761	946.9862	48123.2	47140.85
848.4213	949.003	48217	47234.4
848.5664	951.019	47721.2	46739.15
848.7115	953.0344	47757.6	46776.25
848.8567	955.0491	47687.6	46704.75
849.0018	957.063	47848.95	46865.7
849.147	959.0763	47912.9	46922.65
849.2921	961.0888	47553.7	46573.5
849.4373	963.1007	47769.85	46791.3
849.5824	965.1119	47744	46770.9
849.7275	967.1223	47428.35	46465.2
849.8727	969.1321	47656.1	46694.25
850.0178	971.1412	47317.95	46347.5
850.1629	973.1495	47105.3	46127.25
850.3081	975.1572	47277.8	46261.15
850.4532	977.1641	47111.35	46129.6
850.5983	979.1704	46926.2	45942.1
850.7435	981.1759	46909.45	45928.3
850.8886	983.1808	46729.25	45746.1
851.0337	985.1849	46736.7	45745.8
851.1788	987.1884	46671.45	45689.4
851.324	989.1911	46930.15	45951.4
851.4691	991.1932	46493.95	45516.2
851.6142	993.1945	46534.05	45556.55
851.7593	995.1951	46495.35	45514.55
851.9045	997.1951	46229.5	45240.25
852.0496	999.1943	46023.75	45044.4
852.1947	1001.1928	45816.75	44836.55
852.3398	1003.1906	45816.75	44838.5
852.4849	1005.1877	45548.55	44565.3
852.63	1007.1841	45341.45	44362.95
852.7751	1009.1798	45245.05	44269.9
852.9202	1011.1748	45037.3	44058.55
853.0653	1013.1691	44827.55	43846.45
853.2104	1015.1627	44275.7	43296.15
853.3555	1017.1556	44003.4	43025.65
853.5006	1019.1477	43962.1	42987.8
853.6457	1021.1392	43618.65	42648.75
853.7908	1023.1299	43256.95	42293.6
853.9359	1025.12	43350.1	42392.4
854.081	1027.1093	43088.2	42146.45
854.2261	1029.0979	43073.2	42132.3
854.3712	1031.0859	43039.2	42090.45
854.5163	1033.0731	42743.3	41780.85
854.6613	1035.0596	42677.4	41708.55
854.8064	1037.0454	42432.1	41459.85
854.9515	1039.0304	42153.45	41180.9
855.0965	1041.0148	41861.55	40887.65
855.2416	1042.9985	41680.75	40707
855.3867	1044.9814	41682.55	40707.95
855.5317	1046.9636	41427.55	40452.75
855.6768	1048.9452	41297.25	40323.8
855.8219	1050.926	41304.35	40332.8
855.9669	1052.9061	41119.5	40146.65
856.112	1054.8855	41084.7	40111.25
856.257	1056.8642	40924.1	39948.5
856.4021	1058.8421	40948.35	39967.8
856.5471	1060.8194	40828.7	39852
856.6921	1062.7959	40748.2	39773.7
856.8372	1064.7717	40697.8	39722.35
856.9822	1066.7469	40627.3	39651.35
857.1272	1068.7213	40564.15	39587.85
857.2723	1070.695	40443.4	39471.6
857.4173	1072.6679	40231.2	39258.15
857.5623	1074.6402	40201.45	39226.1
857.7073	1076.6117	40147.6	39168.25
857.8523	1078.5826	40030.55	39052.7
857.9973	1080.5527	39878.45	38903.4
858.1423	1082.5221	39820.85	38849.85
858.2873	1084.4908	39831.25	38860.1
858.4323	1086.4587	39825.25	38849.9
858.5773	1088.426	39889.75	38914.1
858.7223	1090.3925	39686.35	38705.85
858.8673	1092.3584	39619.95	38645.9
859.0123	1094.3235	39336.05	38364.35
859.1573	1096.2879	39184.4	38210.9
859.3022	1098.2515	39124.75	38156
859.4472	1100.2145	39134	38161.7
859.5922	1102.1767	39116.45	38141.3
859.7371	1104.1382	39178.9	38211
859.8821	1106.099	39251.05	38276.45
860.027	1108.0591	39268.15	38294.55
860.172	1110.0185	39286.9	38310.35
860.3169	1111.9771	39288.9	38315.45
860.4619	1113.9351	38944.2	37972.75
860.6068	1115.8923	38639.85	37666.4
860.7517	1117.8488	38346.25	37372.15
860.8967	1119.8045	38026.55	37058.1
861.0416	1121.7596	37895.9	36922.85
861.1865	1123.7139	37724.15	36752.5
861.3314	1125.6675	37588.95	36617
861.4763	1127.6204	37630.35	36657.9
861.6212	1129.5726	37536.6	36566.3
861.7661	1131.524	37463.5	36494.4
861.911	1133.4748	37339.4	36367.9
862.0559	1135.4248	37138.9	36166.95
862.2008	1137.3741	37016.55	36045.65
862.3457	1139.3226	36917.1	35942
862.4905	1141.2705	36854.85	35881.15
862.6354	1143.2176	36599.05	35623.8
862.7803	1145.164	36560.25	35583
862.9251	1147.1097	36429.8	35460
863.07	1149.0546	36353.35	35378.05
863.2148	1150.9989	36259.45	35290.8
863.3597	1152.9424	36128.75	35156.9
863.5045	1154.8852	35928.8	34950.9
863.6493	1156.8272	35806.1	34837.1
863.7942	1158.7686	35776	34795.8
863.939	1160.7092	35608.65	34636.2
864.0838	1162.6491	35456.5	34482.35
864.2286	1164.5883	35523.6	34552.1
864.3734	1166.5267	35481.1	34508.75
864.5182	1168.4644	35576.3	34606.45
864.663	1170.4014	35593.2	34619.85
864.8078	1172.3377	35783.1	34816.8
864.9526	1174.2732	35921.65	34952.3
865.0974	1176.2081	36026.85	35057.35
865.2421	1178.1421	36220.95	35247.4
865.3869	1180.0755	36394.45	35425.3
865.5317	1182.0082	36305.85	35340
865.6764	1183.9401	36305.9	35339.3
865.8212	1185.8713	36145.8	35182.55
865.9659	1187.8017	35868.15	34916.4
866.1106	1189.7315	35633.8	34688.25
866.2554	1191.6605	35195.6	34250.9
866.4001	1193.5888	34918.85	33969.1
866.5448	1195.5163	34823.3	33864.45
866.6895	1197.4432	34601.3	33633.45
866.8342	1199.3693	34518	33552.05
866.9789	1201.2947	34383.6	33414.15
867.1236	1203.2193	34226.3	33261.65
867.2683	1205.1432	34188.15	33221.65
867.413	1207.0664	34062.55	33095.65
867.5576	1208.9889	33956.65	32986.9
867.7023	1210.9106	33889.85	32925.65
867.847	1212.8316	33784.4	32818.75
867.9916	1214.7519	33770.35	32794.8
868.1363	1216.6715	33647.75	32682.95
868.2809	1218.5903	33590.25	32625.25
868.4255	1220.5084	33524.25	32558.5
868.5701	1222.4257	33538.85	32576.7
868.7148	1224.3424	33352.35	32390.85
868.8594	1226.2583	33327.6	32358
869.004	1228.1735	33354.1	32389.65
869.1486	1230.0879	33238.05	32275.9
869.2932	1232.0016	33270.15	32304.25
869.4377	1233.9146	33220.1	32253.75
869.5823	1235.8269	33027.75	32063.2
869.7269	1237.7384	32980.35	32022.2
869.8715	1239.6492	32728.55	31767.3
870.016	1241.5592	32637.95	31674.25
870.1606	1243.4686	32468.8	31504.7
870.3051	1245.3772	32436.65	31472.25
870.4496	1247.285	32342.8	31381.8
870.5941	1249.1922	32245.4	31281.45
870.7387	1251.0986	32236.1	31273.1
870.8832	1253.0042	32053.25	31091.65
871.0277	1254.9092	32042.25	31079.4
871.1722	1256.8134	32073.85	31116.9
871.3167	1258.7169	32148.65	31185.9
871.4611	1260.6196	32194.15	31232.8
871.6056	1262.5216	32329.1	31364.7
871.7501	1264.4229	32359.45	31399.9
871.8945	1266.3234	32438.95	31477.15
872.039	1268.2232	32454	31487.65
872.1834	1270.1223	32391.05	31429.1
872.3278	1272.0207	32315.5	31350.8
872.4723	1273.9183	32234.7	31266
872.6167	1275.8151	32104.4	31140.75
872.7611	1277.7113	32004.95	31047.8
872.9055	1279.6067	31860.15	30901.1
873.0499	1281.5014	31746.8	30784.9
873.1943	1283.3953	31745.25	30784.45
873.3386	1285.2885	31859.15	30899.3
873.483	1287.181	31869.9	30909.65
873.6274	1289.0727	32013.75	31053.8
873.7717	1290.9637	32032.35	31069.5
873.9161	1292.854	32156	31194
874.0604	1294.7435	32092.95	31133.6
874.2047	1296.6323	32115.6	31157.75
874.349	1298.5204	32137.95	31173.05
874.4933	1300.4077	32181.2	31219.95
874.6376	1302.2943	32158	31200.65
874.7819	1304.1802	32072.65	31108.9
874.9262	1306.0653	31815.4	30854.45
875.0705	1307.9497	31559.25	30601
875.2147	1309.8333	31343.7	30386.5
875.359	1311.7162	31220.85	30258.95
875.5032	1313.5984	31157.5	30196.4
875.6475	1315.4798	31062.55	30090.3
875.7917	1317.3605	31007.85	30043.9
875.9359	1319.2405	31052.5	30090.05
876.0801	1321.1197	30940.2	29978.6
876.2243	1322.9982	30706.15	29740.15
876.3685	1324.876	30610	29650.25
876.5127	1326.753	30434.4	29472.6
876.6569	1328.6293	30390.45	29428
876.801	1330.5048	30333.4	29368.9
876.9452	1332.3796	30204.7	29241.9
877.0893	1334.2537	30163.9	29180.15
877.2335	1336.127	30058.9	29097.2
877.3776	1337.9996	29979.85	29020.45
877.5217	1339.8714	29926.75	28967.75
877.6658	1341.7426	29888.4	28882.65
877.8099	1343.6129	29785.25	28824.75
877.954	1345.4826	29677.4	28717.05
878.0981	1347.3515	29688.4	28724.4
878.2422	1349.2196	29630.65	28669.4
878.3862	1351.087	29637.6	28675.05
878.5303	1352.9537	29562.3	28603.65
878.6743	1354.8197	29671.5	28711.05
878.8184	1356.6849	29772.85	28813.1
878.9624	1358.5493	29735.3	28773.55
879.1064	1360.4131	29766	28811.05
879.2504	1362.276	29729.6	28773.6
879.3944	1364.1383	29603.95	28643.65
879.5384	1365.9998	29343.5	28377.2
879.6823	1367.8606	28999.6	28039.55
879.8263	1369.7206	28727.3	27767
879.9702	1371.5799	28455.8	27493.85
880.1142	1373.4384	28256	27296.35
880.2581	1375.2962	28069.7	27108.5
880.402	1377.1533	27678.15	26721.6
880.5459	1379.0096	27385.55	26434.3
880.6898	1380.8652	27087.55	26136.5
880.8337	1382.7201	26838.55	25887.1
880.9776	1384.5742	26547.05	25587
881.1215	1386.4275	26337.6	25382.4
881.2653	1388.2802	26175.1	25219.8
881.4092	1390.132	26035.8	25078.95
881.553	1391.9832	25936.75	24975.1
881.6968	1393.8336	25752.5	24793.85
881.8406	1395.6832	25639.45	24682.85
881.9844	1397.5322	25547.2	24590.5
882.1282	1399.3803	25467.2	24505.65
882.272	1401.2278	25359.1	24404.85
882.4158	1403.0745	25275.5	24319.9
882.5595	1404.9204	25126.65	24169.55
882.7033	1406.7656	25128	24173
882.847	1408.6101	25053.8	24096.45
882.9908	1410.4538	24980.6	24028.8
883.1345	1412.2968	24927.15	23972.8
883.2782	1414.139	24852.5	23897.05
883.4219	1415.9805	24932.15	23978.8
883.5656	1417.8213	24941.8	23966.15
883.7092	1419.6613	24930.2	23977.1
883.8529	1421.5006	25032	24078.15
883.9965	1423.3391	25114.3	24160.85
884.1402	1425.1769	25272.45	24318.3
884.2838	1427.0139	25548.9	24595.65
884.4274	1428.8502	25993.7	25037.6
884.571	1430.6858	26335.75	25382.85
884.7146	1432.5206	26549.95	25596.45
884.8582	1434.3547	26716.7	25762.9
885.0018	1436.188	26657.35	25701.95
885.1453	1438.0206	26567.4	25614.8
885.2889	1439.8524	26366.55	25410.3
885.4324	1441.6835	26293.05	25338.6
885.5759	1443.5139	26158.3	25203.3
885.7194	1445.3435	26003.1	25048.95
885.8629	1447.1724	25944.2	24992.35
886.0064	1449.0005	25889.85	24939.3
886.1499	1450.8279	25741.9	24791.95
886.2933	1452.6545	25662	24711.75
886.4368	1454.4804	25683.7	24734.3
886.5802	1456.3056	25648.2	24693.8
886.7237	1458.13	25559.35	24611.95
886.8671	1459.9536	25397.95	24450.1
887.0105	1461.7766	25080.25	24127.2
887.1539	1463.5987	24779.6	23825.7
887.2972	1465.4202	24451.9	23499.15
887.4406	1467.2409	24138.4	23183.55
887.584	1469.0608	23875.65	22922.45
887.7273	1470.88	23669.35	22719
887.8706	1472.6984	23449.85	22500.5
888.0139	1474.5161	23209.3	22257.4
888.1572	1476.3331	23032.35	22080.7
888.3005	1478.1493	22970.35	22019.7
888.4438	1479.9648	22850.25	21897.9
888.5871	1481.7795	22710.95	21758.6
888.7303	1483.5935	22663.65	21712.75
888.8736	1485.4067	22574.8	21621.75
889.0168	1487.2192	22499.2	21548.9
889.16	1489.031	22457.55	21505.65
889.3032	1490.842	22371.2	21422.1
889.4464	1492.6522	22303.85	21354.05
889.5896	1494.4618	22215.15	21262.8
889.7327	1496.2705	22200.65	21250.85
889.8759	1498.0785	22133.85	21184
890.019	1499.8858	22066.45	21114.2
890.1622	1501.6924	22014.8	21066.7
890.3053	1503.4981	21941.2	20990.25
890.4484	1505.3032	21899.3	20951.85
890.5914	1507.1075	21835.6	20884.65
890.7345	1508.911	21794.9	20842.85
890.8776	1510.7138	21712.25	20759
891.0206	1512.5159	21645.65	20695.65
891.1637	1514.3172	21584.65	20636.35
891.3067	1516.1178	21455.45	20505.1
891.4497	1517.9176	21436.75	20485.45
891.5927	1519.7166	21348.3	20402.6
891.7357	1521.515	21264.95	20311.9
891.8786	1523.3126	21187.1	20241.45
892.0216	1525.1094	21126.6	20178.55
892.1645	1526.9055	21031.3	20087.6
892.3074	1528.7008	20962.8	20017.65
892.4503	1530.4954	20843.6	19892.55
892.5932	1532.2893	20808.85	19866.85
892.7361	1534.0824	20714.55	19770.05
892.879	1535.8747	20684.55	19744.25
893.0218	1537.6663	20654.3	19712.45
893.1647	1539.4572	20591.3	19647.05
893.3075	1541.2473	20533.1	19593.05
893.4503	1543.0367	20447.95	19509.1
893.5931	1544.8253	20392.75	19447.05
893.7359	1546.6132	20389.35	19442.55
893.8787	1548.4003	20287.5	19336.8
894.0214	1550.1867	20321.5	19374.9
894.1642	1551.9723	20258	19317.1
894.3069	1553.7572	20259.65	19321.05
894.4496	1555.5414	20200.05	19260.7
894.5923	1557.3247	20239.05	19305.9
894.735	1559.1074	20238.8	19303.95
894.8777	1560.8893	20275.25	19346.15
895.0204	1562.6705	20313	19379.3
895.163	1564.4509	20343.25	19412.4
895.3056	1566.2305	20356.5	19426.75
895.4482	1568.0094	20408.65	19477.55
895.5908	1569.7876	20353.45	19423.4
895.7334	1571.565	20373.2	19434.75
895.876	1573.3417	20324.1	19388.55
896.0186	1575.1176	20277.9	19346.65
896.1611	1576.8928	20250.6	19324.75
896.3036	1578.6672	20100.6	19177.1
896.4461	1580.4409	19994.45	19074.9
896.5886	1582.2138	19906	18981
896.7311	1583.986	19806.3	18878.9
896.8736	1585.7575	19773.45	18843.6
897.0161	1587.5282	19688	18763.1
897.1585	1589.2981	19651.05	18730.65
897.3009	1591.0673	19585.9	18664.4
897.4433	1592.8358	19625.65	18702.1
897.5857	1594.6035	19626.1	18696.45
897.7281	1596.3704	19540.15	18611
897.8705	1598.1366	19521.75	18594.1
898.0128	1599.9021	19501.6	18579.6
898.1551	1601.6668	19513	18585.7
898.2975	1603.4308	19545.7	18617.05
898.4398	1605.194	19629.85	18698.6
898.5821	1606.9564	19659.3	18746.6
898.7243	1608.7182	19736.3	18823.05
898.8666	1610.4791	19879.8	18973.4
899.0088	1612.2394	20017.6	19108.4
899.1511	1613.9988	20094.75	19182.5
899.2933	1615.7576	20230.25	19315.5
899.4355	1617.5156	20403	19471.2
899.5776	1619.2728	20495.4	19565.9
899.7198	1621.0293	20556.85	19630.55
899.862	1622.785	20457.15	19535.65
900.0041	1624.54	20295.95	19377.5
900.1462	1626.2942	20120.6	19201.45
900.2883	1628.0477	19777.15	18856.85
900.4304	1629.8005	19551.25	18628.7
900.5725	1631.5525	19362.1	18445.6
900.7145	1633.3037	19143.35	18225.7
900.8566	1635.0542	19044	18128.35
900.9986	1636.804	18919.4	18003.2
901.1406	1638.553	18864.9	17893.2
901.2826	1640.3013	18726	17807.25
901.4245	1642.0488	18659.55	17739.55
901.5665	1643.7955	18681.2	17764.5
901.7085	1645.5416	18682.4	17769.05
901.8504	1647.2868	18732.15	17816.5
901.9923	1649.0313	18731.15	17811.75
902.1342	1650.7751	18846.75	17925.25
902.2761	1652.5181	18930.15	18013.5
902.4179	1654.2604	19009.5	18093.8
902.5598	1656.0019	19156.3	18243.2
902.7016	1657.7427	19319.5	18402.75
902.8434	1659.4828	19529.15	18610.6
902.9852	1661.222	19592.85	18672.4
903.127	1662.9606	19615.15	18694.2
903.2687	1664.6984	19423.85	18501.6
903.4105	1666.4354	19098.3	18173.05
903.5522	1668.1717	18659.1	17735.7
903.6939	1669.9072	18209.95	17285.35
903.8356	1671.642	17843.85	16919.2
903.9773	1673.3761	17548.15	16626.95
904.119	1675.1094	17301.95	16381.65
904.2606	1676.8419	17074.55	16156.35
904.4022	1678.5737	16853.3	15931.35
904.5439	1680.3048	16716.8	15791.9
904.6855	1682.0351	16597.2	15678
904.827	1683.7646	16497.95	15573.35
904.9686	1685.4934	16427.05	15504.45
905.1101	1687.2215	16299.25	15381.1
905.2517	1688.9488	16205	15289.05
905.3932	1690.6754	16132.3	15213.3
905.5347	1692.4012	16079.95	15160.85
905.6761	1694.1263	15990.6	15069.9
905.8176	1695.8506	15946.1	15025.1
905.9591	1697.5742	15884.15	14969
906.1005	1699.297	15790.55	14879.1
906.2419	1701.0191	15700.9	14790.85
906.3833	1702.7404	15658.15	14746.35
906.5246	1704.461	15560.15	14643.4
906.666	1706.1808	15504.75	14588.05
906.8073	1707.8999	15485.25	14573
906.9487	1709.6182	15399.8	14489.7
907.09	1711.3358	15362.8	14456.4
907.2313	1713.0527	15311.65	14406.1
907.3725	1714.7688	15252.15	14338.3
907.5138	1716.4841	15173.1	14257.15
907.655	1718.1987	15188.6	14269.75
907.7962	1719.9126	15118.6	14209.2
907.9374	1721.6257	15060.35	14154.6
908.0786	1723.338	14993.9	14085.75
908.2198	1725.0496	14911.3	14002.15
908.3609	1726.7605	14896.7	13985.1
908.502	1728.4706	14857.8	13948.85
908.6431	1730.18	14747.6	13837.35
908.7842	1731.8886	14735.85	13828.65
908.9253	1733.5964	14725.85	13797.55
909.0664	1735.3036	14655.2	13744.4
909.2074	1737.0099	14633.3	13725
909.3484	1738.7156	14589.25	13684.9
909.4894	1740.4204	14503.7	13590.95
909.6304	1742.1246	14496.35	13583.2
909.7714	1743.8279	14436.6	13528.95
909.9123	1745.5306	14429.55	13524.2
910.0532	1747.2325	14361.05	13455.75
910.1941	1748.9336	14313.9	13405.5
910.335	1750.634	14263.25	13352.1
910.4759	1752.3336	14236.4	13330.4
910.6168	1754.0325	14210	13305.65
910.7576	1755.7307	14186.05	13282.75
910.8984	1757.4281	14154.9	13249.9
911.0392	1759.1247	14164.7	13245.6
911.18	1760.8206	14126.75	13209.35
911.3208	1762.5158	14090.5	13174.35
911.4615	1764.2102	14051.6	13139.75
911.6022	1765.9039	13984.6	13077.2
911.7429	1767.5968	13960.5	13056.75
911.8836	1769.289	13924.65	13020.25
912.0243	1770.9804	13855.65	12946.95
912.1649	1772.6711	13861.55	12950.5
912.3056	1774.361	13815.8	12902.35
912.4462	1776.0502	13802.8	12892.6
912.5868	1777.7386	13748.6	12836.55
912.7274	1779.4263	13721.2	12814.85
912.8679	1781.1132	13685.55	12784.25
913.0084	1782.7994	13633.15	12732.4
913.149	1784.4849	13613.35	12712.15
913.2895	1786.1696	13579.4	12672.55
913.4299	1787.8535	13537.4	12634.55
913.5704	1789.5367	13516.9	12615.7
913.7108	1791.2192	13502.45	12602.3
913.8513	1792.9009	13459.05	12526.85
913.9917	1794.5818	13434.65	12526.25
914.132	1796.2621	13382.6	12477.85
914.2724	1797.9415	13358.25	12448
914.4128	1799.6202	13339.05	12429.2
914.5531	1801.2982	13288.3	12379.6
914.6934	1802.9755	13288.9	12379
914.8337	1804.6519	13241.7	12332.1
914.9739	1806.3277	13161.7	12256.65
915.1142	1808.0027	13124.8	12225.15
915.2544	1809.6769	13123.5	12223.85
915.3946	1811.3504	13070	12169.95
915.5348	1813.0231	13059.85	12159.45
915.675	1814.6951	13050.95	12149.8
915.8151	1816.3664	13047.95	12142.1
915.9553	1818.0369	13019.05	12112.4
916.0954	1819.7067	12983.35	12078.1
916.2355	1821.3757	12904.75	11997.25
916.3755	1823.044	12917.3	12006.85
916.5156	1824.7115	12884.3	11973.9
916.6556	1826.3783	12827.8	11922.65
916.7956	1828.0443	12783.75	11878.65
916.9356	1829.7096	12764.6	11858.45
917.0756	1831.3741	12742.6	11836.15
917.2155	1833.0379	12699.9	11796.4
917.3555	1834.701	12692.55	11790.55
917.4954	1836.3633	12656.1	11757
917.6353	1838.0248	12638	11734.95
917.7751	1839.6856	12614.25	11711
917.915	1841.3457	12586.35	11681.4
918.0548	1843.005	12574.5	11670
918.1946	1844.6636	12544.85	11638.95
918.3344	1846.3214	12513.15	11609.55
918.4742	1847.9785	12483.3	11581.45
918.6139	1849.6349	12487.15	11579.9
918.7537	1851.2904	12465.8	11548.95
918.8934	1852.9453	12415.65	11505.8
919.0331	1854.5994	12383.9	11474.3
919.1727	1856.2528	12382.3	11468.9
919.3124	1857.9054	12368.35	11462.65
919.452	1859.5572	12342.05	11438.05
919.5916	1861.2083	12318	11413.05
919.7312	1862.8587	12327.75	11422.85
919.8708	1864.5084	12286.6	11376.15
920.0103	1866.1572	12246.1	11336.05
920.1498	1867.8054	12170.1	11262.75
920.2893	1869.4528	12150.7	11242.25
920.4288	1871.0994	12156.8	11246.9
920.5683	1872.7453	12095.35	11186.7
920.7077	1874.3905	12067	11155.45
920.8471	1876.0349	12048.7	11140.9
920.9865	1877.6786	12032.15	11123.6
921.1259	1879.3215	12028.25	11120.2
921.2653	1880.9637	12000.95	11093.75
921.4046	1882.6051	11979.45	11075.85
921.5439	1884.2458	11930	11022.85
921.6832	1885.8858	11893.35	10986.8
921.8225	1887.525	11882.05	10974.45
921.9617	1889.1634	11829.6	10921.9
922.101	1890.8011	11796.75	10887.5
922.2402	1892.4381	11765	10857.95
922.3794	1894.0743	11750.1	10847.2
922.5185	1895.7098	11712.7	10806.25
922.6577	1897.3446	11720.8	10812.9
922.7968	1898.9786	11687.1	10776.55
922.9359	1900.6118	11652.75	10746.85
923.075	1902.2443	11613	10707.05
923.214	1903.8761	11574.5	10667.75
923.3531	1905.5071	11511.7	10605.3
923.4921	1907.1374	11479.1	10574.35
923.6311	1908.7669	11492.7	10588.7
923.77	1910.3957	11430.55	10527.25
923.909	1912.0237	11390.55	10488.1
924.0479	1913.651	11349.25	10444.4
924.1868	1915.2776	11328.05	10425.35
924.3257	1916.9034	11292.6	10389.65
924.4646	1918.5285	11231.35	10329.5
924.6034	1920.1528	11172.9	10269.35
924.7422	1921.7764	11190.25	10286.7
924.881	1923.3992	11160.7	10258.7
925.0198	1925.0213	11043.8	10140.85
925.1586	1926.6427	11026.75	10122.5
925.2973	1928.2633	11097.25	10124.35
925.436	1929.8832	11023.55	10118.25
925.5747	1931.5023	10954.65	10051.4
925.7134	1933.1207	10928.1	10024.3
925.852	1934.7383	10881.85	9975.8
925.9906	1936.3552	10853.9	9953.4
926.1292	1937.9714	10842.25	9937.35
926.2678	1939.5868	10804.2	9899.8
926.4064	1941.2015	10728.75	9823.85
926.5449	1942.8154	10703.2	9796.4
926.6834	1944.4286	10667.7	9760.9
926.8219	1946.041	10639	9714.5
926.9604	1947.6528	10594.45	9684.65
927.0988	1949.2637	10578.8	9675.15
927.2372	1950.8739	10538	9636.9
927.3756	1952.4834	10526.65	9624.65
927.514	1954.0921	10491.05	9587.75
927.6523	1955.7001	10439.65	9533.15
927.7907	1957.3074	10415.85	9519.3
927.929	1958.9139	10384.45	9488.25
928.0673	1960.5197	10364.8	9464.5
928.2055	1962.1247	10322.65	9423.7
928.3438	1963.729	10271.45	9373.45
928.482	1965.3325	10245.65	9324.45
928.6202	1966.9353	10198.8	9302.45
928.7584	1968.5374	10197.75	9299.55
928.8965	1970.1387	10141.75	9244.35
929.0346	1971.7393	10117.95	9217.75
929.1727	1973.3392	10097.7	9201.85
929.3108	1974.9383	10030.35	9135.8
929.4489	1976.5366	9981.2	9085.65
929.5869	1978.1342	9993.5	9098
929.7249	1979.7311	9946.55	9051.45
929.8629	1981.3273	9929.05	9035.85
930.0009	1982.9227	9906	9008.9
930.1388	1984.5173	9868.15	8974.3
930.2767	1986.1112	9810	8915.3
930.4146	1987.7044	9827	8934.3
930.5525	1989.2968	9790.95	8892.8
930.6904	1990.8885	9752.3	8856
930.8282	1992.4795	9727.75	8835.3
930.966	1994.0697	9696.5	8806.2
931.1038	1995.6592	9662.45	8769.15
931.2415	1997.2479	9652.1	8755.25
931.3793	1998.8359	9603.4	8710.55
931.517	2000.4232	9595.65	8706.55
931.6547	2002.0097	9552.1	8667.75
931.7923	2003.5955	9510.85	8622.4
931.93	2005.1805	9520.7	8631
932.0676	2006.7648	9475.6	8585.5
932.2052	2008.3484	9463.75	8573.2
932.3427	2009.9312	9458.2	8570.7
932.4803	2011.5133	9423	8537.7
932.6178	2013.0946	9391.75	8501.75
932.7553	2014.6752	9352.9	8464.4
932.8928	2016.2551	9361.25	8471.8
933.0302	2017.8342	9310.45	8418.05
933.1676	2019.4126	9271.25	8383.4
933.305	2020.9902	9226.3	8341.15
933.4424	2022.5672	9227.95	8342.3
933.5798	2024.1433	9204.1	8312.8
933.7171	2025.7188	9186.9	8303.45
933.8544	2027.2935	9139.15	8252.55
933.9917	2028.8674	9111.6	8225.8
934.129	2030.4406	9073.65	8190.15
934.2662	2032.0131	9060.35	8178.2
934.4034	2033.5849	9038.4	8148.4
934.5406	2035.1559	8999.6	8113.6
934.6778	2036.7261	8977.15	8090.6
934.8149	2038.2957	8968.7	8079.6
934.952	2039.8645	8951.85	8059.5
935.0891	2041.4325	8955.85	8059.6
935.2262	2042.9998	8906.2	8015.85
935.3632	2044.5664	8889.2	8000.9
935.5002	2046.1323	8860.8	7974.65
935.6372	2047.6974	8822.95	7938.45
935.7742	2049.2617	8793.5	7910
935.9111	2050.8254	8822.05	7912.85
936.048	2052.3883	8778.1	7888.4
936.1849	2053.9504	8764.7	7873.2
936.3218	2055.5118	8735.45	7843.85
936.4586	2057.0725	8717.5	7826.25
936.5955	2058.6325	8699.35	7811.45
936.7323	2060.1917	8669.8	7782.95
936.869	2061.7502	8650.05	7761.8
937.0058	2063.3079	8607.25	7723.55
937.1425	2064.8649	8581.85	7694
937.2792	2066.4212	8569.2	7680.3
937.4159	2067.9767	8541.35	7653.7
937.5525	2069.5315	8499.35	7610.05
937.6891	2071.0856	8453.1	7566.05
937.8257	2072.6389	8430.55	7544.55
937.9623	2074.1915	8424.6	7540.85
938.0989	2075.7433	8365.25	7477.6
938.2354	2077.2945	8344.5	7455.05
938.3719	2078.8448	8337.55	7446.45
938.5084	2080.3945	8315.4	7423.35
938.6448	2081.9434	8313.5	7421.5
938.7812	2083.4916	8291.65	7397.4
938.9176	2085.039	8261.05	7364.15
939.054	2086.5857	8228.3	7330.45
939.1903	2088.1317	8238.35	7341.95
939.3267	2089.677	8198.8	7297.9
939.463	2091.2215	8168.2	7269.3
939.5992	2092.7652	8180.75	7282.3
939.7355	2094.3083	8128.55	7229.9
939.8717	2095.8506	8111.3	7221.4
940.0079	2097.3921	8127.75	7235.15
940.1441	2098.933	8097.15	7204.65
940.2802	2100.4731	8065.15	7171.3
940.4163	2102.0124	8061.5	7158.6
940.5524	2103.5511	8050.25	7156.5
940.6885	2105.089	8010.95	7115.25
940.8245	2106.6261	7979.2	7086.5
940.9606	2108.1626	7961.6	7070.35
941.0965	2109.6983	7996.7	7076.15
941.2325	2111.2332	7938.95	7046.1
941.3684	2112.7675	7902.8	7007
941.5044	2114.301	7886.75	6992.15
941.6403	2115.8337	7870.55	6977.6
941.7761	2117.3657	7865	6970.2
941.912	2118.897	7848.05	6952.05
942.0478	2120.4276	7816.6	6917.25
942.1835	2121.9575	7791.9	6897
942.3193	2123.4866	7797.9	6901.15
942.455	2125.0149	7785.2	6889.55
942.5907	2126.5426	7721.55	6832.05
942.7264	2128.0695	7704.55	6814.25
942.8621	2129.5956	7684.3	6798.9
942.9977	2131.1211	7678	6784.75
943.1333	2132.6458	7656.45	6765.1
943.2689	2134.1698	7652.8	6758.6
943.4044	2135.693	7644.7	6745.65
943.54	2137.2155	7624.6	6725.4
943.6755	2138.7373	7596.05	6703.3
943.8109	2140.2584	7557.45	6669.85
943.9464	2141.7787	7541.8	6651.9
944.0818	2143.2983	7498.15	6614.15
944.2172	2144.8171	7496	6613.1
944.3526	2146.3353	7472.15	6581.65
944.4879	2147.8527	7430.6	6540.45
944.6232	2149.3693	7433.65	6539.15
944.7585	2150.8853	7420.95	6524.3
944.8938	2152.4005	7370.75	6476.5
945.029	2153.9149	7376.55	6481.05
945.1642	2155.4287	7430.85	6432.15
945.2994	2156.9417	7359.65	6464.9
945.4346	2158.454	7344.65	6452
945.5697	2159.9655	7299.75	6410.35
945.7048	2161.4764	7289.2	6398.95
945.8399	2162.9865	7276	6385.2
945.9749	2164.4958	7227.1	6335.85
946.1099	2166.0045	7221.8	6330.85
946.2449	2167.5124	7210.4	6319.5
946.3799	2169.0195	7191.9	6300.05
946.5148	2170.526	7191.4	6296.1
946.6498	2172.0317	7183	6291.05
946.7846	2173.5367	7160.35	6268.05
946.9195	2175.0409	7132.95	6239.6
947.0543	2176.5445	7131.7	6238.45
947.1891	2178.0473	7103.15	6206.85
947.3239	2179.5494	7057.3	6159.2
947.4587	2181.0507	7030.05	6135.65
947.5934	2182.5513	7023.3	6132.15
947.7281	2184.0512	7028.35	6135.75
947.8628	2185.5504	7017.65	6126.7
947.9974	2187.0488	6952.3	6062.45
948.132	2188.5465	6924.85	6036.2
948.2666	2190.0435	6917.3	6025.9
948.4012	2191.5397	6887.85	5995.9
948.5357	2193.0353	6877.8	5984.25
948.6702	2194.5301	6865.95	5969.7
948.8047	2196.0241	6822.8	5922.4
948.9392	2197.5175	6810.3	5911.15
949.0736	2199.0101	6804.2	5902.65
949.208	2200.502	6770.35	5875.25
949.3424	2201.9931	6752	5859.15
949.4767	2203.4835	6711.15	5821.6
949.611	2204.9733	6691	5784.9
949.7453	2206.4622	6701.25	5812.35
949.8796	2207.9505	6665.7	5775.85
950.0138	2209.438	6617.5	5731.9
950.148	2210.9248	6629.35	5736.7
950.2822	2212.4109	6594.2	5701.6
950.4164	2213.8962	6569.95	5670.6
950.5505	2215.3809	6577.25	5677.8
950.6846	2216.8648	6556.4	5656.6
950.8186	2218.3479	6556.1	5651
950.9527	2219.8304	6521.7	5618.75
951.0867	2221.3121	6496.45	5597.05
951.2207	2222.7931	6471.95	5576.45
951.3546	2224.2733	6440.55	5545.6
951.4886	2225.7529	6429.45	5538
951.6225	2227.2317	6415.2	5520.65
951.7563	2228.7098	6395.65	5506.9
951.8902	2230.1872	6367.95	5479.15
952.024	2231.6638	6355.8	5466.65
952.1578	2233.1397	6337.9	5445.05
952.2916	2234.6149	6296.6	5409.5
952.4253	2236.0894	6290.75	5399.2
952.559	2237.5632	6294.5	5399.9
952.6927	2239.0362	6265	5375.3
952.8263	2240.5085	6240.55	5349.25
952.9599	2241.9801	6210.25	5316.05
953.0935	2243.4509	6218.85	5321.75
953.2271	2244.921	6190.6	5294.55
953.3606	2246.3904	6167.45	5267.3
953.4941	2247.8591	6144.65	5249.1
953.6276	2249.3271	6128.55	5236.6
953.7611	2250.7943	6120.2	5223
953.8945	2252.2608	6089.55	5194.8
954.0279	2253.7266	6075.5	5181.45
954.1612	2255.1917	6071.05	5178
954.2946	2256.656	6063.15	5169.85
954.4279	2258.1197	6031.25	5139.15
954.5612	2259.5826	5995.65	5103.85
954.6944	2261.0447	6002.75	5108.35
954.8276	2262.5062	5948.5	5051.9
954.9608	2263.9669	5965.85	5068.25
955.094	2265.4269	5958.8	5063.6
955.2271	2266.8862	5932.45	5040.85
955.3602	2268.3448	5917.05	5028.25
955.4933	2269.8026	5911.9	5019.05
955.6264	2271.2598	5895.5	5005.75
955.7594	2272.7162	5884.3	4993.6
955.8924	2274.1719	5874.6	4978.95
956.0253	2275.6268	5873.1	4975.2
956.1583	2277.0811	5854.9	4958.1
956.2912	2278.5346	5825.05	4933.7
956.4241	2279.9874	5809.5	4918.5
956.5569	2281.4395	5803.1	4914
956.6897	2282.8908	5778.3	4881.95
956.8225	2284.3414	5770.3	4876.65
956.9553	2285.7914	5734.55	4842.9
957.088	2287.2406	5743.25	4844.5
957.2207	2288.689	5736.6	4837.6
957.3534	2290.1368	5717.95	4816.15
957.486	2291.5838	5708.4	4806.45
957.6186	2293.0302	5667.35	4767.65
957.7512	2294.4758	5656	4756.5
957.8838	2295.9206	5646.55	4749.65
958.0163	2297.3648	5632.65	4739.45
958.1488	2298.8082	5627.8	4733.6
958.2813	2300.251	5612.65	4716.25
958.4137	2301.693	5564.8	4663.55
958.5461	2303.1343	5576.95	4680
958.6785	2304.5748	5552.05	4655.65
958.8108	2306.0147	5526.5	4633.35
958.9432	2307.4538	5532.1	4637.15
959.0754	2308.8922	5514.15	4623.75
959.2077	2310.3299	5491.8	4601.55
959.3399	2311.7669	5487.4	4596.7
959.4721	2313.2031	5473.55	4579.05
959.6043	2314.6387	5452.45	4558.8
959.7365	2316.0735	5438.85	4544
959.8686	2317.5076	5430.05	4532.95
960.0006	2318.941	5405.6	4510.05
960.1327	2320.3737	5388.05	4488.25
960.2647	2321.8056	5408.1	4509.15
960.3967	2323.2369	5355.95	4458.45
960.5287	2324.6674	5340.35	4444.4
960.6606	2326.0972	5325.05	4430
960.7925	2327.5263	5310.9	4416.45
960.9244	2328.9547	5305.15	4408.55
961.0562	2330.3823	5290.95	4393.8
961.1881	2331.8092	5299.4	4396.8
961.3198	2333.2355	5259.2	4361.65
961.4516	2334.661	5253.6	4356.75
961.5833	2336.0858	5242.75	4345.95
961.715	2337.5098	5230.7	4334.2
961.8467	2338.9332	5219.4	4322.8
961.9783	2340.3558	5183.6	4286.2
962.1099	2341.7778	5196.75	4304.3
962.2415	2343.199	5177.6	4281.95
962.373	2344.6195	5151.5	4259.3
962.5045	2346.0393	5158.95	4267.5
962.636	2347.4583	5146.55	4250.75
962.7675	2348.8767	5124.45	4227.95
962.8989	2350.2943	5107.9	4208.95
963.0303	2351.7113	5103.9	4204.55
963.1617	2353.1275	5085.1	4184.45
963.293	2354.543	5103.1	4179.65
963.4243	2355.9578	5069.45	4172.25
963.5556	2357.3718	5032.4	4139.3
963.6868	2358.7852	5030.55	4133.75
963.818	2360.1978	5008.55	4113
963.9492	2361.6098	4986.8	4091.25
964.0803	2363.021	4981.65	4082.2
964.2114	2364.4315	4976	4080.4
964.3425	2365.8413	4946	4050.15
964.4736	2367.2504	4922.3	4031.2
964.6046	2368.6587	4907	4014.5
964.7356	2370.0664	4898.4	4006.9
964.8666	2371.4733	4889.5	3995
964.9975	2372.8795	4881.25	3986.65
965.1284	2374.285	4849.75	3952.95
965.2593	2375.6899	4835.35	3941.55
965.3901	2377.0939	4816.75	3923.75
965.5209	2378.4973	4823.35	3929.75
965.6517	2379.9	4792.95	3898.35
965.7825	2381.3019	4795.55	3901.45
965.9132	2382.7032	4776.15	3884.2
966.0439	2384.1037	4749.65	3858.15
966.1745	2385.5035	4736.15	3847.1
966.3051	2386.9027	4716.55	3827.2
966.4357	2388.3011	4704	3808.9
966.5663	2389.6987	4714.5	3822.55
966.6968	2391.0957	4678.2	3787.75
966.8273	2392.492	4665.45	3774.85
966.9578	2393.8876	4625.2	3733.05
967.0882	2395.2824	4620.55	3726.05
967.2186	2396.6765	4618.5	3723.75
967.349	2398.07	4605.45	3710.65
967.4793	2399.4627	4609.3	3710.6
967.6097	2400.8547	4586.45	3690.5
967.7399	2402.246	4557.55	3657
967.8702	2403.6366	4551.5	3658.85
968.0004	2405.0265	4521.85	3630
968.1306	2406.4156	4520.2	3624.1
968.2607	2407.8041	4511.9	3613.4
968.3909	2409.1918	4483.05	3584.15
968.521	2410.5789	4492.55	3596.75
968.651	2411.9652	4455.15	3558.7
968.781	2413.3508	4456.8	3561
968.911	2414.7358	4442.3	3544.8
969.041	2416.12	4420.85	3528.7
969.1709	2417.5035	4405.4	3509.8
969.3008	2418.8863	4402.8	3507
969.4307	2420.2684	4393.85	3496.8
969.5606	2421.6497	4361.8	3465.15
969.6904	2423.0304	4346.4	3452.9
969.8201	2424.4104	4347.4	3453
969.9499	2425.7896	4336	3441.95
970.0796	2427.1682	4331.85	3438.45
970.2093	2428.546	4320.75	3426.5
970.3389	2429.9232	4300.45	3405.05
970.4685	2431.2996	4283.2	3386.25
970.5981	2432.6753	4277.5	3382.95
970.7277	2434.0503	4280.95	3382.8
970.8572	2435.4246	4249.9	3353.8
970.9867	2436.7982	4240.05	3342.05
971.1161	2438.1711	4232.1	3336.45
971.2456	2439.5433	4221.7	3326.6
971.375	2440.9148	4204.05	3306
971.5043	2442.2856	4188.95	3295.9
971.6336	2443.6557	4166.2	3270.85
971.7629	2445.025	4167.1	3272.8
971.8922	2446.3937	4150.15	3251.1
972.0214	2447.7617	4147.5	3248.35
972.1506	2449.1289	4133.2	3238.7
972.2798	2450.4955	4138.25	3239.85
972.4089	2451.8613	4126.45	3232.9
972.538	2453.2265	4106.8	3211.25
972.6671	2454.5909	4102.95	3205.9
972.7961	2455.9546	4087.05	3190.15
972.9251	2457.3177	4065.85	3172.45
973.0541	2458.68	4066.9	3168.25
973.1831	2460.0416	4074.95	3181.6
973.312	2461.4025	4059.05	3164.3
973.4408	2462.7627	4062.15	3158.35
973.5697	2464.1222	4029.4	3138.2
973.6985	2465.4811	4018.55	3127.15
973.8273	2466.8392	4017.4	3124.6
973.956	2468.1966	4003.2	3107.15
974.0847	2469.5533	4002.5	3105.3
974.2134	2470.9093	3982.75	3087.45
974.3421	2472.2645	3972.5	3078.45
974.4707	2473.6191	3978.4	3085.1
974.5993	2474.973	3957.15	3062
974.7278	2476.3262	3950	3054.7
974.8563	2477.6787	3933.65	3038.2
974.9848	2479.0305	3916.95	3023.25
975.1132	2480.3816	3916	3021.9
975.2417	2481.7319	3888.85	2993.55
975.37	2483.0816	3881.75	2987.2
975.4984	2484.4306	3874.15	2979.7
975.6267	2485.7789	3860.7	2968.65
975.755	2487.1264	3842.7	2950.05
975.8833	2488.4733	3830.7	2940.1
976.0115	2489.8195	3830.65	2928.8
976.1397	2491.165	3821.7	2925.15
976.2678	2492.5097	3817.95	2924.25
976.3959	2493.8538	3790.2	2898.15
976.524	2495.1972	3768.55	2875.45
976.6521	2496.5398	3767.85	2872.45
976.7801	2497.8818	3770.7	2874.85
976.9081	2499.2231	3736.15	2840.75
977.036	2500.5637	3729.25	2832.75
977.164	2501.9035	3724.5	2825.7
977.2918	2503.2427	3708.65	2807.85
977.4197	2504.5812	3718.45	2823.55
977.5475	2505.919	3712.25	2816.2
977.6753	2507.256	3687.85	2792.75
977.8031	2508.5924	3670.2	2776.1
977.9308	2509.9281	3671.85	2771.05
978.0585	2511.2631	3660.15	2766.2
978.1861	2512.5974	3649.55	2754.9
978.3137	2513.9309	3644.15	2750.6
978.4413	2515.2638	3640.5	2724.05
978.5689	2516.596	3625.75	2732.65
978.6964	2517.9275	3604.9	2710.2
978.8239	2519.2583	3616.4	2723.75
978.9513	2520.5884	3589.55	2694.1
979.0788	2521.9178	3575.05	2681.9
979.2062	2523.2465	3566.2	2672.4
979.3335	2524.5745	3550.75	2658.8
979.4608	2525.9018	3547.1	2655.2
979.5881	2527.2284	3531.05	2639.85
979.7154	2528.5543	3535.2	2640.8
979.8426	2529.8796	3524.2	2629.4
979.9698	2531.2041	3519.2	2624.3
980.0969	2532.5279	3517.3	2625.55
980.224	2533.851	3502.3	2608.4
980.3511	2535.1735	3492.35	2599.35
980.4781	2536.4952	3488.4	2593.75
980.6052	2537.8163	3486.45	2590.9
980.7321	2539.1366	3473.9	2579.45
980.8591	2540.4562	3475	2577.3
980.986	2541.7752	3460.6	2563.7
981.1129	2543.0935	3457.8	2564.25
981.2397	2544.411	3449.2	2552.45
981.3665	2545.7279	3439.85	2547
981.4933	2547.0441	3435.55	2539.45
981.62	2548.3596	3451.15	2554.75
981.7467	2549.6744	3426.45	2532.9
981.8734	2550.9885	3421	2518.5
982.0001	2552.3019	3405.8	2511.55
982.1267	2553.6146	3402.45	2508.65
982.2532	2554.9266	3400.2	2505.55
982.3798	2556.2379	3385.8	2489.9
982.5063	2557.5485	3394.85	2503
982.6327	2558.8585	3381.1	2478.75
982.7592	2560.1677	3370.7	2472.1
982.8856	2561.4762	3353.4	2458.6
983.0119	2562.7841	3356.95	2457.95
983.1383	2564.0913	3350.95	2455.6
983.2646	2565.3977	3340.65	2446.1
983.3908	2566.7035	3339.8	2445.45
983.517	2568.0086	3338.85	2441.1
983.6432	2569.313	3335.9	2440.1
983.7694	2570.6167	3320.95	2420.4
983.8955	2571.9197	3307.15	2409.45
984.0216	2573.222	3315.5	2419.35
984.1476	2574.5236	3301.25	2405.5
984.2737	2575.8246	3295.1	2398.35
984.3996	2577.1248	3294.05	2396.7
984.5256	2578.4244	3279.75	2385.25
984.6515	2579.7232	3276.8	2382.7
984.7774	2581.0214	3296.65	2371.2
984.9032	2582.3189	3272.1	2379.85
985.029	2583.6157	3254.8	2357.05
985.1548	2584.9118	3252.8	2358.05
985.2806	2586.2072	3246.9	2352
985.4063	2587.5019	3244.7	2352.3
985.5319	2588.7959	3238.05	2342.5
985.6576	2590.0893	3235.5	2340.9
985.7832	2591.3819	3227.4	2333.9
985.9087	2592.6739	3215.4	2323.05
986.0343	2593.9652	3215.5	2319.85
986.1597	2595.2557	3204.3	2311.3
986.2852	2596.5456	3191.6	2293.4
986.4106	2597.8348	3184.2	2288.4
986.536	2599.1234	3179.75	2285.7
986.6614	2600.4112	3161.95	2267.6
986.7867	2601.6983	3157.3	2260.05
986.912	2602.9848	3164.05	2268.25
987.0372	2604.2705	3156.5	2254.25
987.1624	2605.5556	3136.7	2244.25
987.2876	2606.84	3137.5	2245.05
987.4128	2608.1237	3129.3	2236.65
987.5379	2609.4067	3117.45	2222.25
987.6629	2610.689	3119.6	2217.2
987.788	2611.9707	3097.8	2198.8
987.913	2613.2516	3087.7	2187.6
988.0379	2614.5319	3087.7	2191.95
988.1629	2615.8115	3073.7	2179.45
988.2878	2617.0903	3070.7	2173.9
988.4126	2618.3685	3052.8	2158.05
988.5375	2619.6461	3050.55	2156.5
988.6622	2620.9229	3054.75	2159.95
988.787	2622.199	3036.1	2142.65
988.9117	2623.4745	3034.15	2140.85
989.0364	2624.7493	3027.85	2134.8
989.161	2626.0234	3010.15	2116.75
989.2857	2627.2968	2993.55	2100
989.4102	2628.5695	2997.5	2100.95
989.5348	2629.8415	2994.55	2102
989.6593	2631.1128	2997.3	2101.8
989.7837	2632.3835	2972.6	2078.75
989.9082	2633.6535	2954.3	2062.3
990.0326	2634.9228	2959.3	2066.4
990.1569	2636.1914	2951.95	2058.4
990.2812	2637.4593	2946	2050.15
990.4055	2638.7265	2940.05	2043.7
990.5298	2639.9931	2925.65	2030.65
990.654	2641.259	2918.05	2022.15
990.7782	2642.5242	2913.05	2018.75
990.9023	2643.7887	2898	2004.6
991.0264	2645.0525	2913.55	2021.1
991.1505	2646.3156	2909.55	2000.45
991.2745	2647.5781	2893.7	2002.65
991.3985	2648.8398	2872.95	1979.2
991.5225	2650.1009	2891.75	1974.2
991.6464	2651.3613	2862.8	1969.15
991.7703	2652.6211	2863.75	1969.8
991.8942	2653.8801	2854.6	1962.6
992.018	2655.1385	2851.95	1954.9
992.1418	2656.3961	2841.1	1948.7
992.2655	2657.6531	2838.8	1945.5
992.3892	2658.9094	2836.5	1942
992.5129	2660.1651	2822.85	1930.85
992.6366	2661.42	2824.6	1930.55
992.7602	2662.6743	2822.1	1927.85
992.8837	2663.9279	2820.55	1928.3
993.0073	2665.1808	2820.55	1928.75
993.1307	2666.433	2805.45	1908.65
993.2542	2667.6846	2805.1	1912.35
993.3776	2668.9354	2797.9	1900.65
993.501	2670.1856	2783.7	1889.45
993.6244	2671.4351	2785.8	1892.15
993.7477	2672.6839	2800	1906.4
993.8709	2673.9321	2789.35	1898.7
993.9942	2675.1795	2766.45	1873.7
994.1174	2676.4263	2768.65	1876.45
994.2405	2677.6724	2764.9	1871.4
994.3637	2678.9179	2756.15	1862.8
994.4868	2680.1626	2754.1	1861.6
994.6098	2681.4067	2768.95	1874.55
994.7328	2682.6501	2757.15	1864.2
994.8558	2683.8928	2743.5	1850.15
994.9788	2685.1348	2734.9	1843.45
995.1017	2686.3761	2713.95	1820.4
995.2245	2687.6168	2720.1	1828.55
995.3474	2688.8568	2712.7	1820.05
995.4702	2690.0961	2707.4	1817.55
995.5929	2691.3348	2695.75	1803.3
995.7156	2692.5727	2687.85	1795.6
995.8383	2693.81	2677.9	1784.2
995.961	2695.0466	2675.25	1784.5
996.0836	2696.2826	2679	1785.7
996.2062	2697.5178	2681.7	1787.35
996.3287	2698.7524	2669.95	1777.8
996.4512	2699.9863	2667.95	1773.6
996.5737	2701.2195	2642.35	1750.75
996.6961	2702.452	2651.2	1758
996.8185	2703.6839	2649.35	1756.1
996.9408	2704.9151	2640.7	1751.25
997.0631	2706.1456	2629.9	1737.7
997.1854	2707.3755	2645.5	1753.65
997.3077	2708.6046	2638.2	1742.95
997.4299	2709.8331	2643.45	1750.7
997.552	2711.0609	2639.8	1747.15
997.6742	2712.2881	2640.05	1749.35
997.7963	2713.5145	2637.15	1743.65
997.9183	2714.7403	2642.15	1751.4
998.0403	2715.9654	2646.4	1753.85
998.1623	2717.1899	2660.2	1752.2
998.2842	2718.4136	2653.05	1760.95
998.4062	2719.6367	2656.7	1764.65
998.528	2720.8591	2651.9	1753.35
998.6498	2722.0809	2647.2	1754.75
998.7716	2723.3019	2658.1	1764.15
998.8934	2724.5223	2655.1	1760.85
999.0151	2725.7421	2659.6	1768.9
999.1368	2726.9611	2642.9	1749.1
999.2584	2728.1795	2646.4	1749.85
999.38	2729.3972	2635.65	1745.95
999.5016	2730.6142	2617.95	1719.95
999.6231	2731.8306	2602.3	1710.4
999.7446	2733.0462	2590.85	1698.15
999.8661	2734.2612	2563.8	1667
999.9875	2735.4756	2543.3	1649.6
1000.1089	2736.6892	2533.1	1641.35
1000.2302	2737.9022	2521.55	1631.5
1000.3515	2739.1145	2501.15	1610.6
1000.4728	2740.3262	2503.2	1604.55
1000.594	2741.5372	2469.15	1578.55
1000.7152	2742.7475	2451.9	1562.15
1000.8363	2743.9571	2451.3	1559.25
1000.9575	2745.1661	2440.8	1544
1001.0785	2746.3744	2433.85	1540.95
1001.1996	2747.582	2412.6	1522.4
1001.3206	2748.7889	2414.1	1521.85
1001.4415	2749.9952	2393.6	1504.1
1001.5625	2751.2008	2385.9	1494.45
1001.6833	2752.4057	2385.95	1494.05
1001.8042	2753.61	2375.25	1482.8
1001.925	2754.8136	2372.1	1478.85
1002.0458	2756.0165	2374.85	1486.7
1002.1665	2757.2188	2360.95	1472.45
1002.2872	2758.4204	2355.35	1463.4
1002.4078	2759.6213	2350.8	1457.05
1002.5285	2760.8215	2351	1456.8
1002.649	2762.0211	2338.25	1446
1002.7696	2763.22	2332.7	1439.1
1002.8901	2764.4182	2334.8	1443.7
1003.0106	2765.6158	2323.95	1433.25
1003.131	2766.8127	2323.35	1433.55
1003.2514	2768.009	2316.2	1426.1
1003.3717	2769.2045	2307.95	1417
1003.492	2770.3994	2302.95	1412.35
1003.6123	2771.5936	2293.7	1402.8
1003.7325	2772.7872	2287.2	1396.55
1003.8527	2773.9801	2280.85	1388.4
1003.9729	2775.1723	2298.15	1393.75
1004.093	2776.3639	2267.75	1376.6
1004.2131	2777.5548	2263.55	1372.65
1004.3331	2778.745	2260.7	1370.35
1004.4531	2779.9346	2262.4	1372.85
1004.5731	2781.1235	2261.7	1372.55
1004.693	2782.3117	2256.3	1368.55
1004.8129	2783.4992	2250.45	1361.75
1004.9328	2784.6861	2256.8	1368.9
1005.0526	2785.8723	2261.35	1373.55
1005.1723	2787.0579	2256.4	1367.5
1005.2921	2788.2428	2246.65	1354.9
1005.4118	2789.427	2244.7	1357.2
1005.5314	2790.6106	2254.4	1364.35
1005.651	2791.7935	2249.7	1360.45
1005.7706	2792.9757	2257.85	1368.75
1005.8902	2794.1573	2259.4	1368.25
1006.0097	2795.3382	2273.05	1384.75
1006.1291	2796.5184	2272.05	1386.65
1006.2485	2797.698	2269	1376.6
1006.3679	2798.8769	2282.4	1395.6
1006.4873	2800.0551	2285.1	1397.8
1006.6066	2801.2327	2293.35	1402.4
1006.7258	2802.4096	2307.35	1417.15
1006.8451	2803.5859	2315.35	1425.45
1006.9642	2804.7615	2327.1	1436.55
1007.0834	2805.9364	2326.1	1437.75
1007.2025	2807.1106	2353.1	1465.1
1007.3216	2808.2842	2369.35	1478.65
1007.4406	2809.4572	2379.3	1489.55
1007.5596	2810.6294	2404.95	1513.55
1007.6785	2811.801	2443.4	1555.85
1007.7975	2812.972	2463.3	1576.4
1007.9163	2814.1423	2497.65	1611.35
1008.0352	2815.3119	2522.85	1630.2
1008.154	2816.4808	2549.05	1660.95
1008.2727	2817.6491	2587.3	1697.85
1008.3914	2818.8167	2611.85	1725.2
1008.5101	2819.9837	2656.75	1765.7
1008.6288	2821.15	2689.9	1799.7
1008.7474	2822.3157	2720.3	1836.95
1008.8659	2823.4807	2767.95	1880.6
1008.9844	2824.645	2798.6	1909.95
1009.1029	2825.8086	2833.65	1946
1009.2214	2826.9716	2859.15	1971.75
1009.3398	2828.134	2914.3	2028.75
1009.4581	2829.2957	2932.15	2043.4
1009.5764	2830.4567	2961.9	2075.85
1009.6947	2831.617	2962.25	2071.8
1009.813	2832.7767	2961	2074.8
1009.9312	2833.9358	2953.85	2066.9
1010.0493	2835.0941	2957	2066.6
1010.1675	2836.2519	2930.65	2041.7
1010.2855	2837.4089	2933.65	2042.65
1010.4036	2838.5653	2923.85	2036.35
1010.5216	2839.7211	2918	2031.85
1010.6396	2840.8761	2918.35	2028.55
1010.7575	2842.0306	2910.85	2024.35
1010.8754	2843.1843	2932.8	2044.95
1010.9932	2844.3374	2971	2084.95
1011.111	2845.4899	3006.35	2120.4
1011.2288	2846.6417	3058.1	2169.4
1011.3465	2847.7928	3102.1	2215.75
1011.4642	2848.9433	3154.45	2266.45
1011.5818	2850.0931	3196.15	2309.4
1011.6995	2851.2422	3257	2366.95
1011.817	2852.3907	3299.6	2411.8
1011.9345	2853.5385	3339.45	2448.4
1012.052	2854.6857	3395.4	2500.15
1012.1695	2855.8323	3416.75	2532.35
1012.2869	2856.9781	3450.45	2563.2
1012.4042	2858.1233	3484.55	2597.65
1012.5216	2859.2679	3520.85	2632.15
1012.6389	2860.4118	3562.65	2676.7
1012.7561	2861.555	3601.1	2708.2
1012.8733	2862.6976	3615.6	2727.05
1012.9905	2863.8395	3618.9	2732.5
1013.1076	2864.9808	3654.6	2766.45
1013.2247	2866.1214	3666.65	2781.65
1013.3417	2867.2614	3689.9	2803.3
1013.4587	2868.4007	3667.95	2779
1013.5757	2869.5393	3681.65	2793.35
1013.6926	2870.6773	3693.35	2804
1013.8095	2871.8146	3697.15	2805.95
1013.9263	2872.9513	3700.1	2811.1
1014.0431	2874.0874	3684.3	2796.25
1014.1599	2875.2227	3666.7	2781.15
1014.2766	2876.3574	3647.6	2760.65
1014.3933	2877.4915	3636	2750.15
1014.51	2878.6249	3597.75	2712.4
1014.6266	2879.7577	3600.75	2713.55
1014.7431	2880.8898	3568.75	2670.2
1014.8596	2882.0212	3551.25	2666.55
1014.9761	2883.152	3544.8	2657.95
1015.0925	2884.2821	3523.7	2638.25
1015.2089	2885.4116	3516.8	2630.15
1015.3253	2886.5405	3514.55	2628.35
1015.4416	2887.6686	3524.45	2636.7
1015.5579	2888.7962	3530.9	2644.95
1015.6741	2889.923	3516.4	2632.95
1015.7903	2891.0493	3530.35	2645.3
1015.9065	2892.1748	3546.35	2661.2
1016.0226	2893.2997	3532.25	2646.15
1016.1387	2894.424	3548.8	2665.05
1016.2547	2895.5476	3552	2668.35
1016.3707	2896.6706	3584	2697.8
1016.4866	2897.7929	3568.6	2681.95
1016.6025	2898.9145	3597	2710.75
1016.7184	2900.0355	3619.45	2730.15
1016.8342	2901.1559	3649.95	2762.1
1016.95	2902.2756	3675.05	2789.4
1017.0658	2903.3946	3678.7	2792.45
1017.1815	2904.513	3694	2804.55
1017.2971	2905.6308	3711.2	2824.85
1017.4127	2906.7479	3715.4	2828.4
1017.5283	2907.8643	3739.2	2850.9
1017.6439	2908.9801	3753.9	2867.95
1017.7594	2910.0953	3755.85	2869.95
1017.8748	2911.2098	3741.15	2852.2
1017.9902	2912.3236	3734.5	2840.5
1018.1056	2913.4368	3734.65	2845.7
1018.2209	2914.5494	3717.35	2831.6
1018.3362	2915.6613	3683.35	2792.4
1018.4515	2916.7725	3678	2791.75
1018.5667	2917.8831	3647.25	2758.5
1018.6819	2918.9931	3625.5	2736.65
1018.797	2920.1024	3592.25	2705.15
1018.9121	2921.211	3573.9	2689.6
1019.0271	2922.319	3556.85	2670.05
1019.1421	2923.4264	3544	2658.15
1019.2571	2924.5331	3530.35	2645.95
1019.372	2925.6391	3512.4	2628.05
1019.4869	2926.7445	3523.35	2640.45
1019.6017	2927.8493	3507.9	2621.55
1019.7165	2928.9534	3496.6	2610.4
1019.8313	2930.0569	3491.3	2603.2
1019.946	2931.1597	3495.45	2610.9
1020.0606	2932.2619	3506.15	2621.55
1020.1753	2933.3634	3485.45	2600
1020.2899	2934.4643	3494.85	2603.25
1020.4044	2935.5645	3474.5	2582.2
1020.5189	2936.6641	3439.65	2547.45
1020.6334	2937.763	3421.2	2535.15
1020.7478	2938.8613	3379.4	2496.25
1020.8622	2939.959	3352.15	2461.75
1020.9765	2941.056	3287.4	2403.45
1021.0908	2942.1523	3216.2	2331.35
1021.2051	2943.248	3170.15	2285
1021.3193	2944.3431	3098.3	2210.95
1021.4334	2945.4375	3011.25	2125.85
1021.5476	2946.5313	2929.3	2044.25
1021.6617	2947.6244	2851.35	1966.05
1021.7757	2948.7169	2784.35	1899.2
1021.8897	2949.8087	2693.15	1806.25
1022.0037	2950.8999	2621.1	1735.9
1022.1176	2951.9904	2568.1	1683.15
1022.2315	2953.0803	2512.8	1627.35
1022.3453	2954.1696	2462.5	1576.65
1022.4591	2955.2582	2420.25	1536.1
1022.5728	2956.3462	2373.9	1489.9
1022.6865	2957.4335	2347.5	1462.5
1022.8002	2958.5202	2320.8	1432.8
1022.9138	2959.6062	2302.1	1415.8
1023.0274	2960.6916	2278.3	1395.1
1023.141	2961.7764	2267.15	1379.6
1023.2545	2962.8605	2241.6	1356.15
1023.3679	2963.9439	2229.8	1345.3
1023.4813	2965.0267	2215.35	1329.1
1023.5947	2966.1089	2234.15	1327.4
1023.708	2967.1905	2215	1329.8
1023.8213	2968.2714	2210.7	1327.75
1023.9346	2969.3516	2208.15	1323.2
1024.0478	2970.4312	2219.95	1327.7
1024.1609	2971.5102	2200.7	1315.45
1024.274	2972.5885	2207.75	1324.9
1024.3871	2973.6662	2208.45	1319.3
1024.5002	2974.7432	2203.45	1319.05
1024.6132	2975.8196	2192.2	1308.6
1024.7261	2976.8954	2179.95	1296.65
1024.839	2977.9705	2183.2	1299.8
1024.9519	2979.045	2167.65	1282.05
1025.0647	2980.1188	2146.3	1262.1
1025.1775	2981.192	2123.65	1239.1
1025.2902	2982.2645	2123.65	1237.25
1025.4029	2983.3364	2094.35	1208.85
1025.5156	2984.4077	2071.8	1187.35
1025.6282	2985.4783	2049.3	1158.3
1025.7407	2986.5483	2018.1	1133.5
1025.8532	2987.6177	1994.95	1110.4
1025.9657	2988.6864	1977.2	1093
1026.0782	2989.7545	1957.35	1071.4
1026.1906	2990.8219	1917.5	1032.95
1026.3029	2991.8887	1895.65	1008.55
1026.4152	2992.9548	1868	982.45
1026.5275	2994.0204	1846.9	964.1
1026.6397	2995.0852	1813.15	929.6
1026.7519	2996.1495	1801.25	914.95
1026.864	2997.2131	1776.35	893.05
1026.9761	2998.276	1756.6	872.5
1027.0882	2999.3383	1740.75	853.05
1027.2002	3000.4	1726.75	842.8
1027.3122	3001.4611	1704.2	820.1
1027.4241	3002.5215	1695.35	812.2
1027.536	3003.5812	1681.5	798.7
1027.6478	3004.6404	1671.5	786.95
1027.7596	3005.6989	1670.7	784.8
1027.8714	3006.7567	1649.1	766
1027.9831	3007.8139	1655.2	753.95
1028.0947	3008.8705	1634.15	751.4
1028.2064	3009.9264	1649.55	747.9
1028.3179	3010.9818	1634.1	751.8
1028.4295	3012.0364	1618.8	734.8
1028.541	3013.0905	1615.1	730.2
1028.6524	3014.1439	1606	721.15
1028.7638	3015.1966	1604.2	722.05
1028.8752	3016.2487	1597.65	713.05
1028.9865	3017.3002	1592.55	706.3
1029.0978	3018.3511	1596.85	716.05
1029.209	3019.4013	1584.2	701.2
1029.3202	3020.4509	1593.15	709.7
1029.4314	3021.4998	1589.15	705.3
1029.5425	3022.5481	1581.05	697
1029.6535	3023.5958	1581.15	697.5
1029.7645	3024.6428	1583.35	697.6
1029.8755	3025.6892	1581.8	699.35
1029.9864	3026.735	1582.2	699.4
1030.0973	3027.7802	1578.55	693.7
1030.2082	3028.8247	1575.25	690.7
1030.319	3029.8685	1576.4	693
1030.4297	3030.9118	1576.9	692.7
1030.5404	3031.9544	1581.75	699.2
1030.6511	3032.9963	1579.6	696.1
1030.7617	3034.0376	1576.4	694
1030.8723	3035.0783	1584.45	697.85
1030.9829	3036.1184	1580.9	697.35
1031.0934	3037.1578	1585	702.3
1031.2038	3038.1966	1581.8	696.55
1031.3142	3039.2348	1576.45	696.55
1031.4246	3040.2723	1591.55	700.2
1031.5349	3041.3092	1577.1	694.95
1031.6452	3042.3455	1577.9	695.1
1031.7554	3043.3811	1572.2	687.05
1031.8656	3044.4161	1572.1	688.15
1031.9758	3045.4505	1556.7	672.4
1032.0859	3046.4842	1560.4	676.05
1032.1959	3047.5173	1553.7	670.95
1032.3059	3048.5498	1551.2	668.2
1032.4159	3049.5816	1544.7	662.45
1032.5258	3050.6128	1542.95	656.85
1032.6357	3051.6434	1536	650.95
1032.7455	3052.6734	1531.5	646
1032.8553	3053.7027	1522.2	638.7
1032.9651	3054.7314	1515.7	634.65
1033.0748	3055.7594	1513.7	630.15
1033.1845	3056.7868	1510.25	624.95
1033.2941	3057.8136	1502.55	619.1
1033.4037	3058.8398	1498.9	616.45
1033.5132	3059.8653	1499	617.2
1033.6227	3060.8902	1490	608.15
1033.7321	3061.9145	1493.6	610.85
1033.8415	3062.9381	1476.95	593.85
1033.9509	3063.9612	1474.05	576.05
1034.0602	3064.9835	1482.5	598.85
1034.1694	3066.0053	1467.75	583.5
1034.2787	3067.0264	1464.15	581.95
1034.3878	3068.0469	1462.9	579.8
1034.497	3069.0668	1456.45	570.25
1034.6061	3070.086	1437.95	556.75
1034.7151	3071.1046	1439.75	555.35
1034.8241	3072.1226	1431.35	548.25
1034.9331	3073.1399	1428.6	547.6
1035.042	3074.1567	1419.1	535.05
1035.1508	3075.1727	1410.3	525.6
1035.2597	3076.1882	1407.2	524.65
1035.3684	3077.203	1400.75	517.55
1035.4772	3078.2173	1397.6	513.45
1035.5859	3079.2308	1380.85	495.9
1035.6945	3080.2438	1380.5	495.3
1035.8031	3081.2561	1371.25	488.5
1035.9117	3082.2678	1363.55	482.2
1036.0202	3083.2789	1353.15	470.2
1036.1286	3084.2893	1349.05	466.35
1036.2371	3085.2991	1344.9	463.45
1036.3454	3086.3083	1344.95	457.55
1036.4538	3087.3169	1342.5	458.3
1036.562	3088.3248	1339.55	455.25
1036.6703	3089.3321	1332.5	448.25
1036.7785	3090.3388	1326.8	444.9
1036.8866	3091.3449	1310.8	428.6
1036.9948	3092.3503	1309.95	427.65
1037.1028	3093.3551	1309.15	427.1
1037.2108	3094.3593	1305.35	424.3
1037.3188	3095.3629	1300.45	417.8
1037.4267	3096.3658	1299.9	414.85
1037.5346	3097.3681	1294.85	415.25
1037.6425	3098.3698	1299.15	416.55
1037.7503	3099.3708	1294.15	405.15
1037.858	3100.3713	1284	401.15
1037.9657	3101.3711	1281.9	400.5
1038.0734	3102.3702	1419.7	395.55
1038.181	3103.3688	1287.95	403.35
1038.2886	3104.3667	1279.05	399.1
1038.3961	3105.364	1268.6	386.75
1038.5036	3106.3607	1267.25	383.65
1038.611	3107.3568	1271.4	388.35
1038.7184	3108.3522	1260.25	379.3
1038.8257	3109.347	1262.6	376.95
1038.933	3110.3412	1269.65	383.7
1039.0403	3111.3348	1256.85	375.05
1039.1475	3112.3277	1250.85	370.35
1039.2547	3113.32	1252	370.45
1039.3618	3114.3117	1249.15	367.75
1039.4689	3115.3028	1242.25	359.1
1039.5759	3116.2932	1246.35	362.8
1039.6829	3117.2831	1244.05	357.15
1039.7898	3118.2723	1239.6	358
1039.8967	3119.2608	1228.45	346.25
1040.0035	3120.2488	1223.2	340.8
1040.1103	3121.2361	1228.7	347.25
1040.2171	3122.2229	1226.15	345.55
1040.3238	3123.209	1229.1	345.85
1040.4305	3124.1944	1220.3	337.6
1040.5371	3125.1793	1220.65	339.05
1040.6437	3126.1635	1217.85	336.85
1040.7502	3127.1471	1216.3	334.85
1040.8567	3128.1301	1210.1	328.05
1040.9631	3129.1125	1213.8	334.8
1041.0695	3130.0942	1215	332.35
1041.1759	3131.0753	1221.65	331.2
1041.2822	3132.0558	1211.35	328.05
1041.3884	3133.0357	1206.5	324.75
1041.4946	3134.015	1205.95	322.35
1041.6008	3134.9936	1205.25	322.45
1041.7069	3135.9716	1215.65	315.55
1041.813	3136.949	1197.3	316.15
1041.919	3137.9258	1217.15	317.7
1042.025	3138.902	1201.35	314.6
1042.1309	3139.8775	1194.75	315.1
1042.2368	3140.8524	1194.45	311.9
1042.3427	3141.8267	1193.05	311.15
1042.4485	3142.8004	1190.75	308.6
1042.5542	3143.7735	1190.3	303.9
1042.6599	3144.7459	1187.75	303.35
1042.7656	3145.7178	1182.95	303.05
1042.8712	3146.689	1182.05	300.75
1042.9768	3147.6596	1182.3	295.95
1043.0823	3148.6295	1180.05	298.2
1043.1878	3149.5989	1177.1	295.25
1043.2932	3150.5676	1167.75	286.55
1043.3986	3151.5357	1173.75	292.8
1043.5039	3152.5032	1171.3	291.25
1043.6092	3153.4701	1163.65	284.15
1043.7145	3154.4364	1169.4	284.7
1043.8197	3155.402	1163.85	283.4
1043.9248	3156.367	1164.75	281
1044.03	3157.3315	1196.35	276.7
1044.135	3158.2952	1160.1	279
1044.24	3159.2584	1160.25	279.55
1044.345	3160.221	1157.8	277
1044.4499	3161.1829	1155.45	274.4
1044.5548	3162.1442	1152.55	273.45
1044.6596	3163.105	1153.35	269.9
1044.7644	3164.065	1150.25	269.8
1044.8692	3165.0245	1147.65	264.25
1044.9739	3165.9834	1143.05	264.65
1045.0785	3166.9416	1145.35	261.75
1045.1831	3167.8993	1144.3	264.15
1045.2877	3168.8563	1146.2	265.35
1045.3922	3169.8127	1141.7	262.9
1045.4966	3170.7684	1138.45	256.6
1045.6011	3171.7236	1139.1	256.65
1045.7054	3172.6782	1139	255.35
1045.8098	3173.6321	1135.75	254.8
1045.914	3174.5854	1136	252
1046.0183	3175.5381	1134.75	253.5
1046.1224	3176.4902	1133	252.6
1046.2266	3177.4417	1133.75	252
1046.3307	3178.3926	1129.1	247.4
1046.4347	3179.3428	1123.85	244.3
1046.5387	3180.2924	1124.95	246.2
1046.6427	3181.2415	1126.9	244.9
1046.7466	3182.1899	1123.15	240.05
1046.8504	3183.1377	1120.9	240.85
1046.9542	3184.0848	1122.75	239.9
1047.058	3185.0314	1118.25	240.2
1047.1617	3185.9773	1115.85	235.05
1047.2654	3186.9227	1114.7	233.35
1047.369	3187.8674	1120.6	238.5
1047.4726	3188.8115	1116.65	233.6
1047.5761	3189.755	1113.3	232.75
1047.6796	3190.6979	1109.7	228.15
1047.783	3191.6402	1107.4	228
1047.8864	3192.5818	1108.9	227.55
1047.9898	3193.5229	1113.9	226.05
1048.0931	3194.4633	1105.2	224.8
1048.1963	3195.4031	1101.3	220.2
1048.2995	3196.3423	1105.1	223.45
1048.4027	3197.2809	1099.15	219.25
1048.5058	3198.2189	1100.95	221.3
1048.6089	3199.1563	1111.6	224.5
1048.7119	3200.0931	1098.1	218.6
1048.8148	3201.0292	1098.5	220.15
1048.9178	3201.9648	1095.15	216.8
1049.0206	3202.8997	1097.75	213.45
1049.1235	3203.834	1095.95	215.85
1049.2262	3204.7677	1093.55	214.35
1049.329	3205.7008	1093.6	209.55
1049.4317	3206.6333	1085.75	206.25
1049.5343	3207.5652	1091.75	207.65
1049.6369	3208.4964	1086.55	204.75
1049.7394	3209.4271	1087.55	206.35
1049.8419	3210.3571	1088.1	207.5
1049.9444	3211.2865	1084.4	204.25
1050.0468	3212.2154	1087.45	204.5
1050.1491	3213.1436	1085.7	201.5
1050.2514	3214.0712	1085.7	199.4
1050.3537	3214.9982	1080.35	199.6
1050.4559	3215.9246	1081.1	200.45
1050.5581	3216.8503	1078.05	196.45
1050.6602	3217.7755	1078.5	198.5
1050.7623	3218.7001	1077.3	196.8
1050.8643	3219.624	1078.75	198.15
1050.9663	3220.5473	1072.85	193.2
1051.0682	3221.4701	1075.4	192.2
1051.1701	3222.3922	1072.05	189.85
1051.2719	3223.3137	1071.1	189.5
1051.3737	3224.2346	1070.05	191.05
1051.4754	3225.1549	1071.8	189.9
1051.5771	3226.0746	1066.1	185.5
1051.6788	3226.9937	1069.75	189.75
1051.7804	3227.9121	1061.1	181.5
1051.8819	3228.83	1061.35	180.65
1051.9834	3229.7473	1065	183.05
1052.0849	3230.6639	1065.2	183.5
1052.1863	3231.5799	1061.2	180.65
1052.2876	3232.4954	1066.6	185.05
1052.3889	3233.4102	1060.8	182
1052.4902	3234.3244	1060	178.25
1052.5914	3235.238	1053.7	173.05
1052.6926	3236.151	1081.75	175.1
1052.7937	3237.0634	1054.75	175.35
1052.8948	3237.9752	1058.4	178.75
1052.9958	3238.8864	1050	171.1
1053.0968	3239.797	1054.75	174.95
1053.1977	3240.7069	1049.85	167.05
1053.2986	3241.6163	1052.25	170.55
1053.3994	3242.5251	1050.5	170.1
1053.5002	3243.4332	1047.4	167.7
1053.6009	3244.3408	1046.35	164.7
1053.7016	3245.2477	1043.2	163.85
1053.8022	3246.154	1048.65	166.5
1053.9028	3247.0598	1046.2	164.35
1054.0034	3247.9649	1046.7	166.95
1054.1039	3248.8694	1040.2	159.6
1054.2043	3249.7733	1043.8	161.45
1054.3047	3250.6766	1039.15	159.85
1054.4051	3251.5793	1038.6	158.25
1054.5054	3252.4814	1035.4	157.2
1054.6056	3253.3829	1036	155.4
1054.7058	3254.2838	1038.75	161.35
1054.806	3255.1841	1034.1	155.2
1054.9061	3256.0838	1032.1	152.15
1055.0061	3256.9829	1028.9	151.25
1055.1062	3257.8814	1032.2	150.1
1055.2061	3258.7792	1034	152.25
1055.306	3259.6765	1027.45	147.55
1055.4059	3260.5731	1029.9	152.2
1055.5057	3261.4692	1027.8	146.8
1055.6055	3262.3647	1023.5	144.4
1055.7052	3263.2595	1019.85	140.9
1055.8049	3264.1538	1020.9	142.2
1055.9045	3265.0474	1019.6	138.6
1056.0041	3265.9404	1017.1	136.95
1056.1036	3266.8329	1009.85	129.7
1056.2031	3267.7247	1021.65	132.5
1056.3025	3268.616	1006.55	127.2
1056.4019	3269.5066	1003.65	123.45
1056.5013	3270.3966	1001.35	120.4
1056.6005	3271.286	996.3	117.7
