Software Version:	3.9.2.0
Unit SN:	10000200
Spectrometer SN:	6960
Date:	3/26/2024 2:33:19 PM
Data Line Index:	25
Spectral Points:	2048
Integration time (ms):	125
Averages:	20
Delay (ms):	30000
Sequence Number:	1
Processing:	dark subtract
Laser Power (mW):	305
Laser Current (mA):	819
Laser Diode Temp (C):	25
Laser Case Temp (C):	27.8
System Temp (C):	27.8
Spectrometer Temp (C):	25.8
CCD Temp (C):	0
Secondary Temp (C):	20.003
Heatsink Temp (C):	23.264
CCDPCB Temp (C):	37.23
SecondaryPCB Temp (C):	34.606

Wavelength	RamanShift	Raw Counts	Dark Subtracted
787.061	30.1047	657.5	249.7
787.2016	32.3739	668.7	261.45
787.3422	34.6426	687	280.25
787.4828	36.9109	710.6	301.05
787.6235	39.1787	725	311.9
787.7642	41.4461	751.6	333.75
787.9049	43.7131	788.25	366.75
788.0456	45.9796	806.75	381.55
788.1863	48.2456	833.9	401.75
788.3271	50.5112	864.2	426.55
788.4679	52.7764	888.9	452.1
788.6087	55.0411	919.15	478.35
788.7496	57.3054	950.5	503.6
788.8904	59.5692	991.7	541.1
789.0313	61.8326	1033.65	579.05
789.1722	64.0955	1072.9	614.6
789.3132	66.3579	1118.5	656.35
789.4541	68.6199	1178.8	714.45
789.5951	70.8815	1282.85	813.15
789.7361	73.1426	1504.15	1032.2
789.8771	75.4032	2033.05	1554.75
790.0181	77.6634	3399.45	2915.35
790.1592	79.9231	6769.65	6276.45
790.3003	82.1824	14566.85	14054.5
790.4414	84.4412	33775.6	33231.65
790.5825	86.6995	61855.45	61267.1
790.7237	88.9574	65535	64904.25
790.8648	91.2148	65535	64873
791.006	93.4717	65535	64855.7
791.1472	95.7282	65535	64846.05
791.2885	97.9842	65535	64843.6
791.4297	100.2398	65535	64837.8
791.571	102.4949	65535	64834.65
791.7123	104.7495	65535	64831.4
791.8536	107.0036	65535	64832.35
791.9949	109.2573	65535	64833.25
792.1363	111.5105	65535	64825.6
792.2777	113.7632	65535	64825.9
792.4191	116.0154	65535	64813.55
792.5605	118.2672	65535	64818.45
792.7019	120.5185	65535	64818.9
792.8434	122.7693	65535	64819.25
792.9849	125.0197	65535	64819.85
793.1264	127.2696	65535	64811.7
793.2679	129.519	65535	64809.95
793.4094	131.7679	65535	64807.05
793.551	134.0163	65535	64804.5
793.6926	136.2642	65535	64799
793.8342	138.5117	65535	64795.8
793.9758	140.7587	65535	64796.45
794.1175	143.0052	65535	64789
794.2591	145.2512	65535	64790.1
794.4008	147.4967	65535	64797.25
794.5425	149.7417	65535	64789.75
794.6842	151.9863	65535	64788.1
794.826	154.2304	65535	64781.1
794.9677	156.4739	65535	64780.75
795.1095	158.717	65535	64774.65
795.2513	160.9596	65535	64772.75
795.3931	163.2017	65535	64767.35
795.535	165.4433	65535	64767.9
795.6768	167.6844	65535	64770.55
795.8187	169.925	65535	64764
795.9606	172.1651	65535	64767.05
796.1025	174.4047	65535	64761.2
796.2445	176.6439	65535	64760.7
796.3864	178.8825	65535	64757.4
796.5284	181.1206	65535	64750.6
796.6704	183.3582	65535	64748.2
796.8124	185.5954	65535	64749.75
796.9544	187.832	65535	64739.25
797.0965	190.0681	65535	64744
797.2386	192.3037	65535	64734.55
797.3806	194.5388	65535	64733.5
797.5228	196.7734	65535	64730.45
797.6649	199.0075	65535	64727.55
797.807	201.2411	65535	64719.3
797.9492	203.4742	65535	64723.5
798.0914	205.7068	65535	64727.7
798.2336	207.9389	65535	64727.9
798.3758	210.1704	65535	64721.35
798.518	212.4015	65535	64716.1
798.6603	214.632	65535	64721.05
798.8025	216.862	65535	64729
798.9448	219.0915	65535	64732.85
799.0871	221.3205	65535	64734.6
799.2294	223.549	65535	64737.85
799.3718	225.777	65535	64740.55
799.5141	228.0044	65535	64741.5
799.6565	230.2314	65535	64743.4
799.7989	232.4578	65535	64743.25
799.9413	234.6837	65535	64731.1
800.0837	236.909	65535	64732.1
800.2262	239.1339	65535	64703.95
800.3687	241.3582	65535	64718.35
800.5111	243.582	65535	64687.1
800.6536	245.8053	65535	64703.4
800.7961	248.0281	65535	64709.9
800.9387	250.2503	65535	64696.75
801.0812	252.472	65535	64697.05
801.2238	254.6932	65535	64693.85
801.3664	256.9139	65535	64692.5
801.509	259.134	65535	64692.5
801.6516	261.3536	65535	64692.65
801.7942	263.5727	65535	64687.6
801.9369	265.7912	65535	64687.6
802.0795	268.0092	65535	64690.9
802.2222	270.2267	65535	64690.05
802.3649	272.4436	65535	64686.4
802.5076	274.6601	65535	64685.3
802.6504	276.8759	65535	64690.3
802.7931	279.0913	65535	64687.35
802.9359	281.3061	65535	64682.5
803.0787	283.5204	65535	64679.15
803.2215	285.7341	65535	64679.15
803.3643	287.9473	65535	64666.45
803.5071	290.16	65535	64669.95
803.6499	292.3721	65535	64676.45
803.7928	294.5837	65535	64674.05
803.9357	296.7947	65535	64674.05
804.0786	299.0052	65535	64674.85
804.2215	301.2152	65535	64669.8
804.3644	303.4246	65535	64682.6
804.5074	305.6334	65535	64678.15
804.6503	307.8418	65535	64677.7
804.7933	310.0495	65535	64670.95
804.9363	312.2568	65535	64671.1
805.0793	314.4635	65535	64669.15
805.2223	316.6696	65535	64669.65
805.3653	318.8752	65535	64665.55
805.5084	321.0802	65535	64667.75
805.6514	323.2847	65535	64670.25
805.7945	325.4887	65535	64667.45
805.9376	327.692	65535	64665
806.0807	329.8949	65535	64665.65
806.2238	332.0972	65535	64664.3
806.367	334.2989	65535	64661.3
806.5101	336.5001	65535	64658.7
806.6533	338.7007	65535	64655
806.7965	340.9008	65535	64660.5
806.9397	343.1003	65535	64658.5
807.0829	345.2992	65535	64656.8
807.2261	347.4976	65535	64657.25
807.3693	349.6955	65535	64650.75
807.5126	351.8927	65535	64646.95
807.6559	354.0895	65535	64639.6
807.7991	356.2856	65535	64644.05
807.9424	358.4812	65535	64649.6
808.0857	360.6763	65535	64645
808.2291	362.8707	65535	64647.65
808.3724	365.0646	65535	64645
808.5158	367.258	65535	64643.75
808.6591	369.4508	65535	64641.55
808.8025	371.643	65535	64636.8
808.9459	373.8346	65535	64636.65
809.0893	376.0257	65535	64636.5
809.2327	378.2162	65535	64638.85
809.3762	380.4062	65535	64634.75
809.5196	382.5956	65535	64631.75
809.6631	384.7844	65535	64635.7
809.8066	386.9726	65535	64632.7
809.9501	389.1603	65535	64631.95
810.0936	391.3474	65535	64590.4
810.2371	393.5339	65535	64635.25
810.3806	395.7199	65535	64641.7
810.5241	397.9052	65535	64642.95
810.6677	400.09	65535	64642.35
810.8113	402.2743	65535	64641.3
810.9548	404.4579	65535	64646.45
811.0984	406.641	65535	64643.15
811.2421	408.8235	65535	64646.2
811.3857	411.0054	65535	64644.55
811.5293	413.1868	65535	64641.3
811.673	415.3675	65535	64635.5
811.8166	417.5477	65535	64636.45
811.9603	419.7273	65535	64637.15
812.104	421.9064	65535	64633.9
812.2477	424.0848	65535	64632.4
812.3914	426.2627	65535	64629.65
812.5351	428.4399	65535	64633.3
812.6788	430.6166	65535	64624.5
812.8226	432.7928	65535	64627.7
812.9663	434.9683	65535	64632.05
813.1101	437.1432	65535	64628.6
813.2539	439.3176	65535	64635.15
813.3977	441.4914	65535	64637.8
813.5415	443.6645	65535	64629.85
813.6853	445.8371	65535	64627.3
813.8291	448.0091	65535	64628.35
813.973	450.1806	65535	64630.9
814.1168	452.3514	65535	64634.4
814.2607	454.5216	65535	64624.65
814.4046	456.6913	65535	64627.3
814.5485	458.8603	65535	64630.2
814.6924	461.0288	65535	64632.3
814.8363	463.1967	65535	64635.05
814.9802	465.3639	65535	64630.8
815.1241	467.5306	65535	64633
815.2681	469.6967	65535	64631.85
815.412	471.8622	65535	64635.05
815.556	474.0271	65535	64634.3
815.7	476.1914	65535	64624.95
815.844	478.3551	65535	64624.85
815.988	480.5182	65535	64627.95
816.132	482.6807	65535	64635.65
816.276	484.8426	65535	64639.85
816.4201	487.0039	65535	64637.5
816.5641	489.1647	65535	64629.25
816.7082	491.3248	65535	64625.5
816.8522	493.4843	65535	64628.3
816.9963	495.6432	65535	64631.35
817.1404	497.8015	65535	64621.15
817.2845	499.9592	65535	64618.25
817.4286	502.1163	65535	64619.75
817.5727	504.2728	65535	64622.5
817.7168	506.4287	65535	64634.5
817.861	508.5839	65535	64630.55
818.0051	510.7386	65535	64629.55
818.1493	512.8927	65535	64614.5
818.2935	515.0461	65535	64623.55
818.4377	517.199	65535	64618.6
818.5818	519.3512	65535	64619.95
818.726	521.5029	65535	64619
818.8703	523.6539	65535	64620.15
819.0145	525.8043	65535	64617.9
819.1587	527.9541	65535	64619.25
819.303	530.1033	65535	64621
819.4472	532.2519	65535	64620.9
819.5915	534.3999	65535	64622
819.7357	536.5472	65535	64620.7
819.88	538.694	65535	64626.2
820.0243	540.8401	65535	64619.25
820.1686	542.9856	65535	64610.15
820.3129	545.1305	65535	64606.5
820.4572	547.2748	65535	64602.2
820.6016	549.4185	65535	64601.7
820.7459	551.5615	65535	64607.1
820.8902	553.704	65535	64606
821.0346	555.8458	65535	64610.2
821.1789	557.987	65535	64610.35
821.3233	560.1276	65535	64608.15
821.4677	562.2675	65535	64609.2
821.6121	564.4069	65535	64607.25
821.7565	566.5456	65535	64611.7
821.9009	568.6837	65535	64608.4
822.0453	570.8212	65535	64614.85
822.1897	572.958	65535	64611.4
822.3342	575.0942	65535	64611.55
822.4786	577.2299	65535	64618.7
822.6231	579.3648	65535	64626.55
822.7675	581.4992	65535	64632.3
822.912	583.6329	65535	64637.65
823.0565	585.766	65535	64632.15
823.201	587.8985	65535	64630.3
823.3454	590.0304	65535	64594.85
823.4899	592.1616	65535	64610.95
823.6345	594.2922	65535	64610.35
823.779	596.4222	65535	64607.15
823.9235	598.5515	65535	64604.3
824.068	600.6802	65535	64607.45
824.2126	602.8083	65535	64607.4
824.3571	604.9358	65535	64605.5
824.5017	607.0626	65535	64601
824.6462	609.1888	65535	64600.8
824.7908	611.3144	65535	64601.15
824.9354	613.4393	65535	64601.4
825.08	615.5636	65535	64603.95
825.2246	617.6873	65535	64604.35
825.3692	619.8103	65535	64606.45
825.5138	621.9327	65535	64600.05
825.6584	624.0544	65535	64612.2
825.803	626.1756	65535	64610.6
825.9477	628.2961	65535	64606.2
826.0923	630.4159	65535	64604.25
826.237	632.5351	65535	64606.05
826.3816	634.6537	65535	64600.5
826.5263	636.7716	65535	64598.3
826.6709	638.8889	65535	64594.9
826.8156	641.0056	65535	64597.9
826.9603	643.1216	65535	64594.5
827.105	645.237	65535	64595.55
827.2497	647.3518	65535	64603.15
827.3944	649.4659	65535	64609.35
827.5391	651.5793	65535	64609.4
827.6838	653.6922	65535	64609.2
827.8285	655.8043	65535	64606.2
827.9733	657.9159	65535	64601.1
828.118	660.0268	65535	64601.75
828.2627	662.137	65535	64603.3
828.4075	664.2466	65535	64596.05
828.5522	666.3556	65535	64600.25
828.697	668.4639	65535	64601.75
828.8418	670.5716	65535	64607.45
828.9865	672.6786	65535	64604.05
829.1313	674.785	65535	64597.95
829.2761	676.8907	65535	64598.7
829.4209	678.9958	65535	64609.1
829.5657	681.1002	65535	64599.4
829.7105	683.204	65535	64592.6
829.8553	685.3072	65535	64595.75
830.0001	687.4097	65535	64593.25
830.1449	689.5115	65535	64594.85
830.2898	691.6127	65535	64599.25
830.4346	693.7132	65535	64601.35
830.5794	695.8131	65535	64577.2
830.7243	697.9123	65535	64592.35
830.8691	700.0109	65535	64591.25
831.014	702.1089	65535	64596.95
831.1588	704.2061	65535	64598
831.3037	706.3028	65535	64595.5
831.4486	708.3987	65535	64592.95
831.5935	710.4941	65535	64598.8
831.7383	712.5887	65535	64592.5
831.8832	714.6827	65535	64594.5
832.0281	716.7761	65535	64601.6
832.173	718.8688	65535	64594.4
832.3179	720.9608	65535	64590.7
832.4628	723.0522	65535	64587.85
832.6077	725.1429	65535	64594.1
832.7527	727.233	65535	64593.25
832.8976	729.3224	65535	64595
833.0425	731.4112	65535	64591.75
833.1874	733.4993	65535	64593.3
833.3324	735.5867	65535	64593.15
833.4773	737.6735	65535	64594.45
833.6222	739.7596	65535	64591.8
833.7672	741.845	65535	64595.6
833.9122	743.9298	65535	64592.05
834.0571	746.014	65535	64589.9
834.2021	748.0974	65535	64586.6
834.347	750.1802	65535	64588.6
834.492	752.2624	65535	64589.5
834.637	754.3439	65535	64585.25
834.782	756.4247	65535	64581.25
834.9269	758.5048	65535	64588.2
835.0719	760.5843	65535	64591.1
835.2169	762.6631	65535	64592.3
835.3619	764.7413	65535	64593.25
835.5069	766.8188	65535	64589.95
835.6519	768.8956	65535	64591.65
835.7969	770.9718	65535	64587.05
835.9419	773.0473	65535	64589.7
836.0869	775.1221	65535	64590.1
836.232	777.1962	65535	64589.45
836.377	779.2697	65535	64588.3
836.522	781.3426	65535	64573.1
836.667	783.4147	65535	64587.95
836.8121	785.4862	65535	64593.2
836.9571	787.557	65535	64586.75
837.1021	789.6271	65535	64586.45
837.2472	791.6966	65535	64587.3
837.3922	793.7654	65525.05	64580.55
837.5373	795.8335	65526.95	64580.65
837.6823	797.901	65529.3	64584.5
837.8274	799.9678	65522.6	64573.45
837.9724	802.0339	65518.6	64568.3
838.1175	804.0993	65522.8	64567
838.2626	806.1641	65518.4	64568.7
838.4076	808.2282	65514.3	64566.95
838.5527	810.2916	65495.4	64549.55
838.6978	812.3544	65522.55	64578.6
838.8428	814.4164	65470.45	64530.95
838.9879	816.4778	65470.7	64518.6
839.133	818.5385	65478.6	64528.85
839.2781	820.5986	65477.5	64526.1
839.4232	822.658	65488.2	64539.65
839.5682	824.7166	65491.45	64543.25
839.7133	826.7747	65424.65	64476.7
839.8584	828.832	65436.5	64488.75
840.0035	830.8886	65485.75	64535.6
840.1486	832.9446	65488.9	64536.8
840.2937	834.9999	65372.15	64424.85
840.4388	837.0545	65437.1	64483.35
840.5839	839.1085	65493.3	64543.85
840.729	841.1618	65469.55	64519.45
840.8741	843.2143	65369.15	64423.55
841.0192	845.2662	65363.95	64412.75
841.1643	847.3175	65410.4	64465
841.3095	849.368	65234.95	64288.6
841.4546	851.4179	65389.25	64439.4
841.5997	853.467	65267.6	64317.35
841.7448	855.5155	65324.9	64375.95
841.8899	857.5633	65203.15	64256.4
842.0351	859.6105	65127.6	64176.55
842.1802	861.6569	65218.2	64265.95
842.3253	863.7027	65028.7	64077.55
842.4704	865.7478	65094.95	64142.9
842.6156	867.7922	65054.95	64102.05
842.7607	869.8359	65160.6	64210.5
842.9058	871.8789	64959	64006.2
843.0509	873.9212	65071.55	64087.9
843.1961	875.9629	65122.4	64173.2
843.3412	878.0039	65086.8	64135.95
843.4863	880.0441	65041	64094.65
843.6315	882.0837	65032.8	64086.9
843.7766	884.1226	64984.25	64029.8
843.9218	886.1609	64938.35	63990
844.0669	888.1984	64802.3	63854
844.212	890.2352	64974.55	64021.7
844.3572	892.2714	64734.2	63778
844.5023	894.3069	64844.7	63895.7
844.6475	896.3416	64710.5	63760.2
844.7926	898.3757	64653.1	63703.9
844.9377	900.4091	64203.05	63252.05
845.0829	902.4418	64768.05	63810.6
845.228	904.4739	64471.15	63516.05
845.3732	906.5052	64456.35	63505.35
845.5183	908.5358	64271	63319.5
845.6635	910.5658	64111.65	63157.55
845.8086	912.595	64096.3	63143.4
845.9538	914.6236	63424	62471.95
846.0989	916.6515	64319.8	63367.15
846.2441	918.6786	63410.4	62457.55
846.3892	920.7051	63714.9	62760.85
846.5344	922.7309	63558.6	62609.3
846.6795	924.756	63747.15	62793.75
846.8246	926.7804	63414.2	62459.45
846.9698	928.8041	62527.85	61577.8
847.1149	930.8272	63249.95	62296
847.2601	932.8495	63261	62308.5
847.4052	934.8711	62547.8	61591.2
847.5504	936.892	61997.5	61040.7
847.6955	938.9123	62250.55	61297.05
847.8407	940.9318	61769.05	60817.2
847.9858	942.9506	61629.85	60679.15
848.131	944.9688	61634.75	60679.45
848.2761	946.9862	60624.65	59674.6
848.4213	949.003	61036.7	60084.9
848.5664	951.019	60093.3	59144.3
848.7115	953.0344	60313.35	59361.05
848.8567	955.0491	60201.8	59249.05
849.0018	957.063	60497.1	59544.15
849.147	959.0763	60536.75	59579.7
849.2921	961.0888	59902.85	58950.1
849.4373	963.1007	60450.4	59500.8
849.5824	965.1119	60380.95	59437.5
849.7275	967.1223	59847.2	58908.25
849.8727	969.1321	60441.7	59502.6
850.0178	971.1412	59623.15	58679.8
850.1629	973.1495	59300	58351.6
850.3081	975.1572	59604.85	58622.4
850.4532	977.1641	59291.75	58339.7
850.5983	979.1704	59088.75	58138.1
850.7435	981.1759	59206.45	58254.7
850.8886	983.1808	58722.45	57768.8
851.0337	985.1849	58753.9	57791
851.1788	987.1884	58937.45	57982.65
851.324	989.1911	59438.6	58485.9
851.4691	991.1932	58338.45	57385.9
851.6142	993.1945	58561.4	57612.7
851.7593	995.1951	58850.35	57898
851.9045	997.1951	58217.6	57260.55
852.0496	999.1943	57869.25	56918.1
852.1947	1001.1928	57594.45	56646.25
852.3398	1003.1906	57694.05	56743.1
852.4849	1005.1877	56972.6	56023.6
852.63	1007.1841	56609.1	55660.05
852.7751	1009.1798	56521.35	55572.5
852.9202	1011.1748	56317.5	55366.5
853.0653	1013.1691	55996.05	55046.25
853.2104	1015.1627	54921.25	53972.3
853.3555	1017.1556	54856.05	53905.2
853.5006	1019.1477	54927.5	53980.8
853.6457	1021.1392	54340.6	53399.7
853.7908	1023.1299	53752.45	52810.85
853.9359	1025.12	53943.4	53007.95
854.081	1027.1093	53557.35	52631.6
854.2261	1029.0979	53482.1	52554.2
854.3712	1031.0859	53470.25	52542.55
854.5163	1033.0731	52939.7	52003.4
854.6613	1035.0596	52859.4	51921.35
854.8064	1037.0454	52507.55	51562.7
854.9515	1039.0304	52131.5	51187.5
855.0965	1041.0148	51646.6	50704.45
855.2416	1042.9985	51570.5	50619.7
855.3867	1044.9814	51559.95	50614
855.5317	1046.9636	51234.05	50287.3
855.6768	1048.9452	51034.75	50091.55
855.8219	1050.926	50902.75	49954.4
855.9669	1052.9061	50719.35	49773.45
856.112	1054.8855	50570.55	49625.2
856.257	1056.8642	50340.45	49393.7
856.4021	1058.8421	50323.2	49369.75
856.5471	1060.8194	50221.1	49272.3
856.6921	1062.7959	49990.75	49043.7
856.8372	1064.7717	49955.7	49008.95
856.9822	1066.7469	49788.7	48837.6
857.1272	1068.7213	49655.2	48706.55
857.2723	1070.695	49357.45	48412.7
857.4173	1072.6679	48976.55	48030.35
857.5623	1074.6402	48914.65	47966.6
857.7073	1076.6117	48813.5	47859.65
857.8523	1078.5826	48765.7	47818.2
857.9973	1080.5527	48670.65	47725.5
858.1423	1082.5221	48646.2	47696.1
858.2873	1084.4908	48718.15	47771.55
858.4323	1086.4587	48814.7	47864.95
858.5773	1088.426	48857.05	47906.3
858.7223	1090.3925	48657.15	47706.6
858.8673	1092.3584	48524.4	47580.3
859.0123	1094.3235	48004.2	47059.85
859.1573	1096.2879	47778.25	46832.2
859.3022	1098.2515	47583.6	46639.9
859.4472	1100.2145	47534.55	46588.3
859.5922	1102.1767	47444.8	46498.65
859.7371	1104.1382	47437.05	46494.95
859.8821	1106.099	47499.3	46551.55
860.027	1108.0591	47456.1	46513.6
860.172	1110.0185	47445.2	46501.45
860.3169	1111.9771	47419.7	46476.75
860.4619	1113.9351	46922.2	45979.4
860.6068	1115.8923	46476.9	45531.05
860.7517	1117.8488	46001.85	45054.25
860.8967	1119.8045	45458.7	44514.1
861.0416	1121.7596	45260.7	44314.7
861.1865	1123.7139	45021.15	44075.9
861.3314	1125.6675	44911	43968.5
861.4763	1127.6204	44999.75	44056
861.6212	1129.5726	44783.95	43841.3
861.7661	1131.524	44742.8	43801.8
861.911	1133.4748	44729.5	43784.6
862.0559	1135.4248	44626.5	43679.05
862.2008	1137.3741	44475.5	43533.55
862.3457	1139.3226	44360.2	43416.25
862.4905	1141.2705	44304.65	43362.7
862.6354	1143.2176	43969.4	43019.45
862.7803	1145.164	43943.45	42996.8
862.9251	1147.1097	43832.3	42891.8
863.07	1149.0546	43772.25	42825.75
863.2148	1150.9989	43551.7	42607.5
863.3597	1152.9424	43339.35	42392.35
863.5045	1154.8852	42997.85	42051.45
863.6493	1156.8272	42777.6	41834.8
863.7942	1158.7686	42703.25	41749.2
863.939	1160.7092	42413.75	41469.4
864.0838	1162.6491	42170	41223.95
864.2286	1164.5883	42166.95	41221.9
864.3734	1166.5267	42106.5	41162.2
864.5182	1168.4644	42206.4	41261.75
864.663	1170.4014	42321.7	41376.5
864.8078	1172.3377	42515.9	41574.25
864.9526	1174.2732	42576.95	41636.55
865.0974	1176.2081	42705.45	41760.2
865.2421	1178.1421	42738.35	41793.6
865.3869	1180.0755	42763.95	41823.4
865.5317	1182.0082	42524.65	41584.25
865.6764	1183.9401	42372.35	41434.4
865.8212	1185.8713	42046.45	41109.8
865.9659	1187.8017	41714.6	40780.1
866.1106	1189.7315	41410.9	40485.3
866.2554	1191.6605	40903.3	39979.4
866.4001	1193.5888	40566.3	39635.75
866.5448	1195.5163	40415.3	39479.3
866.6895	1197.4432	40188.15	39247.5
866.8342	1199.3693	39977.75	39038.9
866.9789	1201.2947	39762.55	38819.15
867.1236	1203.2193	39546.15	38603.9
867.2683	1205.1432	39506.05	38565.6
867.413	1207.0664	39401.45	38462.1
867.5576	1208.9889	39446.5	38502.8
867.7023	1210.9106	39307.7	38367.3
867.847	1212.8316	39215.1	38278
867.9916	1214.7519	39222.5	38275.85
868.1363	1216.6715	39056.85	38117.3
868.2809	1218.5903	38990.75	38052.35
868.4255	1220.5084	38764.6	37824.2
868.5701	1222.4257	38699.1	37758.55
868.7148	1224.3424	38425.15	37487.4
868.8594	1226.2583	38307.2	37361.75
869.004	1228.1735	38346.25	37408.1
869.1486	1230.0879	38324.1	37384.75
869.2932	1232.0016	38337.8	37399
869.4377	1233.9146	38202.45	37257.8
869.5823	1235.8269	37966.7	37026.9
869.7269	1237.7384	37836.35	36897.45
869.8715	1239.6492	37426.8	36490.3
870.016	1241.5592	37296.85	36354.55
870.1606	1243.4686	37017	36078.15
870.3051	1245.3772	36884.55	35946.4
870.4496	1247.285	36667.25	35725.25
870.5941	1249.1922	36535.35	35598.9
870.7387	1251.0986	36409.35	35472
870.8832	1253.0042	36325.75	35388.45
871.0277	1254.9092	36252.5	35314.6
871.1722	1256.8134	36275.1	35338.9
871.3167	1258.7169	36351.2	35411.45
871.4611	1260.6196	36385.3	35446.85
871.6056	1262.5216	36505.65	35565.6
871.7501	1264.4229	36562	35623.75
871.8945	1266.3234	36581.25	35641.75
872.039	1268.2232	36578.35	35636.95
872.1834	1270.1223	36425.1	35485.35
872.3278	1272.0207	36346.3	35406.8
872.4723	1273.9183	36166.7	35224.45
872.6167	1275.8151	35953.05	35016.7
872.7611	1277.7113	35783.9	34847.95
872.9055	1279.6067	35550.15	34614.5
873.0499	1281.5014	35277.45	34340.55
873.1943	1283.3953	35053.2	34115.2
873.3386	1285.2885	34868.1	33932.4
873.483	1287.181	34734.15	33797.8
873.6274	1289.0727	34688.05	33756
873.7717	1290.9637	34662.25	33725.3
873.9161	1292.854	34725.7	33790.2
874.0604	1294.7435	34737.6	33799.95
874.2047	1296.6323	34909.75	33974.85
874.349	1298.5204	35093.3	34152.05
874.4933	1300.4077	35277.55	34339.05
874.6376	1302.2943	35394.95	34457.9
874.7819	1304.1802	35462.5	34526.35
874.9262	1306.0653	35275.15	34338.65
875.0705	1307.9497	35075.35	34139.2
875.2147	1309.8333	34926.3	33990.35
875.359	1311.7162	34845.35	33911.4
875.5032	1313.5984	34889	33953.05
875.6475	1315.4798	34939.4	33990.4
875.7917	1317.3605	35016.1	34064.2
875.9359	1319.2405	35134.15	34194.45
876.0801	1321.1197	35067.9	34132.55
876.2243	1322.9982	34955.4	34014.8
876.3685	1324.876	34925.6	33990
876.5127	1326.753	34794.5	33859.95
876.6569	1328.6293	34847.35	33908.95
876.801	1330.5048	34822.75	33883.45
876.9452	1332.3796	34747.5	33810.8
877.0893	1334.2537	34636.6	33682.4
877.2335	1336.127	34483.4	33548.4
877.3776	1337.9996	34323.25	33390.8
877.5217	1339.8714	34238.95	33304.45
877.6658	1341.7426	34072	33091.05
877.8099	1343.6129	33952.5	33014.1
877.954	1345.4826	33758.7	32822.7
878.0981	1347.3515	33691.5	32751.5
878.2422	1349.2196	33586.2	32650.4
878.3862	1351.087	33552.65	32617.95
878.5303	1352.9537	33538.15	32601.3
878.6743	1354.8197	33605	32667.9
878.8184	1356.6849	33740.6	32803.25
878.9624	1358.5493	33720.55	32788.7
879.1064	1360.4131	33630.65	32695.5
879.2504	1362.276	33439.7	32504.8
879.3944	1364.1383	33201.15	32264.65
879.5384	1365.9998	32878.15	31936.75
879.6823	1367.8606	32431.5	31494
879.8263	1369.7206	32151.05	31215.95
879.9702	1371.5799	31913.35	30975.15
880.1142	1373.4384	31681.4	30745.5
880.2581	1375.2962	31529.3	30594.1
880.402	1377.1533	31163.35	30231.6
880.5459	1379.0096	30732.95	29801.8
880.6898	1380.8652	30397.85	29470.05
880.8337	1382.7201	30147.7	29216.45
880.9776	1384.5742	29791.7	28858.9
881.1215	1386.4275	29547.15	28614.3
881.2653	1388.2802	29343.6	28410.6
881.4092	1390.132	29155.25	28217.95
881.553	1391.9832	29085.95	28150.95
881.6968	1393.8336	28829.1	27895.15
881.8406	1395.6832	28707.4	27772.8
881.9844	1397.5322	28566.85	27635.25
882.1282	1399.3803	28509.95	27570.95
882.272	1401.2278	28308.85	27375.8
882.4158	1403.0745	28227.5	27294.45
882.5595	1404.9204	28124.65	27194.3
882.7033	1406.7656	28098.75	27168.95
882.847	1408.6101	27927.95	26992.65
882.9908	1410.4538	27859.1	26925.85
883.1345	1412.2968	27823.1	26890.8
883.2782	1414.139	27742.15	26810.7
883.4219	1415.9805	27803.1	26868.3
883.5656	1417.8213	27747.15	26797.35
883.7092	1419.6613	27817.6	26887.25
883.8529	1421.5006	27907.7	26976.55
883.9965	1423.3391	28109.35	27177.9
884.1402	1425.1769	28353.75	27420.55
884.2838	1427.0139	28849.9	27916.8
884.4274	1428.8502	29459.65	28525.25
884.571	1430.6858	29991.35	29059.05
884.7146	1432.5206	30271.1	29342.35
884.8582	1434.3547	30477.95	29545.65
885.0018	1436.188	30462.2	29529.15
885.1453	1438.0206	30385.4	29454.85
885.2889	1439.8524	30106.75	29175
885.4324	1441.6835	29938.1	29007.45
885.5759	1443.5139	29800.9	28865.85
885.7194	1445.3435	29605.2	28675.15
885.8629	1447.1724	29590.95	28661
886.0064	1449.0005	29415.35	28484.1
886.1499	1450.8279	29260.2	28330.35
886.2933	1452.6545	29161.8	28231
886.4368	1454.4804	29217.35	28287.8
886.5802	1456.3056	29107.5	28173.35
886.7237	1458.13	28954.9	28025.45
886.8671	1459.9536	28716.45	27786.95
887.0105	1461.7766	28275.3	27348.35
887.1539	1463.5987	27739.65	26809.05
887.2972	1465.4202	27338.05	26409.3
887.4406	1467.2409	26885.5	25956.7
887.584	1469.0608	26626.05	25696.55
887.7273	1470.88	26311.25	25380.95
887.8706	1472.6984	26050.75	25123.65
888.0139	1474.5161	25733	24798.9
888.1572	1476.3331	25511	24581.6
888.3005	1478.1493	25345.05	24414.6
888.4438	1479.9648	25231.7	24302
888.5871	1481.7795	25091.45	24162.2
888.7303	1483.5935	24998.2	24067.5
888.8736	1485.4067	24880.55	23952.85
889.0168	1487.2192	24821.55	23889.1
889.16	1489.031	24724.05	23792.25
889.3032	1490.842	24630.45	23702.15
889.4464	1492.6522	24586.2	23656.25
889.5896	1494.4618	24497.6	23567.75
889.7327	1496.2705	24409.65	23483.15
889.8759	1498.0785	24340.7	23413.4
890.019	1499.8858	24251.05	23321
890.1622	1501.6924	24189.75	23264
890.3053	1503.4981	24132.1	23205.2
890.4484	1505.3032	24043.85	23113.35
890.5914	1507.1075	23968.85	23038.35
890.7345	1508.911	23879.35	22953.6
890.8776	1510.7138	23842.95	22913.55
891.0206	1512.5159	23717.55	22787.55
891.1637	1514.3172	23623.25	22695
891.3067	1516.1178	23514.2	22588.9
891.4497	1517.9176	23485.2	22555.4
891.5927	1519.7166	23369.65	22444.45
891.7357	1521.515	23259.75	22328.45
891.8786	1523.3126	23217.85	22292.45
892.0216	1525.1094	23095.35	22166.85
892.1645	1526.9055	23015.8	22093.25
892.3074	1528.7008	22937.55	22012.7
892.4503	1530.4954	22768.1	21834.2
892.5932	1532.2893	22763.95	21841.35
892.7361	1534.0824	22635.4	21708.65
892.879	1535.8747	22624.45	21700.3
893.0218	1537.6663	22501.65	21578.95
893.1647	1539.4572	22425.3	21499.8
893.3075	1541.2473	22406.35	21483.25
893.4503	1543.0367	22305.7	21382.8
893.5931	1544.8253	22215.6	21287.5
893.7359	1546.6132	22170.95	21244.35
893.8787	1548.4003	22082.95	21149.65
894.0214	1550.1867	22088.65	21158.7
894.1642	1551.9723	22009.65	21082.15
894.3069	1553.7572	21960.45	21038.55
894.4496	1555.5414	21911.4	20990.55
894.5923	1557.3247	21893.55	20973.6
894.735	1559.1074	21872.5	20956.6
894.8777	1560.8893	21837.65	20921.65
895.0204	1562.6705	21833.1	20916.4
895.163	1564.4509	21850.85	20937.85
895.3056	1566.2305	21843.75	20932.8
895.4482	1568.0094	21943.8	21029.95
895.5908	1569.7876	21996.45	21080.2
895.7334	1571.565	22006.55	21090.75
895.876	1573.3417	22027.4	21109.5
896.0186	1575.1176	22002.5	21088.15
896.1611	1576.8928	21932.95	21021.65
896.3036	1578.6672	21776.2	20866.75
896.4461	1580.4409	21571.8	20664.4
896.5886	1582.2138	21406.25	20491.5
896.7311	1583.986	21210.3	20297.75
896.8736	1585.7575	21093.35	20176.8
897.0161	1587.5282	20936.85	20027
897.1585	1589.2981	20864.8	19956.05
897.3009	1591.0673	20707.8	19798.8
897.4433	1592.8358	20668.8	19758.15
897.5857	1594.6035	20585.15	19669.45
897.7281	1596.3704	20535.2	19621.9
897.8705	1598.1366	20465.3	19551.7
898.0128	1599.9021	20446.2	19536.6
898.1551	1601.6668	20388.3	19473.7
898.2975	1603.4308	20382.3	19468.7
898.4398	1605.194	20421.7	19506.4
898.5821	1606.9564	20454.2	19551.05
898.7243	1608.7182	20469.05	19562.9
898.8666	1610.4791	20554	19655.5
899.0088	1612.2394	20630.15	19730.75
899.1511	1613.9988	20802.4	19901.25
899.2933	1615.7576	20956.45	20051.5
899.4355	1617.5156	21208.5	20290.4
899.5776	1619.2728	21410.65	20498
899.7198	1621.0293	21547.5	20639.95
899.862	1622.785	21548.65	20635.85
900.0041	1624.54	21424.1	20521.65
900.1462	1626.2942	21228.45	20322.1
900.2883	1628.0477	20928.35	20018.45
900.4304	1629.8005	20620.05	19711.25
900.5725	1631.5525	20293.65	19387.6
900.7145	1633.3037	20035.25	19129.85
900.8566	1635.0542	19858.05	18955.9
900.9986	1636.804	19662.5	18756.1
901.1406	1638.553	19571.3	18623.5
901.2826	1640.3013	19403.95	18497.85
901.4245	1642.0488	19296.2	18387.75
901.5665	1643.7955	19231.75	18327.95
901.7085	1645.5416	19209.8	18305.95
901.8504	1647.2868	19206.2	18302.2
901.9923	1649.0313	19243.2	18337.35
902.1342	1650.7751	19300.15	18390.3
902.2761	1652.5181	19432.5	18527.65
902.4179	1654.2604	19630.7	18728.4
902.5598	1656.0019	19922.65	19020.25
902.7016	1657.7427	20235.55	19332.1
902.8434	1659.4828	20591.05	19683.95
902.9852	1661.222	20781.05	19871.25
903.127	1662.9606	20798	19891.85
903.2687	1664.6984	20618.2	19710.75
903.4105	1666.4354	20257.35	19348.1
903.5522	1668.1717	19744.5	18834
903.6939	1669.9072	19265.05	18357.45
903.8356	1671.642	18856.55	17947.55
903.9773	1673.3761	18543.05	17636.85
904.119	1675.1094	18256.55	17349.9
904.2606	1676.8419	18036.15	17129.2
904.4022	1678.5737	17846	16937.15
904.5439	1680.3048	17708.8	16800.7
904.6855	1682.0351	17558.1	16651.7
904.827	1683.7646	17456.05	16548.3
904.9686	1685.4934	17352.5	16446.75
905.1101	1687.2215	17219.3	16314.05
905.2517	1688.9488	17123.7	16219.05
905.3932	1690.6754	17048.9	16144.4
905.5347	1692.4012	17031.7	16125.35
905.6761	1694.1263	16936.15	16029.9
905.8176	1695.8506	16874.05	15967
905.9591	1697.5742	16805.6	15903.85
906.1005	1699.297	16714.05	15814.25
906.2419	1701.0191	16644.3	15744.35
906.3833	1702.7404	16550.3	15648.45
906.5246	1704.461	16481.1	15578.8
906.666	1706.1808	16427.75	15522.4
906.8073	1707.8999	16321.75	15420.1
906.9487	1709.6182	16253.25	15353.95
907.09	1711.3358	16229.4	15333.1
907.2313	1713.0527	16176.5	15281.6
907.3725	1714.7688	16118.9	15216.25
907.5138	1716.4841	16027.1	15125.6
907.655	1718.1987	16024.6	15117.3
907.7962	1719.9126	15936.15	15039.2
907.9374	1721.6257	15909	15010.55
908.0786	1723.338	15834.2	14934.2
908.2198	1725.0496	15746.25	14848.3
908.3609	1726.7605	15724.05	14822.45
908.502	1728.4706	15673.45	14774.6
908.6431	1730.18	15545.35	14648.2
908.7842	1731.8886	15508.7	14613.3
908.9253	1733.5964	15485.1	14570.3
909.0664	1735.3036	15410.3	14508.6
909.2074	1737.0099	15414.1	14514.1
909.3484	1738.7156	15365.65	14470.6
909.4894	1740.4204	15278.15	14378.75
909.6304	1742.1246	15262.05	14362.6
909.7714	1743.8279	15232.35	14335.45
909.9123	1745.5306	15212.7	14313.8
910.0532	1747.2325	15138.45	14241.6
910.1941	1748.9336	15091.1	14193.05
910.335	1750.634	15002.3	14099.4
910.4759	1752.3336	14987.7	14092.4
910.6168	1754.0325	14956.9	14063.2
910.7576	1755.7307	14935.7	14039.95
910.8984	1757.4281	14888.25	13992.15
911.0392	1759.1247	14913.8	14005.9
911.18	1760.8206	14851	13946.15
911.3208	1762.5158	14827.7	13920.75
911.4615	1764.2102	14744.2	13847.3
911.6022	1765.9039	14707.65	13810.3
911.7429	1767.5968	14658.4	13763.85
911.8836	1769.289	14571.45	13675.6
912.0243	1770.9804	14562	13663.6
912.1649	1772.6711	14549.4	13649.55
912.3056	1774.361	14498.5	13598
912.4462	1776.0502	14485.5	13586.9
912.5868	1777.7386	14445.45	13544.65
912.7274	1779.4263	14380.1	13481.35
912.8679	1781.1132	14381.05	13487.85
913.0084	1782.7994	14348.4	13453.1
913.149	1784.4849	14282	13386.95
913.2895	1786.1696	14231.7	13330.75
913.4299	1787.8535	14199.05	13307.05
913.5704	1789.5367	14162.65	13269.8
913.7108	1791.2192	14140.95	13246.4
913.8513	1792.9009	14101.4	13179.15
913.9917	1794.5818	14079.65	13181.45
914.132	1796.2621	14018.35	13121.55
914.2724	1797.9415	13974	13074.85
914.4128	1799.6202	13933.7	13037.55
914.5531	1801.2982	13896.2	12999.45
914.6934	1802.9755	13860.2	12961.95
914.8337	1804.6519	13837.25	12937.05
914.9739	1806.3277	13743.75	12849.4
915.1142	1808.0027	13701.6	12811.7
915.2544	1809.6769	13713.8	12821.75
915.3946	1811.3504	13656.6	12765.35
915.5348	1813.0231	13637.25	12742.4
915.675	1814.6951	13629.6	12735.35
915.8151	1816.3664	13597	12699.15
915.9553	1818.0369	13551.75	12653.05
916.0954	1819.7067	13499.55	12604.15
916.2355	1821.3757	13495.65	12596.4
916.3755	1823.044	13457.45	12562.8
916.5156	1824.7115	13398.2	12500.2
916.6556	1826.3783	13345.2	12450.65
916.7956	1828.0443	13318.9	12426.5
916.9356	1829.7096	13253.15	12358.95
917.0756	1831.3741	13277.6	12379.95
917.2155	1833.0379	13267.05	12375.75
917.3555	1834.701	13201.65	12307.6
917.4954	1836.3633	13176.35	12285
917.6353	1838.0248	13134.85	12240.8
917.7751	1839.6856	13119.1	12223.8
917.915	1841.3457	13103.1	12209.5
918.0548	1843.005	13046.05	12149.1
918.1946	1844.6636	13046.25	12153.75
918.3344	1846.3214	13004.55	12109.75
918.4742	1847.9785	12993.5	12101.05
918.6139	1849.6349	12942.8	12049.25
918.7537	1851.2904	12929.95	12023.95
918.8934	1852.9453	12887.7	11988.85
919.0331	1854.5994	12830.9	11931.15
919.1727	1856.2528	12825.2	11922.7
919.3124	1857.9054	12813.9	11917.3
919.452	1859.5572	12785.65	11891.1
919.5916	1861.2083	12769.25	11872.05
919.7312	1862.8587	12737.1	11843.1
919.8708	1864.5084	12726.15	11829.05
920.0103	1866.1572	12675	11775.35
920.1498	1867.8054	12610.95	11711.8
920.2893	1869.4528	12587.25	11690.6
920.4288	1871.0994	12551.65	11658.25
920.5683	1872.7453	12529.85	11634.05
920.7077	1874.3905	12506.5	11596.7
920.8471	1876.0349	12445.3	11546.2
920.9865	1877.6786	12448.35	11552.4
921.1259	1879.3215	12441.8	11547.1
921.2653	1880.9637	12384.7	11487.85
921.4046	1882.6051	12351.95	11457.5
921.5439	1884.2458	12341.1	11445.3
921.6832	1885.8858	12274.5	11381.15
921.8225	1887.525	12247	11352.55
921.9617	1889.1634	12195.6	11301.05
922.101	1890.8011	12152.6	11256.7
922.2402	1892.4381	12133.05	11236.95
922.3794	1894.0743	12120.35	11226.25
922.5185	1895.7098	12105.8	11211.5
922.6577	1897.3446	12058.15	11161.95
922.7968	1898.9786	12023.9	11123.65
922.9359	1900.6118	12008.45	11114.5
923.075	1902.2443	11953.6	11058.85
923.214	1903.8761	11925.65	11032.55
923.3531	1905.5071	11847.35	10952.65
923.4921	1907.1374	11801.8	10907.7
923.6311	1908.7669	11787.95	10894.15
923.77	1910.3957	11771.9	10877.2
923.909	1912.0237	11684.6	10790.4
924.0479	1913.651	11680	10783.45
924.1868	1915.2776	11619.9	10728.75
924.3257	1916.9034	11591.15	10698.7
924.4646	1918.5285	11534.4	10642.65
924.6034	1920.1528	11511.45	10619.55
924.7422	1921.7764	11510.8	10615.7
924.881	1923.3992	11459.65	10568.3
925.0198	1925.0213	11400.4	10504.5
925.1586	1926.6427	11351.5	10457.75
925.2973	1928.2633	11374.35	10411.3
925.436	1929.8832	11301.1	10403.55
925.5747	1931.5023	11220.95	10330.5
925.7134	1933.1207	11211.15	10317.1
925.852	1934.7383	11169.5	10274.3
925.9906	1936.3552	11140.65	10249.5
926.1292	1937.9714	11137.5	10242.9
926.2678	1939.5868	11100.25	10204.3
926.4064	1941.2015	11001.2	10107.4
926.5449	1942.8154	10984.4	10088.85
926.6834	1944.4286	10905.75	10012.75
926.8219	1946.041	10913.95	9998.05
926.9604	1947.6528	10866.7	9969
927.0988	1949.2637	10798.75	9904.55
927.2372	1950.8739	10759.9	9865.95
927.3756	1952.4834	10752.2	9858.5
927.514	1954.0921	10737.35	9843.05
927.6523	1955.7001	10694.65	9794.9
927.7907	1957.3074	10647.35	9757.5
927.929	1958.9139	10598.8	9708.45
928.0673	1960.5197	10575.65	9684.55
928.2055	1962.1247	10522.05	9628.95
928.3438	1963.729	10508.3	9617.7
928.482	1965.3325	10439.7	9527.15
928.6202	1966.9353	10421.75	9530.4
928.7584	1968.5374	10384.95	9495.35
928.8965	1970.1387	10361.45	9470.85
929.0346	1971.7393	10323.15	9434.55
929.1727	1973.3392	10288.2	9395.6
929.3108	1974.9383	10253.05	9362.65
929.4489	1976.5366	10196.9	9307.65
929.5869	1978.1342	10193.55	9302.95
929.7249	1979.7311	10161.4	9271
929.8629	1981.3273	10152.65	9261.25
930.0009	1982.9227	10096.15	9204.6
930.1388	1984.5173	10032.35	9145.75
930.2767	1986.1112	10017.55	9131.65
930.4146	1987.7044	9993.55	9107.4
930.5525	1989.2968	9940.7	9051
930.6904	1990.8885	9943.65	9051.25
930.8282	1992.4795	9894.6	9005.6
930.966	1994.0697	9863.05	8974.9
931.1038	1995.6592	9844.5	8957.55
931.2415	1997.2479	9819.75	8932.85
931.3793	1998.8359	9788.25	8899.5
931.517	2000.4232	9761.3	8875.95
931.6547	2002.0097	9704.9	8821.4
931.7923	2003.5955	9661.25	8775.25
931.93	2005.1805	9654.4	8767.75
932.0676	2006.7648	9659.7	8772.75
932.2052	2008.3484	9615.65	8730.7
932.3427	2009.9312	9629	8743.65
932.4803	2011.5133	9574.55	8690.7
932.6178	2013.0946	9555.2	8669.15
932.7553	2014.6752	9530.55	8646.85
932.8928	2016.2551	9504.8	8617.2
933.0302	2017.8342	9487.9	8602.75
933.1676	2019.4126	9411.75	8526.4
933.305	2020.9902	9397.65	8515.5
933.4424	2022.5672	9380.35	8496.25
933.5798	2024.1433	9336.25	8446.75
933.7171	2025.7188	9283.15	8399.75
933.8544	2027.2935	9285.85	8403
933.9917	2028.8674	9235.85	8352.55
934.129	2030.4406	9210.85	8327.85
934.2662	2032.0131	9188.95	8305.15
934.4034	2033.5849	9170.35	8281.15
934.5406	2035.1559	9145.2	8262.4
934.6778	2036.7261	9118.55	8233.35
934.8149	2038.2957	9097.95	8212.6
934.952	2039.8645	9091.9	8202.25
935.0891	2041.4325	9055.5	8167.15
935.2262	2042.9998	9033.95	8149.95
935.3632	2044.5664	9027.75	8141.55
935.5002	2046.1323	8979.05	8094.9
935.6372	2047.6974	8957.35	8074.35
935.7742	2049.2617	8920.2	8037.45
935.9111	2050.8254	8917.7	8026.3
936.048	2052.3883	8924.6	8038.45
936.1849	2053.9504	8887.7	8000.85
936.3218	2055.5118	8828.9	7941.25
936.4586	2057.0725	8799.3	7912.15
936.5955	2058.6325	8795.65	7910.6
936.7323	2060.1917	8748.65	7864.3
936.869	2061.7502	8746.3	7860.25
937.0058	2063.3079	8716.65	7833.3
937.1425	2064.8649	8671.9	7785.65
937.2792	2066.4212	8649.3	7762.1
937.4159	2067.9767	8624.75	7739.65
937.5525	2069.5315	8589.75	7703.75
937.6891	2071.0856	8547.5	7663
937.8257	2072.6389	8523.8	7639.65
937.9623	2074.1915	8494.1	7612.3
938.0989	2075.7433	8435.65	7550.2
938.2354	2077.2945	8432	7548.6
938.3719	2078.8448	8419.55	7531.2
938.5084	2080.3945	8371.85	7485
938.6448	2081.9434	8393.55	7505.95
938.7812	2083.4916	8348.75	7460.4
938.9176	2085.039	8296.85	7404.75
939.054	2086.5857	8291.2	7399.2
939.1903	2088.1317	8298.5	7406.25
939.3267	2089.677	8255.8	7365.15
939.463	2091.2215	8229.25	7336.75
939.5992	2092.7652	8194.05	7301.5
939.7355	2094.3083	8178.7	7285.55
939.8717	2095.8506	8172.5	7285.7
940.0079	2097.3921	8154.1	7266.75
940.1441	2098.933	8146.25	7258.35
940.2802	2100.4731	8126.5	7237.25
940.4163	2102.0124	8124.85	7229.4
940.5524	2103.5511	8100.75	7210.75
940.6885	2105.089	8093.45	7200.9
940.8245	2106.6261	8043.4	7154.65
940.9606	2108.1626	8031.45	7144.95
941.0965	2109.6983	8022.95	7106.95
941.2325	2111.2332	7996.2	7107.9
941.3684	2112.7675	7986.8	7098.55
941.5044	2114.301	7936.4	7045.75
941.6403	2115.8337	7927.05	7039.5
941.7761	2117.3657	7916.2	7027.05
941.912	2118.897	7886.15	6997.8
942.0478	2120.4276	7853.05	6958.65
942.1835	2121.9575	7817.05	6925.05
942.3193	2123.4866	7827.65	6922.7
942.455	2125.0149	7810.05	6919.85
942.5907	2126.5426	7761.2	6874.65
942.7264	2128.0695	7753.55	6864.4
942.8621	2129.5956	7719.7	6835.5
942.9977	2131.1211	7706.55	6815.45
943.1333	2132.6458	7687.15	6799.85
943.2689	2134.1698	7665.6	6775.85
943.4044	2135.693	7647.65	6755.55
943.54	2137.2155	7648.3	6756.55
943.6755	2138.7373	7616.65	6728.6
943.8109	2140.2584	7575.6	6689.35
943.9464	2141.7787	7544.9	6653.6
944.0818	2143.2983	7516.75	6631.75
944.2172	2144.8171	7503.6	6620.3
944.3526	2146.3353	7488	6601.4
944.4879	2147.8527	7472.85	6589.4
944.6232	2149.3693	7456.95	6565.1
944.7585	2150.8853	7440.85	6551.35
944.8938	2152.4005	7408.45	6517.75
945.029	2153.9149	7394	6503.55
945.1642	2155.4287	7448.8	6448.25
945.2994	2156.9417	7362.95	6470.2
945.4346	2158.454	7336.5	6449.5
945.5697	2159.9655	7309.25	6422.85
945.7048	2161.4764	7307.6	6421.1
945.8399	2162.9865	7289.2	6402.15
945.9749	2164.4958	7244	6355.65
946.1099	2166.0045	7234.55	6345.7
946.2449	2167.5124	7222	6334.5
946.3799	2169.0195	7209.25	6321.45
946.5148	2170.526	7205.45	6316.05
946.6498	2172.0317	7169.65	6279.3
946.7846	2173.5367	7160.8	6270.85
946.9195	2175.0409	7115.05	6227.85
947.0543	2176.5445	7128.8	6241.45
947.1891	2178.0473	7083.5	6192.05
947.3239	2179.5494	7054.8	6160.5
947.4587	2181.0507	7023.25	6134.7
947.5934	2182.5513	7003.1	6116.85
947.7281	2184.0512	6995.05	6106.05
947.8628	2185.5504	6960.95	6073
947.9974	2187.0488	6944.25	6058.45
948.132	2188.5465	6899.8	6016.2
948.2666	2190.0435	6887.75	6000.4
948.4012	2191.5397	6881.25	5992.85
948.5357	2193.0353	6860.9	5972.85
948.6702	2194.5301	6830.95	5939.2
948.8047	2196.0241	6823	5929.4
948.9392	2197.5175	6817.35	5922.7
949.0736	2199.0101	6780.25	5886.2
949.208	2200.502	6742.3	5852.6
949.3424	2201.9931	6721.8	5836.75
949.4767	2203.4835	6702.6	5815.75
949.611	2204.9733	6691.05	5800.65
949.7453	2206.4622	6653.4	5766.1
949.8796	2207.9505	6653.05	5765.85
950.0138	2209.438	6611.35	5727.45
950.148	2210.9248	6584.9	5697.25
950.2822	2212.4109	6565.7	5679.1
950.4164	2213.8962	6555.85	5664.45
950.5505	2215.3809	6545.85	5653.35
950.6846	2216.8648	6522.1	5630.3
950.8186	2218.3479	6533.9	5636.6
950.9527	2219.8304	6476.7	5583.4
951.0867	2221.3121	6443.2	5547.55
951.2207	2222.7931	6425.15	5533.95
951.3546	2224.2733	6409.7	5519.4
951.4886	2225.7529	6395.45	5504.55
951.6225	2227.2317	6363.75	5475.3
951.7563	2228.7098	6359.05	5473.45
951.8902	2230.1872	6326.95	5442.2
952.024	2231.6638	6317.95	5430.85
952.1578	2233.1397	6303.65	5412.7
952.2916	2234.6149	6274.2	5388.8
952.4253	2236.0894	6280.45	5391.9
952.559	2237.5632	6249.9	5361.6
952.6927	2239.0362	6216.9	5328.8
952.8263	2240.5085	6201.25	5313
952.9599	2241.9801	6179.2	5290.55
953.0935	2243.4509	6145.9	5256.75
953.2271	2244.921	6147.7	5256.25
953.3606	2246.3904	6122.4	5230.6
953.4941	2247.8591	6112.95	5223.05
953.6276	2249.3271	6096.3	5206.8
953.7611	2250.7943	6064.3	5173.8
953.8945	2252.2608	6030.3	5141.5
954.0279	2253.7266	6030.95	5140.5
954.1612	2255.1917	6013	5125.1
954.2946	2256.656	6001.9	5114.15
954.4279	2258.1197	5986.9	5100.05
954.5612	2259.5826	5970.6	5080.95
954.6944	2261.0447	5953.8	5063.15
954.8276	2262.5062	5933.65	5043.15
954.9608	2263.9669	5934.1	5043
955.094	2265.4269	5920.1	5028.95
955.2271	2266.8862	5878.25	4990.55
955.3602	2268.3448	5894.65	5005.55
955.4933	2269.8026	5871.35	4983.7
955.6264	2271.2598	5855.35	4967.05
955.7594	2272.7162	5838.75	4950.6
955.8924	2274.1719	5814.6	4923.4
956.0253	2275.6268	5793.7	4901.5
956.1583	2277.0811	5789.2	4899.45
956.2912	2278.5346	5780.9	4892.45
956.4241	2279.9874	5765.95	4878.3
956.5569	2281.4395	5746	4860.8
956.6897	2282.8908	5735.3	4844.45
956.8225	2284.3414	5717.3	4827
956.9553	2285.7914	5698.25	4810.05
957.088	2287.2406	5684.7	4792.55
957.2207	2288.689	5674.4	4780.2
957.3534	2290.1368	5658.35	4762.7
957.486	2291.5838	5665.3	4768.75
957.6186	2293.0302	5626.05	4732.6
957.7512	2294.4758	5600.2	4707.65
957.8838	2295.9206	5583.35	4693.05
958.0163	2297.3648	5586.05	4697.05
958.1488	2298.8082	5574.6	4684.05
958.2813	2300.251	5543.35	4653.3
958.4137	2301.693	5539.2	4644.7
958.5461	2303.1343	5518	4626.45
958.6785	2304.5748	5499.15	4610.95
958.8108	2306.0147	5464.5	4574.7
958.9432	2307.4538	5477.5	4589.5
959.0754	2308.8922	5442.05	4558
959.2077	2310.3299	5408.3	4520.8
959.3399	2311.7669	5407.4	4518.7
959.4721	2313.2031	5373.4	4482.2
959.6043	2314.6387	5378.65	4489.6
959.7365	2316.0735	5362.95	4473
959.8686	2317.5076	5341	4448.9
960.0006	2318.941	5344.05	4454.8
960.1327	2320.3737	5330.6	4436.55
960.2647	2321.8056	5321.7	4428.1
960.3967	2323.2369	5281.55	4387.75
960.5287	2324.6674	5266.15	4373.7
960.6606	2326.0972	5244.85	4354.4
960.7925	2327.5263	5247.35	4356.8
960.9244	2328.9547	5257.4	4365.75
961.0562	2330.3823	5235.25	4345.45
961.1881	2331.8092	5236.5	4339.3
961.3198	2333.2355	5185	4292.35
961.4516	2334.661	5168.05	4276.2
961.5833	2336.0858	5167.95	4275
961.715	2337.5098	5152.1	4261.1
961.8467	2338.9332	5134.2	4243.4
961.9783	2340.3558	5108.15	4216.3
962.1099	2341.7778	5105.4	4216.55
962.2415	2343.199	5076.7	4187.05
962.373	2344.6195	5074.9	4186.8
962.5045	2346.0393	5079.35	4191.5
962.636	2347.4583	5064.75	4176.1
962.7675	2348.8767	5038.55	4148.25
962.8989	2350.2943	5040.55	4148.15
963.0303	2351.7113	5033.75	4141.6
963.1617	2353.1275	4991.6	4095.35
963.293	2354.543	5014.6	4114.7
963.4243	2355.9578	4976.9	4085.1
963.5556	2357.3718	4953.55	4064.35
963.6868	2358.7852	4927.25	4037
963.818	2360.1978	4916.35	4027.35
963.9492	2361.6098	4914.8	4027.1
964.0803	2363.021	4900.3	4005.65
964.2114	2364.4315	4885.2	3995.25
964.3425	2365.8413	4886.8	3992.7
964.4736	2367.2504	4854.95	3967.75
964.6046	2368.6587	4843.1	3956.55
964.7356	2370.0664	4821.25	3932.35
964.8666	2371.4733	4795.85	3907.85
964.9975	2372.8795	4779.95	3889.8
965.1284	2374.285	4757.7	3868.4
965.2593	2375.6899	4735.3	3846.95
965.3901	2377.0939	4745.7	3857.55
965.5209	2378.4973	4715.35	3826.45
965.6517	2379.9	4707.6	3820.35
965.7825	2381.3019	4683.4	3796
965.9132	2382.7032	4673.35	3788.35
966.0439	2384.1037	4658.1	3771.9
966.1745	2385.5035	4650.35	3765.65
966.3051	2386.9027	4633.3	3746.35
966.4357	2388.3011	4627.75	3737.85
966.5663	2389.6987	4606.5	3719.55
966.6968	2391.0957	4583.85	3697.7
966.8273	2392.492	4582.3	3697.7
966.9578	2393.8876	4533.05	3644.85
967.0882	2395.2824	4537.95	3650.7
967.2186	2396.6765	4530.8	3640.55
967.349	2398.07	4486.5	3596.65
967.4793	2399.4627	4496.2	3606.35
967.6097	2400.8547	4493.8	3602.8
967.7399	2402.246	4464.4	3571.95
967.8702	2403.6366	4443.95	3555.6
968.0004	2405.0265	4439.75	3551.75
968.1306	2406.4156	4437.9	3547.15
968.2607	2407.8041	4420.7	3531.1
968.3909	2409.1918	4392.5	3499.35
968.521	2410.5789	4381.1	3493.3
968.651	2411.9652	4346.3	3456.95
968.781	2413.3508	4364	3476.6
968.911	2414.7358	4345.6	3457.55
969.041	2416.12	4321.5	3433.95
969.1709	2417.5035	4319.1	3431.3
969.3008	2418.8863	4314.4	3424.6
969.4307	2420.2684	4292.7	3404.45
969.5606	2421.6497	4277.2	3389.65
969.6904	2423.0304	4250.4	3363.3
969.8201	2424.4104	4241.95	3350.35
969.9499	2425.7896	4242	3351.05
970.0796	2427.1682	4228.95	3340.5
970.2093	2428.546	4213.45	3323.7
970.3389	2429.9232	4211.9	3321.7
970.4685	2431.2996	4182.1	3292.75
970.5981	2432.6753	4202.25	3313.65
970.7277	2434.0503	4167.1	3277.7
970.8572	2435.4246	4162.55	3274.05
970.9867	2436.7982	4148.7	3257.35
971.1161	2438.1711	4142.05	3251.45
971.2456	2439.5433	4128.6	3239.65
971.375	2440.9148	4115.5	3220.8
971.5043	2442.2856	4090.8	3202.85
971.6336	2443.6557	4089.8	3200.2
971.7629	2445.025	4070.5	3182.05
971.8922	2446.3937	4063.95	3175.55
972.0214	2447.7617	4053.9	3163.6
972.1506	2449.1289	4045.8	3158
972.2798	2450.4955	4054.3	3161.1
972.4089	2451.8613	4027.2	3139.65
972.538	2453.2265	4011.85	3124.65
972.6671	2454.5909	4010.25	3120.25
972.7961	2455.9546	4001.9	3111.05
972.9251	2457.3177	3976.15	3087.45
973.0541	2458.68	3981	3089.6
973.1831	2460.0416	3975.85	3089
973.312	2461.4025	3979.7	3088.65
973.4408	2462.7627	3964.05	3064.75
973.5697	2464.1222	3956.75	3070.3
973.6985	2465.4811	3916.8	3030.7
973.8273	2466.8392	3906.45	3018.9
973.956	2468.1966	3916.85	3026.7
974.0847	2469.5533	3920.05	3028.45
974.2134	2470.9093	3911.2	3022
974.3421	2472.2645	3896.7	3005.1
974.4707	2473.6191	3870.15	2983.4
974.5993	2474.973	3867.5	2978.7
974.7278	2476.3262	3864.05	2974.6
974.8563	2477.6787	3837	2949.6
974.9848	2479.0305	3814.6	2924.5
975.1132	2480.3816	3814	2922.1
975.2417	2481.7319	3814.1	2925.25
975.37	2483.0816	3796.4	2907.25
975.4984	2484.4306	3792.05	2904.3
975.6267	2485.7789	3783.8	2896.5
975.755	2487.1264	3771.5	2883.5
975.8833	2488.4733	3753.75	2867.5
976.0115	2489.8195	3752	2845.65
976.1397	2491.165	3737.6	2846.1
976.2678	2492.5097	3712.35	2822.35
976.3959	2493.8538	3699.4	2810.85
976.524	2495.1972	3685.8	2797
976.6521	2496.5398	3669.4	2779.6
976.7801	2497.8818	3679.85	2790.6
976.9081	2499.2231	3664.9	2775.6
977.036	2500.5637	3640	2746.25
977.164	2501.9035	3639.4	2748.15
977.2918	2503.2427	3627.7	2734.2
977.4197	2504.5812	3621.25	2732.05
977.5475	2505.919	3609.2	2718
977.6753	2507.256	3598.7	2708.65
977.8031	2508.5924	3600.2	2712.8
977.9308	2509.9281	3597.9	2704
978.0585	2511.2631	3585.45	2698.1
978.1861	2512.5974	3566.75	2677.9
978.3137	2513.9309	3548.4	2659.65
978.4413	2515.2638	3566.15	2648.8
978.5689	2516.596	3543.1	2654.05
978.6964	2517.9275	3523.75	2634.4
978.8239	2519.2583	3524.85	2636.05
978.9513	2520.5884	3499.05	2606.7
979.0788	2521.9178	3488.5	2599.55
979.2062	2523.2465	3484.6	2596.25
979.3335	2524.5745	3452.7	2564.25
979.4608	2525.9018	3448.8	2560.6
979.5881	2527.2284	3458.55	2571.2
979.7154	2528.5543	3436.6	2546.9
979.8426	2529.8796	3443.7	2553.7
979.9698	2531.2041	3430.9	2541.7
980.0969	2532.5279	3425.95	2539.45
980.224	2533.851	3422.2	2534.55
980.3511	2535.1735	3405	2516.4
980.4781	2536.4952	3404.2	2514.7
980.6052	2537.8163	3395.85	2506.8
980.7321	2539.1366	3397.3	2508.1
980.8591	2540.4562	3380.25	2490.25
980.986	2541.7752	3361.95	2471.95
981.1129	2543.0935	3364.95	2474.1
981.2397	2544.411	3363.3	2475.05
981.3665	2545.7279	3360.45	2469.75
981.4933	2547.0441	3350.5	2458.85
981.62	2548.3596	3346.4	2453.25
981.7467	2549.6744	3335.7	2444.9
981.8734	2550.9885	3331.9	2440.25
982.0001	2552.3019	3314.7	2424.15
982.1267	2553.6146	3320.9	2430.45
982.2532	2554.9266	3327.55	2438.05
982.3798	2556.2379	3300.45	2409.95
982.5063	2557.5485	3294.05	2406.15
982.6327	2558.8585	3287.65	2391.1
982.7592	2560.1677	3279	2386.15
982.8856	2561.4762	3262.3	2373.3
983.0119	2562.7841	3262.15	2371.35
983.1383	2564.0913	3250.5	2361.8
983.2646	2565.3977	3249.85	2361.35
983.3908	2566.7035	3246.45	2358.4
983.517	2568.0086	3244.1	2353.5
983.6432	2569.313	3245.1	2354.6
983.7694	2570.6167	3236.4	2343.25
983.8955	2571.9197	3220	2331.25
984.0216	2573.222	3216.95	2323.6
984.1476	2574.5236	3206.6	2314.95
984.2737	2575.8246	3192.55	2300.45
984.3996	2577.1248	3199.35	2307.7
984.5256	2578.4244	3198.15	2311.9
984.6515	2579.7232	3193.85	2303.75
984.7774	2581.0214	3210.15	2290
984.9032	2582.3189	3202.15	2313.3
985.029	2583.6157	3187.4	2294.4
985.1548	2584.9118	3174.8	2284.5
985.2806	2586.2072	3166.65	2277.1
985.4063	2587.5019	3161.85	2273.55
985.5319	2588.7959	3162.3	2271.3
985.6576	2590.0893	3153.45	2261.7
985.7832	2591.3819	3145.45	2255.5
985.9087	2592.6739	3127.6	2238.1
986.0343	2593.9652	3140.45	2250.25
986.1597	2595.2557	3112.35	2222.65
986.2852	2596.5456	3119	2228.9
986.4106	2597.8348	3123.1	2234.25
986.536	2599.1234	3101.35	2212.6
986.6614	2600.4112	3091.95	2201.15
986.7867	2601.6983	3107.6	2212.55
986.912	2602.9848	3085.9	2195.1
987.0372	2604.2705	3084.2	2187.9
987.1624	2605.5556	3088.3	2197.5
987.2876	2606.84	3069	2180.2
987.4128	2608.1237	3064.15	2175.15
987.5379	2609.4067	3038.05	2148.3
987.6629	2610.689	3039.65	2142.8
987.788	2611.9707	3039.85	2145.8
987.913	2613.2516	3021.8	2127.95
988.0379	2614.5319	3012.3	2124.45
988.1629	2615.8115	3009.3	2117.85
988.2878	2617.0903	2993.65	2101.2
988.4126	2618.3685	2984.9	2093.05
988.5375	2619.6461	2972.2	2083.55
988.6622	2620.9229	2976.4	2086.75
988.787	2622.199	2983.75	2094.2
988.9117	2623.4745	2974.7	2085.05
989.0364	2624.7493	2944	2052.7
989.161	2626.0234	2940.45	2052.35
989.2857	2627.2968	2955.1	2064.6
989.4102	2628.5695	2944.7	2055.4
989.5348	2629.8415	2933.6	2043.8
989.6593	2631.1128	2921.45	2030.2
989.7837	2632.3835	2909.15	2021.8
989.9082	2633.6535	2900.8	2013.95
990.0326	2634.9228	2904.75	2015.7
990.1569	2636.1914	2904.3	2013.9
990.2812	2637.4593	2882.7	1988.7
990.4055	2638.7265	2878.6	1987.45
990.5298	2639.9931	2883.9	1995.35
990.654	2641.259	2870.35	1978.4
990.7782	2642.5242	2858.05	1970.15
990.9023	2643.7887	2856.15	1967.55
991.0264	2645.0525	2848.55	1958.4
991.1505	2646.3156	2840.6	1947
991.2745	2647.5781	2825.55	1936.55
991.3985	2648.8398	2819	1929.6
991.5225	2650.1009	2808.9	1912.1
991.6464	2651.3613	2807	1916.15
991.7703	2652.6211	2813.45	1924.25
991.8942	2653.8801	2790.3	1902.2
992.018	2655.1385	2787.85	1897.15
992.1418	2656.3961	2792.9	1904.4
992.2655	2657.6531	2786.6	1897.6
992.3892	2658.9094	2779.7	1891.65
992.5129	2660.1651	2757.35	1868.6
992.6366	2661.42	2784	1894.7
992.7602	2662.6743	2769.65	1877.45
992.8837	2663.9279	2776.8	1890.25
993.0073	2665.1808	2754.65	1863.9
993.1307	2666.433	2754.1	1861.95
993.2542	2667.6846	2747.8	1861.95
993.3776	2668.9354	2757.1	1864.05
993.501	2670.1856	2747.3	1858.05
993.6244	2671.4351	2749.55	1860.65
993.7477	2672.6839	2749.75	1857.6
993.8709	2673.9321	2745.8	1860.05
993.9942	2675.1795	2735.9	1846.55
994.1174	2676.4263	2734.45	1848
994.2405	2677.6724	2722.05	1835.85
994.3637	2678.9179	2731.4	1843.8
994.4868	2680.1626	2728.95	1841.3
994.6098	2681.4067	2712.8	1823.55
994.7328	2682.6501	2721.4	1832.25
994.8558	2683.8928	2708.55	1819.95
994.9788	2685.1348	2691.6	1803.85
995.1017	2686.3761	2684	1796.7
995.2245	2687.6168	2677.45	1788.85
995.3474	2688.8568	2667.6	1778.05
995.4702	2690.0961	2663.55	1778.6
995.5929	2691.3348	2668.7	1779.45
995.7156	2692.5727	2655.8	1767.2
995.8383	2693.81	2644.3	1757
995.961	2695.0466	2634.75	1744.6
996.0836	2696.2826	2637.7	1746.6
996.2062	2697.5178	2638.15	1748.35
996.3287	2698.7524	2631.7	1742.7
996.4512	2699.9863	2633.05	1742.85
996.5737	2701.2195	2618.45	1732.8
996.6961	2702.452	2616.75	1727.3
996.8185	2703.6839	2614.75	1724.15
996.9408	2704.9151	2612.7	1724.65
997.0631	2706.1456	2604.2	1716.65
997.1854	2707.3755	2609.9	1720.4
997.3077	2708.6046	2618.55	1728.25
997.4299	2709.8331	2620.45	1731.15
997.552	2711.0609	2621.85	1734.7
997.6742	2712.2881	2620.6	1733.6
997.7963	2713.5145	2619.95	1728.95
997.9183	2714.7403	2637.15	1749.15
998.0403	2715.9654	2639.4	1748.95
998.1623	2717.1899	2655.1	1751.8
998.2842	2718.4136	2646.7	1760.6
998.4062	2719.6367	2660.4	1772.7
998.528	2720.8591	2658.4	1765.45
998.6498	2722.0809	2669.2	1781
998.7716	2723.3019	2669.55	1777.7
998.8934	2724.5223	2680.9	1791.85
999.0151	2725.7421	2680.3	1792.65
999.1368	2726.9611	2667.25	1777.35
999.2584	2728.1795	2662.45	1770.85
999.38	2729.3972	2649.2	1760.1
999.5016	2730.6142	2638.1	1741.95
999.6231	2731.8306	2613.8	1724.55
999.7446	2733.0462	2596.9	1707.65
999.8661	2734.2612	2584.2	1692.4
999.9875	2735.4756	2549.55	1661
1000.1089	2736.6892	2539.5	1651.95
1000.2302	2737.9022	2513.95	1627.05
1000.3515	2739.1145	2494.85	1606.35
1000.4728	2740.3262	2480.5	1586.3
1000.594	2741.5372	2469.15	1583.05
1000.7152	2742.7475	2453	1566.2
1000.8363	2743.9571	2448.9	1560.05
1000.9575	2745.1661	2425.3	1532.2
1001.0785	2746.3744	2410.15	1522.65
1001.1996	2747.582	2396.25	1508.5
1001.3206	2748.7889	2385.55	1498.15
1001.4415	2749.9952	2374.5	1487.3
1001.5625	2751.2008	2360.85	1472.85
1001.6833	2752.4057	2357	1467.7
1001.8042	2753.61	2357.25	1470.5
1001.925	2754.8136	2341.8	1453.7
1002.0458	2756.0165	2337	1451.95
1002.1665	2757.2188	2335.05	1448.6
1002.2872	2758.4204	2319.85	1433.55
1002.4078	2759.6213	2321.5	1433.25
1002.5285	2760.8215	2323.65	1433.35
1002.649	2762.0211	2326.85	1436.5
1002.7696	2763.22	2321.6	1429.15
1002.8901	2764.4182	2304.75	1416.65
1003.0106	2765.6158	2291.35	1407.15
1003.131	2766.8127	2282.6	1394.1
1003.2514	2768.009	2280	1394.65
1003.3717	2769.2045	2283.9	1396.4
1003.492	2770.3994	2274.75	1384.85
1003.6123	2771.5936	2271.05	1383.7
1003.7325	2772.7872	2267.2	1381.6
1003.8527	2773.9801	2259.4	1370.5
1003.9729	2775.1723	2265.7	1361.4
1004.093	2776.3639	2251	1366.4
1004.2131	2777.5548	2252.05	1363.95
1004.3331	2778.745	2244.9	1357
1004.4531	2779.9346	2227.25	1341.2
1004.5731	2781.1235	2230.5	1343.35
1004.693	2782.3117	2239.3	1352.9
1004.8129	2783.4992	2238.15	1350.6
1004.9328	2784.6861	2239.6	1351.7
1005.0526	2785.8723	2248.35	1361.6
1005.1723	2787.0579	2248.4	1361.6
1005.2921	2788.2428	2253.6	1366.3
1005.4118	2789.427	2258.7	1373.6
1005.5314	2790.6106	2255.15	1370.05
1005.651	2791.7935	2271.25	1385.5
1005.7706	2792.9757	2272.85	1386.9
1005.8902	2794.1573	2279.6	1393.45
1006.0097	2795.3382	2292.6	1407.4
1006.1291	2796.5184	2307	1423.8
1006.2485	2797.698	2316.05	1427.7
1006.3679	2798.8769	2332.05	1447.4
1006.4873	2800.0551	2355.55	1469.6
1006.6066	2801.2327	2358.25	1467.55
1006.7258	2802.4096	2380.75	1495.75
1006.8451	2803.5859	2391.75	1505.55
1006.9642	2804.7615	2411.15	1523.45
1007.0834	2805.9364	2427.6	1543.85
1007.2025	2807.1106	2476.7	1590.15
1007.3216	2808.2842	2495.45	1609.35
1007.4406	2809.4572	2528.35	1645.25
1007.5596	2810.6294	2559.45	1672.45
1007.6785	2811.801	2590.85	1707.75
1007.7975	2812.972	2632.1	1746.95
1007.9163	2814.1423	2678.45	1793.7
1008.0352	2815.3119	2723.8	1835.5
1008.154	2816.4808	2767	1882.9
1008.2727	2817.6491	2814.85	1927.1
1008.3914	2818.8167	2857.2	1972.05
1008.5101	2819.9837	2911.55	2020.4
1008.6288	2821.15	2943.2	2057.2
1008.7474	2822.3157	2979.1	2095.15
1008.8659	2823.4807	3037.75	2151.2
1008.9844	2824.645	3064.95	2177.7
1009.1029	2825.8086	3115.5	2229.2
1009.2214	2826.9716	3150.95	2266.85
1009.3398	2828.134	3192.75	2306.7
1009.4581	2829.2957	3220.2	2334.15
1009.5764	2830.4567	3245.65	2361.5
1009.6947	2831.617	3251.25	2367.55
1009.813	2832.7767	3274.05	2390.75
1009.9312	2833.9358	3259.6	2376.75
1010.0493	2835.0941	3255.05	2365.2
1010.1675	2836.2519	3245.9	2359.4
1010.2855	2837.4089	3230.35	2343.55
1010.4036	2838.5653	3207.9	2323.2
1010.5216	2839.7211	3210.25	2326.15
1010.6396	2840.8761	3219.7	2334.8
1010.7575	2842.0306	3250.75	2365.85
1010.8754	2843.1843	3288.4	2404.7
1010.9932	2844.3374	3339	2455.7
1011.111	2845.4899	3395.25	2508.8
1011.2288	2846.6417	3475.8	2588.9
1011.3465	2847.7928	3540.35	2657
1011.4642	2848.9433	3631.7	2745.35
1011.5818	2850.0931	3719.05	2833.95
1011.6995	2851.2422	3791.8	2907.4
1011.817	2852.3907	3869.3	2983.7
1011.9345	2853.5385	3925.3	3037.85
1012.052	2854.6857	3985.45	3090.15
1012.1695	2855.8323	4037.3	3152.25
1012.2869	2856.9781	4073.05	3189.25
1012.4042	2858.1233	4104	3219.25
1012.5216	2859.2679	4158.2	3273.05
1012.6389	2860.4118	4195.1	3310.3
1012.7561	2861.555	4234	3344.85
1012.8733	2862.6976	4265.6	3378.6
1012.9905	2863.8395	4294.05	3409.5
1013.1076	2864.9808	4323.2	3441.65
1013.2247	2866.1214	4330.5	3444.45
1013.3417	2867.2614	4356.35	3470.9
1013.4587	2868.4007	4351.2	3467
1013.5757	2869.5393	4348.75	3462.1
1013.6926	2870.6773	4384.35	3495.4
1013.8095	2871.8146	4381.5	3493.1
1013.9263	2872.9513	4361.5	3474.55
1014.0431	2874.0874	4378.75	3493.35
1014.1599	2875.2227	4349.3	3463.75
1014.2766	2876.3574	4334.25	3450.75
1014.3933	2877.4915	4312.15	3427.5
1014.51	2878.6249	4291.3	3407.6
1014.6266	2879.7577	4274.9	3390.6
1014.7431	2880.8898	4248.1	3350.45
1014.8596	2882.0212	4214.35	3330.2
1014.9761	2883.152	4204.2	3320
1015.0925	2884.2821	4187.2	3304.8
1015.2089	2885.4116	4179	3294.7
1015.3253	2886.5405	4174.85	3291.7
1015.4416	2887.6686	4172.65	3287.15
1015.5579	2888.7962	4190.6	3307.65
1015.6741	2889.923	4199.05	3317.1
1015.7903	2891.0493	4200.2	3316.3
1015.9065	2892.1748	4213.05	3328.4
1016.0226	2893.2997	4216.45	3331.9
1016.1387	2894.424	4244.3	3360.65
1016.2547	2895.5476	4248.25	3361.6
1016.3707	2896.6706	4266.95	3384.55
1016.4866	2897.7929	4284.05	3399.9
1016.6025	2898.9145	4337	3452.15
1016.7184	2900.0355	4325.4	3440.45
1016.8342	2901.1559	4376.25	3490.85
1016.95	2902.2756	4407.85	3525.2
1017.0658	2903.3946	4445.4	3561
1017.1815	2904.513	4457.3	3568.45
1017.2971	2905.6308	4488.85	3605.35
1017.4127	2906.7479	4509.8	3624.5
1017.5283	2907.8643	4536.1	3651.75
1017.6439	2908.9801	4522.55	3636.8
1017.7594	2910.0953	4533	3649.75
1017.8748	2911.2098	4543.2	3656.8
1017.9902	2912.3236	4531.6	3640
1018.1056	2913.4368	4526.7	3639.3
1018.2209	2914.5494	4501.4	3617.15
1018.3362	2915.6613	4461	3570.55
1018.4515	2916.7725	4455.85	3567.8
1018.5667	2917.8831	4392	3507.1
1018.6819	2918.9931	4377.5	3489.85
1018.797	2920.1024	4351.45	3465.35
1018.9121	2921.211	4333.6	3448.05
1019.0271	2922.319	4302.4	3418.15
1019.1421	2923.4264	4281.45	3397.3
1019.2571	2924.5331	4260.15	3377.3
1019.372	2925.6391	4248.45	3364.8
1019.4869	2926.7445	4234.55	3350
1019.6017	2927.8493	4228.6	3344.15
1019.7165	2928.9534	4217.25	3332.45
1019.8313	2930.0569	4196.45	3309.8
1019.946	2931.1597	4204.7	3317.7
1020.0606	2932.2619	4183.5	3298.95
1020.1753	2933.3634	4167.7	3283.9
1020.2899	2934.4643	4178.95	3289.15
1020.4044	2935.5645	4146.05	3256.1
1020.5189	2936.6641	4105.8	3217.4
1020.6334	2937.763	4049.9	3167.2
1020.7478	2938.8613	4000.8	3117.7
1020.8622	2939.959	3948.8	3059.9
1020.9765	2941.056	3853.35	2970.6
1021.0908	2942.1523	3778.55	2892.2
1021.2051	2943.248	3676.8	2793.5
1021.3193	2944.3431	3560.75	2677.2
1021.4334	2945.4375	3478.1	2594.9
1021.5476	2946.5313	3369.45	2485.8
1021.6617	2947.6244	3263.95	2381.6
1021.7757	2948.7169	3152.75	2267.95
1021.8897	2949.8087	3051.7	2170.1
1022.0037	2950.8999	2966.15	2083.55
1022.1176	2951.9904	2889.35	2005.4
1022.2315	2953.0803	2817.85	1932.25
1022.3453	2954.1696	2741.85	1858.55
1022.4591	2955.2582	2687.8	1806.1
1022.5728	2956.3462	2635.4	1751.55
1022.6865	2957.4335	2593.2	1709.9
1022.8002	2958.5202	2563.65	1677.55
1022.9138	2959.6062	2526.2	1642.9
1023.0274	2960.6916	2506.4	1623.4
1023.141	2961.7764	2482.15	1597.45
1023.2545	2962.8605	2466.55	1583.3
1023.3679	2963.9439	2459.9	1577.05
1023.4813	2965.0267	2445.45	1563
1023.5947	2966.1089	2455.8	1548.3
1023.708	2967.1905	2433.7	1548.35
1023.8213	2968.2714	2426.35	1545.05
1023.9346	2969.3516	2426.65	1544.75
1024.0478	2970.4312	2423.45	1534.4
1024.1609	2971.5102	2419.7	1535.2
1024.274	2972.5885	2416.45	1533.4
1024.3871	2973.6662	2415.45	1526.45
1024.5002	2974.7432	2409.05	1526.4
1024.6132	2975.8196	2395.3	1511.45
1024.7261	2976.8954	2379.95	1497.25
1024.839	2977.9705	2373.4	1490.85
1024.9519	2979.045	2351.2	1468.2
1025.0647	2980.1188	2329.55	1446.1
1025.1775	2981.192	2314.35	1431.3
1025.2902	2982.2645	2292.05	1408.6
1025.4029	2983.3364	2264.95	1384
1025.5156	2984.4077	2230.5	1347.35
1025.6282	2985.4783	2204.45	1313.7
1025.7407	2986.5483	2161.4	1278.95
1025.8532	2987.6177	2133.6	1250.5
1025.9657	2988.6864	2096.3	1213.25
1026.0782	2989.7545	2062.55	1179.1
1026.1906	2990.8219	2023.35	1142.55
1026.3029	2991.8887	1987.7	1104.4
1026.4152	2992.9548	1959.55	1075.2
1026.5275	2994.0204	1934.8	1052.85
1026.6397	2995.0852	1901.7	1019.25
1026.7519	2996.1495	1879.6	995.95
1026.864	2997.2131	1858.95	976.3
1026.9761	2998.276	1834	950.7
1027.0882	2999.3383	1804.4	920.1
1027.2002	3000.4	1791.3	907.95
1027.3122	3001.4611	1765.85	883.25
1027.4241	3002.5215	1754.7	871.45
1027.536	3003.5812	1733.3	850.95
1027.6478	3004.6404	1731.55	849.2
1027.7596	3005.6989	1723.2	837.25
1027.8714	3006.7567	1705.5	823.65
1027.9831	3007.8139	1718.9	815.15
1028.0947	3008.8705	1692.1	809
1028.2064	3009.9264	1700.55	800.3
1028.3179	3010.9818	1670	787.1
1028.4295	3012.0364	1673.55	789.95
1028.541	3013.0905	1670.45	787.45
1028.6524	3014.1439	1665.75	786
1028.7638	3015.1966	1654.3	773.4
1028.8752	3016.2487	1659.55	774.65
1028.9865	3017.3002	1657.2	768.3
1029.0978	3018.3511	1654.4	771.85
1029.209	3019.4013	1656.85	774.4
1029.3202	3020.4509	1656.6	774.3
1029.4314	3021.4998	1655.55	770.95
1029.5425	3022.5481	1653.8	772.35
1029.6535	3023.5958	1660.1	776.95
1029.7645	3024.6428	1653.55	772.9
1029.8755	3025.6892	1666.35	782.65
1029.9864	3026.735	1659.5	776.85
1030.0973	3027.7802	1657.3	774.35
1030.2082	3028.8247	1659	777.35
1030.319	3029.8685	1661.05	777.95
1030.4297	3030.9118	1665.3	779.85
1030.5404	3031.9544	1662.8	780.3
1030.6511	3032.9963	1667.7	785.3
1030.7617	3034.0376	1661.1	779.35
1030.8723	3035.0783	1677.65	791.45
1030.9829	3036.1184	1676.25	793.25
1031.0934	3037.1578	1678.5	795.95
1031.2038	3038.1966	1682	800.2
1031.3142	3039.2348	1679.8	798.95
1031.4246	3040.2723	1679.45	789.15
1031.5349	3041.3092	1673.9	792.4
1031.6452	3042.3455	1673	791.15
1031.7554	3043.3811	1662.75	778.55
1031.8656	3044.4161	1658.65	774.3
1031.9758	3045.4505	1655.2	772.75
1032.0859	3046.4842	1641.85	759.3
1032.1959	3047.5173	1634.2	752.6
1032.3059	3048.5498	1635.6	753.65
1032.4159	3049.5816	1621.15	741
1032.5258	3050.6128	1616.35	731.45
1032.6357	3051.6434	1612.9	730
1032.7455	3052.6734	1605.7	721.3
1032.8553	3053.7027	1592.8	711.3
1032.9651	3054.7314	1583.2	700.3
1033.0748	3055.7594	1569.65	688.8
1033.1845	3056.7868	1575.8	693.95
1033.2941	3057.8136	1569.9	689.3
1033.4037	3058.8398	1559.5	679
1033.5132	3059.8653	1545.9	664.05
1033.6227	3060.8902	1537.45	654.45
1033.7321	3061.9145	1540.7	657.6
1033.8415	3062.9381	1535.1	652.55
1033.9509	3063.9612	1541.95	645.5
1034.0602	3064.9835	1514.65	633.55
1034.1694	3066.0053	1506.55	622.2
1034.2787	3067.0264	1501.55	620.85
1034.3878	3068.0469	1485.55	599.65
1034.497	3069.0668	1485.5	601.7
1034.6061	3070.086	1479.65	599.2
1034.7151	3071.1046	1475.1	590.2
1034.8241	3072.1226	1457.8	577.6
1034.9331	3073.1399	1445.2	563.85
1035.042	3074.1567	1434.95	551.8
1035.1508	3075.1727	1428.15	544.35
1035.2597	3076.1882	1417.2	535.25
1035.3684	3077.203	1399.8	517.35
1035.4772	3078.2173	1402.35	519.55
1035.5859	3079.2308	1391.2	506.95
1035.6945	3080.2438	1390.95	507.45
1035.8031	3081.2561	1373.6	492.15
1035.9117	3082.2678	1359.3	477.3
1036.0202	3083.2789	1366.3	483.45
1036.1286	3084.2893	1350.85	468
1036.2371	3085.2991	1338.25	456.05
1036.3454	3086.3083	1338.85	453.45
1036.4538	3087.3169	1332.4	449.15
1036.562	3088.3248	1330.6	448.3
1036.6703	3089.3321	1315.45	431.15
1036.7785	3090.3388	1309.7	428.8
1036.8866	3091.3449	1309.15	428.85
1036.9948	3092.3503	1313.4	429.85
1037.1028	3093.3551	1296.6	416.7
1037.2108	3094.3593	1291	408.4
1037.3188	3095.3629	1285.85	402.9
1037.4267	3096.3658	1290.65	405.15
1037.5346	3097.3681	1281.05	400.15
1037.6425	3098.3698	1278.95	396.7
1037.7503	3099.3708	1284	395.8
1037.858	3100.3713	1266.1	386.4
1037.9657	3101.3711	1266.05	383
1038.0734	3102.3702	1393.3	377.75
1038.181	3103.3688	1266.35	382.65
1038.2886	3104.3667	1252.5	371.45
1038.3961	3105.364	1250.05	369.3
1038.5036	3106.3607	1255.6	371.6
1038.611	3107.3568	1251.9	369.45
1038.7184	3108.3522	1241.5	359.3
1038.8257	3109.347	1243.95	360.55
1038.933	3110.3412	1244	358.7
1039.0403	3111.3348	1244.8	364.9
1039.1475	3112.3277	1238.5	356.45
1039.2547	3113.32	1234.55	355
1039.3618	3114.3117	1234.4	350.95
1039.4689	3115.3028	1225.05	343.65
1039.5759	3116.2932	1225.25	343.65
1039.6829	3117.2831	1230.35	344.7
1039.7898	3118.2723	1220.55	339.95
1039.8967	3119.2608	1227.55	347.7
1040.0035	3120.2488	1217.1	335.35
1040.1103	3121.2361	1215.4	335.1
1040.2171	3122.2229	1210.95	328.5
1040.3238	3123.209	1212.35	331.2
1040.4305	3124.1944	1203.3	322.8
1040.5371	3125.1793	1206.05	323.75
1040.6437	3126.1635	1199.75	319.45
1040.7502	3127.1471	1208.7	326.85
1040.8567	3128.1301	1200.4	319.7
1040.9631	3129.1125	1202.85	321.4
1041.0695	3130.0942	1197.7	316.85
1041.1759	3131.0753	1203.7	315.6
1041.2822	3132.0558	1193.4	310
1041.3884	3133.0357	1195.1	313.3
1041.4946	3134.015	1188.45	305.95
1041.6008	3134.9936	1185.15	302.7
1041.7069	3135.9716	1204.9	299.5
1041.813	3136.949	1185.25	305.3
1041.919	3137.9258	1195.6	294.1
1042.025	3138.902	1180.8	295.3
1042.1309	3139.8775	1173.15	292.15
1042.2368	3140.8524	1174.2	293.55
1042.3427	3141.8267	1175.45	291.7
1042.4485	3142.8004	1172.4	290.15
1042.5542	3143.7735	1179	291.85
1042.6599	3144.7459	1171.65	288.2
1042.7656	3145.7178	1166.75	285.15
1042.8712	3146.689	1162.1	281.95
1042.9768	3147.6596	1163.95	279.45
1043.0823	3148.6295	1160.35	278.25
1043.1878	3149.5989	1164.35	282.25
1043.2932	3150.5676	1157.9	278.1
1043.3986	3151.5357	1150.15	268.9
1043.5039	3152.5032	1159.65	278.55
1043.6092	3153.4701	1151.15	271.45
1043.7145	3154.4364	1151.7	268.45
1043.8197	3155.402	1147.7	268.2
1043.9248	3156.367	1146.1	263.85
1044.03	3157.3315	1169.75	262.6
1044.135	3158.2952	1144.15	262.45
1044.24	3159.2584	1140.4	257.15
1044.345	3160.221	1139.05	256.2
1044.4499	3161.1829	1137.5	255.2
1044.5548	3162.1442	1134.95	255.45
1044.6596	3163.105	1131.35	249.95
1044.7644	3164.065	1136.9	256
1044.8692	3165.0245	1134.05	248.8
1044.9739	3165.9834	1128.05	247.6
1045.0785	3166.9416	1133	251.3
1045.1831	3167.8993	1129.55	248.6
1045.2877	3168.8563	1130.7	249
1045.3922	3169.8127	1127.05	245.35
1045.4966	3170.7684	1117.25	236.55
1045.6011	3171.7236	1119.2	236.65
1045.7054	3172.6782	1120.8	239.8
1045.8098	3173.6321	1124.55	244.8
1045.914	3174.5854	1123.6	237.3
1046.0183	3175.5381	1114.1	232.8
1046.1224	3176.4902	1117.05	235.65
1046.2266	3177.4417	1110.4	230.95
1046.3307	3178.3926	1109.95	232.5
1046.4347	3179.3428	1111.15	230.4
1046.5387	3180.2924	1109.8	231.15
1046.6427	3181.2415	1106.1	225.8
1046.7466	3182.1899	1105.4	221.85
1046.8504	3183.1377	1105.9	227.55
1046.9542	3184.0848	1109.9	225.95
1047.058	3185.0314	1103.1	222.55
1047.1617	3185.9773	1100.9	220.2
1047.2654	3186.9227	1102.4	220.75
1047.369	3187.8674	1100.7	220.1
1047.4726	3188.8115	1105.2	220.9
1047.5761	3189.755	1097.5	217.05
1047.6796	3190.6979	1094	213.75
1047.783	3191.6402	1095.95	212.9
1047.8864	3192.5818	1094.35	211.7
1047.9898	3193.5229	1100.8	213.6
1048.0931	3194.4633	1090.75	211.65
1048.1963	3195.4031	1096.15	214.05
1048.2995	3196.3423	1091.5	212.3
1048.4027	3197.2809	1086.55	206.35
1048.5058	3198.2189	1087.5	205.65
1048.6089	3199.1563	1092.8	203.75
1048.7119	3200.0931	1085.7	204.7
1048.8148	3201.0292	1079.85	197.95
1048.9178	3201.9648	1083.85	204
1049.0206	3202.8997	1082.05	198.95
1049.1235	3203.834	1082.3	199.75
1049.2262	3204.7677	1083.7	202.45
1049.329	3205.7008	1081.05	199.65
1049.4317	3206.6333	1079.05	199.35
1049.5343	3207.5652	1078.05	195.15
1049.6369	3208.4964	1072.2	191.95
1049.7394	3209.4271	1074.3	192.1
1049.8419	3210.3571	1073.8	192.7
1049.9444	3211.2865	1075.95	195.25
1050.0468	3212.2154	1071	189.05
1050.1491	3213.1436	1078.7	195.3
1050.2514	3214.0712	1075.9	187.95
1050.3537	3214.9982	1073.9	192.95
1050.4559	3215.9246	1062.75	180.8
1050.5581	3216.8503	1068.05	188.1
1050.6602	3217.7755	1065.4	184.85
1050.7623	3218.7001	1068.65	188.4
1050.8643	3219.624	1060.7	180.7
1050.9663	3220.5473	1064.05	183.75
1051.0682	3221.4701	1062.45	178.7
1051.1701	3222.3922	1062.95	181.25
1051.2719	3223.3137	1063.05	181.9
1051.3737	3224.2346	1061.25	181.4
1051.4754	3225.1549	1057.55	177.1
1051.5771	3226.0746	1057.75	175.2
1051.6788	3226.9937	1054.65	173.95
1051.7804	3227.9121	1057.4	177.55
1051.8819	3228.83	1053.35	173.75
1051.9834	3229.7473	1055.75	175.65
1052.0849	3230.6639	1058.1	178.65
1052.1863	3231.5799	1048.85	169.7
1052.2876	3232.4954	1054.65	174.45
1052.3889	3233.4102	1049.55	171
1052.4902	3234.3244	1047.5	165.9
1052.5914	3235.238	1045.3	163.65
1052.6926	3236.151	1074.4	168.45
1052.7937	3237.0634	1044.95	164.4
1052.8948	3237.9752	1043.95	164.85
1052.9958	3238.8864	1039	158.9
1053.0968	3239.797	1046.55	166
1053.1977	3240.7069	1043.55	163.6
1053.2986	3241.6163	1042.6	159.3
1053.3994	3242.5251	1040.95	160.75
1053.5002	3243.4332	1039.7	160.3
1053.6009	3244.3408	1041.8	161.6
1053.7016	3245.2477	1034.15	153.65
1053.8022	3246.154	1038	155.25
1053.9028	3247.0598	1037.8	156.7
1054.0034	3247.9649	1033.8	152.35
1054.1039	3248.8694	1034.35	154.2
1054.2043	3249.7733	1033.15	151.75
1054.3047	3250.6766	1035.45	156.9
1054.4051	3251.5793	1032	150.6
1054.5054	3252.4814	1026.7	147.05
1054.6056	3253.3829	1025.05	144.75
1054.7058	3254.2838	1024.05	144.75
1054.806	3255.1841	1028.35	147.9
1054.9061	3256.0838	1023.7	143.85
1055.0061	3256.9829	1020.3	142.4
1055.1062	3257.8814	1026.05	143.45
1055.2061	3258.7792	1021.2	140.2
1055.306	3259.6765	1019.8	139.6
1055.4059	3260.5731	1020.9	141.75
1055.5057	3261.4692	1018.2	137
1055.6055	3262.3647	1013.1	130.25
1055.7052	3263.2595	1014	134.5
1055.8049	3264.1538	1012.8	131.65
1055.9045	3265.0474	1009.95	130.3
1056.0041	3265.9404	1003.3	122.65
1056.1036	3266.8329	1003.05	123.15
1056.2031	3267.7247	1012.5	121.85
1056.3025	3268.616	999.25	119.55
1056.4019	3269.5066	996.2	117
1056.5013	3270.3966	996.4	116.15
1056.6005	3271.286	993.7	113.45
