Software Version:	3.9.2.0
Unit SN:	10000200
Spectrometer SN:	6960
Date:	3/26/2024 2:45:56 PM
Data Line Index:	25
Spectral Points:	2048
Integration time (ms):	125
Averages:	20
Delay (ms):	30000
Sequence Number:	1
Processing:	dark subtract
Laser Power (mW):	305
Laser Current (mA):	821
Laser Diode Temp (C):	25
Laser Case Temp (C):	27.9
System Temp (C):	28.1
Spectrometer Temp (C):	25.9
CCD Temp (C):	0.004
Secondary Temp (C):	20.006
Heatsink Temp (C):	23.273
CCDPCB Temp (C):	37.274
SecondaryPCB Temp (C):	34.862

Wavelength	RamanShift	Raw Counts	Dark Subtracted
787.061	30.1047	628.85	218.9
787.2016	32.3739	637.85	230.4
787.3422	34.6426	657.25	247.7
787.4828	36.9109	668.9	256.6
787.6235	39.1787	693.35	278.9
787.7642	41.4461	718.45	298.3
787.9049	43.7131	736.8	313.05
788.0456	45.9796	764.9	338.45
788.1863	48.2456	788.15	358.05
788.3271	50.5112	815.25	380
788.4679	52.7764	839	402.05
788.6087	55.0411	861.8	421.3
788.7496	57.3054	902	455.2
788.8904	59.5692	924.5	475.1
789.0313	61.8326	965.8	512.6
789.1722	64.0955	1005.45	548.2
789.3132	66.3579	1057.3	595.25
789.4541	68.6199	1105.6	640.85
789.5951	70.8815	1202.95	736
789.7361	73.1426	1396.9	925.3
789.8771	75.4032	1877.85	1400.7
790.0181	77.6634	3105.75	2622.6
790.1592	79.9231	6175.25	5681.7
790.3003	82.1824	13274.95	12763.75
790.4414	84.4412	28826.25	28282.2
790.5825	86.6995	55974.7	55384.5
790.7237	88.9574	65507.25	64877.55
790.8648	91.2148	65535	64872.7
791.006	93.4717	65535	64851.4
791.1472	95.7282	65535	64842.65
791.2885	97.9842	65535	64837.15
791.4297	100.2398	65535	64833.25
791.571	102.4949	65535	64831.25
791.7123	104.7495	65535	64830.9
791.8536	107.0036	65535	64824.75
791.9949	109.2573	65535	64834.15
792.1363	111.5105	65535	64827.65
792.2777	113.7632	65535	64822.7
792.4191	116.0154	65535	64816.35
792.5605	118.2672	65535	64820.25
792.7019	120.5185	65535	64820.7
792.8434	122.7693	65535	64818.15
792.9849	125.0197	65535	64811.4
793.1264	127.2696	65535	64814.8
793.2679	129.519	65535	64806.4
793.4094	131.7679	65535	64804.15
793.551	134.0163	65535	64796.4
793.6926	136.2642	65535	64798.65
793.8342	138.5117	65535	64791.4
793.9758	140.7587	65535	64788.85
794.1175	143.0052	65535	64789.2
794.2591	145.2512	65535	64790.1
794.4008	147.4967	65535	64787.15
794.5425	149.7417	65535	64790.6
794.6842	151.9863	65535	64785.6
794.826	154.2304	65535	64781.45
794.9677	156.4739	65535	64776.1
795.1095	158.717	65535	64770.4
795.2513	160.9596	65535	64767.55
795.3931	163.2017	65535	64770.1
795.535	165.4433	65535	64768.3
795.6768	167.6844	65535	64764.1
795.8187	169.925	65535	64766.65
795.9606	172.1651	65535	64763.35
796.1025	174.4047	65535	64764.5
796.2445	176.6439	65535	64761
796.3864	178.8825	65535	64757.35
796.5284	181.1206	65535	64749.5
796.6704	183.3582	65535	64745.1
796.8124	185.5954	65535	64742.85
796.9544	187.832	65535	64743.15
797.0965	190.0681	65535	64740.5
797.2386	192.3037	65535	64739.3
797.3806	194.5388	65535	64733.5
797.5228	196.7734	65535	64729.25
797.6649	199.0075	65535	64720.5
797.807	201.2411	65535	64722.95
797.9492	203.4742	65535	64725.3
798.0914	205.7068	65535	64721.2
798.2336	207.9389	65535	64718.95
798.3758	210.1704	65535	64711.25
798.518	212.4015	65535	64714.65
798.6603	214.632	65535	64722
798.8025	216.862	65535	64730.05
798.9448	219.0915	65535	64739
799.0871	221.3205	65535	64734.2
799.2294	223.549	65535	64739.1
799.3718	225.777	65535	64738.35
799.5141	228.0044	65535	64733.7
799.6565	230.2314	65535	64739.05
799.7989	232.4578	65535	64737.75
799.9413	234.6837	65535	64731.75
800.0837	236.909	65535	64729.1
800.2262	239.1339	65535	64701.95
800.3687	241.3582	65535	64720.95
800.5111	243.582	65535	64686.35
800.6536	245.8053	65535	64696.95
800.7961	248.0281	65535	64702.5
800.9387	250.2503	65535	64692.5
801.0812	252.472	65535	64694.3
801.2238	254.6932	65535	64697.7
801.3664	256.9139	65535	64696.7
801.509	259.134	65535	64690.8
801.6516	261.3536	65535	64690
801.7942	263.5727	65535	64686.4
801.9369	265.7912	65535	64686.3
802.0795	268.0092	65535	64689.25
802.2222	270.2267	65535	64688.1
802.3649	272.4436	65535	64686.35
802.5076	274.6601	65535	64681.55
802.6504	276.8759	65535	64691.2
802.7931	279.0913	65535	64681.75
802.9359	281.3061	65535	64683.5
803.0787	283.5204	65535	64677.75
803.2215	285.7341	65535	64676.7
803.3643	287.9473	65535	64666.75
803.5071	290.16	65535	64668.3
803.6499	292.3721	65535	64676.05
803.7928	294.5837	65535	64675.15
803.9357	296.7947	65535	64679.7
804.0786	299.0052	65535	64674.05
804.2215	301.2152	65535	64670.85
804.3644	303.4246	65535	64676.05
804.5074	305.6334	65535	64673.65
804.6503	307.8418	65535	64673.15
804.7933	310.0495	65535	64679
804.9363	312.2568	65535	64673.95
805.0793	314.4635	65535	64670.45
805.2223	316.6696	65535	64669.5
805.3653	318.8752	65535	64659.1
805.5084	321.0802	65535	64666
805.6514	323.2847	65535	64666.55
805.7945	325.4887	65535	64662.3
805.9376	327.692	65535	64664.8
806.0807	329.8949	65535	64663.05
806.2238	332.0972	65535	64662.8
806.367	334.2989	65535	64657.8
806.5101	336.5001	65535	64653.9
806.6533	338.7007	65535	64655.5
806.7965	340.9008	65535	64653.65
806.9397	343.1003	65535	64657.6
807.0829	345.2992	65535	64652.6
807.2261	347.4976	65535	64651.7
807.3693	349.6955	65535	64645.8
807.5126	351.8927	65535	64652.3
807.6559	354.0895	65535	64637.7
807.7991	356.2856	65535	64650.35
807.9424	358.4812	65535	64649.5
808.0857	360.6763	65535	64645.55
808.2291	362.8707	65535	64651.25
808.3724	365.0646	65535	64638.95
808.5158	367.258	65535	64644.2
808.6591	369.4508	65535	64639.15
808.8025	371.643	65535	64635.9
808.9459	373.8346	65535	64637.45
809.0893	376.0257	65535	64635.3
809.2327	378.2162	65535	64635.75
809.3762	380.4062	65535	64634.6
809.5196	382.5956	65535	64636.95
809.6631	384.7844	65535	64636.2
809.8066	386.9726	65535	64633.25
809.9501	389.1603	65535	64639.3
810.0936	391.3474	65535	64594.55
810.2371	393.5339	65535	64635.55
810.3806	395.7199	65535	64643.3
810.5241	397.9052	65535	64644
810.6677	400.09	65535	64643.8
810.8113	402.2743	65535	64642.1
810.9548	404.4579	65535	64644.85
811.0984	406.641	65535	64643.85
811.2421	408.8235	65535	64646.55
811.3857	411.0054	65535	64644.45
811.5293	413.1868	65535	64636.4
811.673	415.3675	65535	64635
811.8166	417.5477	65535	64637.65
811.9603	419.7273	65535	64635.3
812.104	421.9064	65535	64628.35
812.2477	424.0848	65535	64633.15
812.3914	426.2627	65535	64632.6
812.5351	428.4399	65535	64630.5
812.6788	430.6166	65535	64628.05
812.8226	432.7928	65535	64622.75
812.9663	434.9683	65535	64627.55
813.1101	437.1432	65535	64628.45
813.2539	439.3176	65535	64633.5
813.3977	441.4914	65535	64637.25
813.5415	443.6645	65535	64631.85
813.6853	445.8371	65535	64630.65
813.8291	448.0091	65535	64628.45
813.973	450.1806	65535	64633.95
814.1168	452.3514	65535	64631.85
814.2607	454.5216	65535	64625.6
814.4046	456.6913	65535	64630
814.5485	458.8603	65535	64627.55
814.6924	461.0288	65535	64636.65
814.8363	463.1967	65535	64634.75
814.9802	465.3639	65535	64634.45
815.1241	467.5306	65535	64628.35
815.2681	469.6967	65535	64634.15
815.412	471.8622	65535	64635.15
815.556	474.0271	65535	64626.4
815.7	476.1914	65535	64626.1
815.844	478.3551	65535	64625.55
815.988	480.5182	65535	64630.6
816.132	482.6807	65535	64637.45
816.276	484.8426	65535	64642.15
816.4201	487.0039	65535	64635
816.5641	489.1647	65535	64629.7
816.7082	491.3248	65535	64626.65
816.8522	493.4843	65535	64636.5
816.9963	495.6432	65535	64633.5
817.1404	497.8015	65535	64621.8
817.2845	499.9592	65535	64615.5
817.4286	502.1163	65535	64618.3
817.5727	504.2728	65535	64622.75
817.7168	506.4287	65535	64633.5
817.861	508.5839	65535	64633.05
818.0051	510.7386	65535	64630.85
818.1493	512.8927	65535	64614.9
818.2935	515.0461	65535	64623.65
818.4377	517.199	65535	64620.1
818.5818	519.3512	65535	64620.65
818.726	521.5029	65535	64613.7
818.8703	523.6539	65535	64618.45
819.0145	525.8043	65535	64619.55
819.1587	527.9541	65535	64614.55
819.303	530.1033	65535	64617.75
819.4472	532.2519	65535	64623.8
819.5915	534.3999	65535	64614.05
819.7357	536.5472	65535	64620.3
819.88	538.694	65535	64624.9
820.0243	540.8401	65535	64616.7
820.1686	542.9856	65535	64613.3
820.3129	545.1305	65535	64609.8
820.4572	547.2748	65535	64602.9
820.6016	549.4185	65535	64603.7
820.7459	551.5615	65535	64606
820.8902	553.704	65535	64604.95
821.0346	555.8458	65535	64610.05
821.1789	557.987	65535	64612.15
821.3233	560.1276	65535	64606.05
821.4677	562.2675	65535	64605.35
821.6121	564.4069	65535	64606.35
821.7565	566.5456	65535	64609.4
821.9009	568.6837	65535	64614.95
822.0453	570.8212	65535	64612.95
822.1897	572.958	65535	64610.85
822.3342	575.0942	65535	64616.85
822.4786	577.2299	65535	64616.1
822.6231	579.3648	65535	64627.6
822.7675	581.4992	65535	64631.7
822.912	583.6329	65535	64636.7
823.0565	585.766	65535	64631.7
823.201	587.8985	65535	64628.5
823.3454	590.0304	65535	64607.9
823.4899	592.1616	65535	64612.15
823.6345	594.2922	65535	64606.45
823.779	596.4222	65535	64604.5
823.9235	598.5515	65535	64608.85
824.068	600.6802	65535	64606.6
824.2126	602.8083	65535	64612
824.3571	604.9358	65535	64607.6
824.5017	607.0626	65535	64605.8
824.6462	609.1888	65535	64598.15
824.7908	611.3144	65535	64598.1
824.9354	613.4393	65535	64600.55
825.08	615.5636	65535	64604.8
825.2246	617.6873	65535	64603.25
825.3692	619.8103	65535	64603.95
825.5138	621.9327	65535	64604
825.6584	624.0544	65535	64610.9
825.803	626.1756	65535	64608.4
825.9477	628.2961	65535	64604.9
826.0923	630.4159	65535	64606.65
826.237	632.5351	65535	64603.9
826.3816	634.6537	65535	64605.45
826.5263	636.7716	65535	64599.8
826.6709	638.8889	65535	64596.6
826.8156	641.0056	65535	64597.65
826.9603	643.1216	65535	64599.95
827.105	645.237	65535	64597.65
827.2497	647.3518	65535	64607.4
827.3944	649.4659	65535	64611
827.5391	651.5793	65535	64608.2
827.6838	653.6922	65535	64606.85
827.8285	655.8043	65535	64608.2
827.9733	657.9159	65535	64604.7
828.118	660.0268	65535	64604.3
828.2627	662.137	65535	64602.15
828.4075	664.2466	65535	64594.6
828.5522	666.3556	65535	64598.95
828.697	668.4639	65535	64600.95
828.8418	670.5716	65535	64609.7
828.9865	672.6786	65535	64607.35
829.1313	674.785	65535	64598.1
829.2761	676.8907	65535	64601.9
829.4209	678.9958	65535	64608.45
829.5657	681.1002	65535	64598.15
829.7105	683.204	65535	64593.35
829.8553	685.3072	65535	64594.45
830.0001	687.4097	65535	64600.85
830.1449	689.5115	65535	64593.05
830.2898	691.6127	65535	64599.55
830.4346	693.7132	65535	64602.3
830.5794	695.8131	65535	64580.05
830.7243	697.9123	65535	64592.1
830.8691	700.0109	65535	64595.4
831.014	702.1089	65530.45	64592.15
831.1588	704.2061	65532.75	64597.3
831.3037	706.3028	65534.8	64593.65
831.4486	708.3987	65535	64594.8
831.5935	710.4941	65535	64596.05
831.7383	712.5887	65535	64598.4
831.8832	714.6827	65535	64595.6
832.0281	716.7761	65535	64595.35
832.173	718.8688	65535	64596.6
832.3179	720.9608	65535	64592.5
832.4628	723.0522	65535	64588.2
832.6077	725.1429	65533.5	64589.5
832.7527	727.233	65535	64598.35
832.8976	729.3224	65381	64439.25
833.0425	731.4112	65499.4	64560.55
833.1874	733.4993	65501.4	64558.7
833.3324	735.5867	65504.4	64564.8
833.4773	737.6735	65434.85	64490.55
833.6222	739.7596	65310.9	64372
833.7672	741.845	65271	64332.4
833.9122	743.9298	65485.25	64542.1
834.0571	746.014	65274.3	64331.5
834.2021	748.0974	65088.7	64140.5
834.347	750.1802	65442.8	64495.65
834.492	752.2624	64996.3	64049.85
834.637	754.3439	65044.75	64098.05
834.782	756.4247	65172.65	64218.4
834.9269	758.5048	64963.85	64019.7
835.0719	760.5843	65067.5	64121
835.2169	762.6631	65241.65	64296.65
835.3619	764.7413	65154.1	64211.3
835.5069	766.8188	65251.15	64306.1
835.6519	768.8956	65451	64508
835.7969	770.9718	65423.25	64477.25
835.9419	773.0473	65357.1	64410.2
836.0869	775.1221	64970.85	64026.45
836.232	777.1962	64921.35	63979.85
836.377	779.2697	64495.65	63548.7
836.522	781.3426	64837.55	63879.7
836.667	783.4147	64993.6	64045.8
836.8121	785.4862	64977.55	64028.25
836.9571	787.557	64566.9	63621.15
837.1021	789.6271	64905.15	63951.9
837.2472	791.6966	64467.3	63521.3
837.3922	793.7654	63863.6	62918.7
837.5373	795.8335	63857.6	62911.5
837.6823	797.901	64041.8	63096.35
837.8274	799.9678	63700.5	62752
837.9724	802.0339	63571.95	62619.7
838.1175	804.0993	63685.15	62723.8
838.2626	806.1641	63489.05	62540.55
838.4076	808.2282	63334.2	62388.75
838.5527	810.2916	63109.95	62161.75
838.6978	812.3544	63434.45	62489.35
838.8428	814.4164	62735.95	61795.2
838.9879	816.4778	62799.4	61848.7
839.133	818.5385	62825.4	61879.65
839.2781	820.5986	62719.55	61773.5
839.4232	822.658	62808.55	61854.4
839.5682	824.7166	62850.85	61906.2
839.7133	826.7747	62167.25	61219.6
839.8584	828.832	62456.95	61510.25
840.0035	830.8886	62807.25	61857.3
840.1486	832.9446	62848.9	61899.25
840.2937	834.9999	61800.1	60856.65
840.4388	837.0545	62418.9	61469.35
840.5839	839.1085	62769.75	61821
840.729	841.1618	62512.05	61558.95
840.8741	843.2143	61778.55	60830.75
841.0192	845.2662	61778.4	60832
841.1643	847.3175	61986.6	61037.75
841.3095	849.368	60930.2	59980.9
841.4546	851.4179	61738.25	60789.3
841.5997	853.467	60944.05	59996.6
841.7448	855.5155	61209.7	60259.2
841.8899	857.5633	60508.25	59562.1
842.0351	859.6105	60121.9	59173.65
842.1802	861.6569	60479.6	59527.7
842.3253	863.7027	59648.1	58696.35
842.4704	865.7478	59983.15	59033.1
842.6156	867.7922	59802.1	58853.6
842.7607	869.8359	60209.1	59257.3
842.9058	871.8789	59351.45	58406.35
843.0509	873.9212	59964.55	58983.5
843.1961	875.9629	59997.5	59048.8
843.3412	878.0039	59957.3	59004.25
843.4863	880.0441	59693.6	58745.6
843.6315	882.0837	59615.15	58667.85
843.7766	884.1226	59474.8	58524.5
843.9218	886.1609	59313.2	58361.85
844.0669	888.1984	58769.55	57822.95
844.212	890.2352	59212.75	58262.25
844.3572	892.2714	58319.35	57365.5
844.5023	894.3069	58644.3	57695.3
844.6475	896.3416	58305.75	57358.85
844.7926	898.3757	58226.4	57274.6
844.9377	900.4091	57363.85	56408.5
845.0829	902.4418	58292.75	57333.3
845.228	904.4739	57596.65	56644
845.3732	906.5052	57731.8	56781.7
845.5183	908.5358	57235.1	56280.85
845.6635	910.5658	56897.05	55944
845.8086	912.595	56807.8	55856.2
845.9538	914.6236	56127.3	55175.25
846.0989	916.6515	57065.45	56114.1
846.2441	918.6786	55843.85	54891.2
846.3892	920.7051	56134.1	55181.15
846.5344	922.7309	56070.65	55119.8
846.6795	924.756	56163.35	55211.7
846.8246	926.7804	55893.55	54942.05
846.9698	928.8041	55283.95	54332.8
847.1149	930.8272	55634.15	54679.75
847.2601	932.8495	55430.35	54475.55
847.4052	934.8711	54860.85	53908.25
847.5504	936.892	54548.05	53595
847.6955	938.9123	54368.95	53417.1
847.8407	940.9318	53960.7	53007.7
847.9858	942.9506	53746.55	52795.6
848.131	944.9688	53625.35	52675.85
848.2761	946.9862	53043.8	52090.35
848.4213	949.003	53109.5	52156
848.5664	951.019	52537.25	51586.55
848.7115	953.0344	52675.2	51723.4
848.8567	955.0491	52557.1	51606.05
849.0018	957.063	52685.4	51732.25
849.147	959.0763	52719.2	51758.9
849.2921	961.0888	52449.4	51496.95
849.4373	963.1007	52617.95	51668.2
849.5824	965.1119	52480.55	51538
849.7275	967.1223	52338.35	51402.15
849.8727	969.1321	52422.75	51486.4
850.0178	971.1412	52067.7	51125.9
850.1629	973.1495	51832.2	50881.45
850.3081	975.1572	51975.8	50993.5
850.4532	977.1641	51877	50927.5
850.5983	979.1704	51623.65	50671.75
850.7435	981.1759	51543	50588.95
850.8886	983.1808	51454.9	50503.1
851.0337	985.1849	51438.55	50475.5
851.1788	987.1884	51458.3	50504.7
851.324	989.1911	51699.65	50752.3
851.4691	991.1932	51456.15	50507.9
851.6142	993.1945	51415.4	50465.6
851.7593	995.1951	51178	50225.75
851.9045	997.1951	50918.4	49961.55
852.0496	999.1943	50610.4	49660.55
852.1947	1001.1928	50394.95	49443.2
852.3398	1003.1906	50312.85	49362.2
852.4849	1005.1877	50091.2	49139.7
852.63	1007.1841	49812.7	48861.85
852.7751	1009.1798	49531.15	48581.95
852.9202	1011.1748	49163.35	48213.8
853.0653	1013.1691	48797.2	47848.25
853.2104	1015.1627	48340.25	47392.25
853.3555	1017.1556	47912.55	46964.35
853.5006	1019.1477	47738.35	46788.7
853.6457	1021.1392	47366.3	46424.8
853.7908	1023.1299	47181.3	46242.8
853.9359	1025.12	47055	46119.15
854.081	1027.1093	46852.1	45927.95
854.2261	1029.0979	46787.75	45866.85
854.3712	1031.0859	46599.85	45669.2
854.5163	1033.0731	46425.7	45491.25
854.6613	1035.0596	46243.75	45304.9
854.8064	1037.0454	45847.2	44900.1
854.9515	1039.0304	45614.05	44667.3
855.0965	1041.0148	45351.95	44407.75
855.2416	1042.9985	45060.35	44110.35
855.3867	1044.9814	45039.85	44096.9
855.5317	1046.9636	44789.6	43842.65
855.6768	1048.9452	44537.85	43596.8
855.8219	1050.926	44415.65	43470.8
855.9669	1052.9061	44233.6	43288.7
856.112	1054.8855	44081.85	43136.55
856.257	1056.8642	44079.1	43133.35
856.4021	1058.8421	44056.9	43110.2
856.5471	1060.8194	43911.8	42963.45
856.6921	1062.7959	43795.8	42849.45
856.8372	1064.7717	43677.2	42727.85
856.9822	1066.7469	43575.05	42625.75
857.1272	1068.7213	43347.1	42400
857.2723	1070.695	43256.65	42307.7
857.4173	1072.6679	42944.85	41998.6
857.5623	1074.6402	42796.8	41853.8
857.7073	1076.6117	42761.8	41808.25
857.8523	1078.5826	42698.25	41748.15
857.9973	1080.5527	42574.3	41625.15
858.1423	1082.5221	42563.85	41617.85
858.2873	1084.4908	42756.15	41810.5
858.4323	1086.4587	42846.85	41900
858.5773	1088.426	42910.65	41963.3
858.7223	1090.3925	42766	41815.55
858.8673	1092.3584	42576.4	41628.85
859.0123	1094.3235	42143.35	41201.5
859.1573	1096.2879	41916.8	40970.15
859.3022	1098.2515	41753.05	40807.75
859.4472	1100.2145	41720.95	40774.45
859.5922	1102.1767	41615.65	40669.9
859.7371	1104.1382	41639.5	40694.6
859.8821	1106.099	41756.35	40807.3
860.027	1108.0591	41813.45	40870.75
860.172	1110.0185	41809.2	40862.6
860.3169	1111.9771	41760.9	40817.8
860.4619	1113.9351	41321.65	40375.6
860.6068	1115.8923	40845.05	39900.6
860.7517	1117.8488	40376.25	39429.6
860.8967	1119.8045	39945.4	39000.85
861.0416	1121.7596	39741.6	38796.15
861.1865	1123.7139	39459.9	38516.8
861.3314	1125.6675	39356.2	38411.6
861.4763	1127.6204	39416.4	38474
861.6212	1129.5726	39321.95	38376.9
861.7661	1131.524	39296.75	38357.05
861.911	1133.4748	39203.85	38260.15
862.0559	1135.4248	39132.1	38188.25
862.2008	1137.3741	39088	38144.3
862.3457	1139.3226	38993.7	38048.4
862.4905	1141.2705	38910.1	37969.1
862.6354	1143.2176	38601.9	37651.7
862.7803	1145.164	38600.35	37653.3
862.9251	1147.1097	38520.4	37576.75
863.07	1149.0546	38444.85	37498.95
863.2148	1150.9989	38330	37388.2
863.3597	1152.9424	38094.6	37151.65
863.5045	1154.8852	37758.95	36815.25
863.6493	1156.8272	37552.45	36610.2
863.7942	1158.7686	37431.45	36480.15
863.939	1160.7092	37287.6	36343.4
864.0838	1162.6491	37094.75	36149
864.2286	1164.5883	37088.45	36147.9
864.3734	1166.5267	37046.35	36102.65
864.5182	1168.4644	37101.25	36157.6
864.663	1170.4014	37183	36240.55
864.8078	1172.3377	37380.95	36440.7
864.9526	1174.2732	37498.05	36557.9
865.0974	1176.2081	37618.3	36678.65
865.2421	1178.1421	37674.15	36728.5
865.3869	1180.0755	37755.25	36814.8
865.5317	1182.0082	37619.6	36679.8
865.6764	1183.9401	37416.5	36475.8
865.8212	1185.8713	37135.1	36199.15
865.9659	1187.8017	36778.5	35845.7
866.1106	1189.7315	36494.25	35567.35
866.2554	1191.6605	35976.2	35049.4
866.4001	1193.5888	35710.95	34783.4
866.5448	1195.5163	35589.3	34656.25
866.6895	1197.4432	35317	34380.15
866.8342	1199.3693	35156.9	34216.85
866.9789	1201.2947	34997.6	34051.85
867.1236	1203.2193	34837.35	33896.65
867.2683	1205.1432	34776.05	33834.95
867.413	1207.0664	34726.9	33786.5
867.5576	1208.9889	34660.1	33717.8
867.7023	1210.9106	34591.35	33652.65
867.847	1212.8316	34567.3	33630.55
867.9916	1214.7519	34548.45	33600.2
868.1363	1216.6715	34488.05	33548.75
868.2809	1218.5903	34351.7	33413.15
868.4255	1220.5084	34174.7	33235.85
868.5701	1222.4257	34093	33154.75
868.7148	1224.3424	33854.95	32919.5
868.8594	1226.2583	33829.6	32894.75
869.004	1228.1735	33845.55	32904.9
869.1486	1230.0879	33804.4	32862.95
869.2932	1232.0016	33911.55	32970.9
869.4377	1233.9146	33788.65	32845.45
869.5823	1235.8269	33628.15	32686.4
869.7269	1237.7384	33425.95	32488.75
869.8715	1239.6492	33035.55	32096.95
870.016	1241.5592	32901.4	31961.85
870.1606	1243.4686	32726.95	31792.05
870.3051	1245.3772	32552.15	31614.2
870.4496	1247.285	32410.4	31473.75
870.5941	1249.1922	32264.35	31327.35
870.7387	1251.0986	32181.85	31245.7
870.8832	1253.0042	32066.2	31129.4
871.0277	1254.9092	32057.55	31123.05
871.1722	1256.8134	32037.1	31103.7
871.3167	1258.7169	32183.9	31246.45
871.4611	1260.6196	32175.8	31242
871.6056	1262.5216	32338.05	31401.1
871.7501	1264.4229	32402.3	31466.4
871.8945	1266.3234	32444.15	31506.35
872.039	1268.2232	32454.3	31514.85
872.1834	1270.1223	32342.45	31404.45
872.3278	1272.0207	32274	31335.65
872.4723	1273.9183	32120.8	31180.3
872.6167	1275.8151	31972.85	31037.9
872.7611	1277.7113	31808.8	30871
872.9055	1279.6067	31517.75	30583.3
873.0499	1281.5014	31265.15	30328.5
873.1943	1283.3953	31063.85	30123.75
873.3386	1285.2885	30873.45	29938.15
873.483	1287.181	30739.05	29803.3
873.6274	1289.0727	30762.25	29828.45
873.7717	1290.9637	30678.65	29743.85
873.9161	1292.854	30777.3	29842.35
874.0604	1294.7435	30817.75	29879.55
874.2047	1296.6323	30956.85	30021.3
874.349	1298.5204	31189.6	30250.3
874.4933	1300.4077	31425.95	30490.2
874.6376	1302.2943	31537.25	30602.7
874.7819	1304.1802	31568.8	30631.85
874.9262	1306.0653	31412.6	30476.35
875.0705	1307.9497	31191.9	30254.35
875.2147	1309.8333	31091.1	30155.6
875.359	1311.7162	31020.7	30085.65
875.5032	1313.5984	31097.2	30158
875.6475	1315.4798	31117.1	30169
875.7917	1317.3605	31230.25	30278.8
875.9359	1319.2405	31377.3	30440.85
876.0801	1321.1197	31359.95	30422.6
876.2243	1322.9982	31237.2	30294.05
876.3685	1324.876	31233.35	30296.25
876.5127	1326.753	31100.6	30166.1
876.6569	1328.6293	31103.5	30167.25
876.801	1330.5048	31152.15	30210.65
876.9452	1332.3796	31026.45	30091.1
877.0893	1334.2537	30916	29958.7
877.2335	1336.127	30796.15	29863.35
877.3776	1337.9996	30688.15	29753.45
877.5217	1339.8714	30549	29616
877.6658	1341.7426	30438.6	29457.25
877.8099	1343.6129	30290.2	29354.2
877.954	1345.4826	30198.8	29261.75
878.0981	1347.3515	30107.3	29169.1
878.2422	1349.2196	29978.65	29040.15
878.3862	1351.087	29940.95	29005.1
878.5303	1352.9537	29914.5	28977.3
878.6743	1354.8197	30004.1	29065.35
878.8184	1356.6849	30145.75	29210.1
878.9624	1358.5493	30130	29194.45
879.1064	1360.4131	30096.1	29163.15
879.2504	1362.276	29957.55	29023.2
879.3944	1364.1383	29721.45	28786.9
879.5384	1365.9998	29369.9	28430.15
879.6823	1367.8606	29021.45	28085.4
879.8263	1369.7206	28685.5	27749.45
879.9702	1371.5799	28424.1	27485.1
880.1142	1373.4384	28263.6	27329.75
880.2581	1375.2962	28145.05	27211.9
880.402	1377.1533	27746.85	26815.2
880.5459	1379.0096	27369.9	26436
880.6898	1380.8652	27069.1	26142.6
880.8337	1382.7201	26717.9	25788.1
880.9776	1384.5742	26468.9	25535.1
881.1215	1386.4275	26197.85	25264.85
881.2653	1388.2802	26015.9	25080.4
881.4092	1390.132	25879.45	24947.15
881.553	1391.9832	25754.95	24817.9
881.6968	1393.8336	25537.25	24603.65
881.8406	1395.6832	25466.15	24531.6
881.9844	1397.5322	25369.7	24435.2
882.1282	1399.3803	25288.4	24351.3
882.272	1401.2278	25163.65	24233.65
882.4158	1403.0745	25054	24123.85
882.5595	1404.9204	24924.1	23993.15
882.7033	1406.7656	24917.2	23983.8
882.847	1408.6101	24833.7	23900.35
882.9908	1410.4538	24728.8	23795
883.1345	1412.2968	24712.9	23781.8
883.2782	1414.139	24652.8	23721.05
883.4219	1415.9805	24744	23812.7
883.5656	1417.8213	24708.75	23757.9
883.7092	1419.6613	24723.2	23792.3
883.8529	1421.5006	24890.45	23958.65
883.9965	1423.3391	25101.7	24168.8
884.1402	1425.1769	25394.4	24461.7
884.2838	1427.0139	25830.75	24900.35
884.4274	1428.8502	26407.35	25477.9
884.571	1430.6858	26937.3	26006.2
884.7146	1432.5206	27300.85	26371.1
884.8582	1434.3547	27491	26558.05
885.0018	1436.188	27504.75	26574.25
885.1453	1438.0206	27431	26500.75
885.2889	1439.8524	27176.9	26244.95
885.4324	1441.6835	27055.7	26125.8
885.5759	1443.5139	26907.25	25975.8
885.7194	1445.3435	26757.25	25826.65
885.8629	1447.1724	26700.55	25773
886.0064	1449.0005	26560.1	25631.1
886.1499	1450.8279	26402.75	25473.3
886.2933	1452.6545	26318	25388.75
886.4368	1454.4804	26309.05	25382.85
886.5802	1456.3056	26300.25	25368
886.7237	1458.13	26128.2	25202.5
886.8671	1459.9536	25887.95	24959.35
887.0105	1461.7766	25480.95	24553.65
887.1539	1463.5987	24993.15	24062.95
887.2972	1465.4202	24528	23599.6
887.4406	1467.2409	24094.7	23165.5
887.584	1469.0608	23867.15	22936.5
887.7273	1470.88	23537.2	22604.7
887.8706	1472.6984	23248.05	22320.2
888.0139	1474.5161	22963.85	22033.3
888.1572	1476.3331	22767.55	21836.85
888.3005	1478.1493	22633.4	21707.95
888.4438	1479.9648	22526.3	21597.35
888.5871	1481.7795	22405.2	21475.65
888.7303	1483.5935	22269.1	21337.35
888.8736	1485.4067	22170.8	21244.05
889.0168	1487.2192	22093.55	21164.1
889.16	1489.031	22020.6	21087.15
889.3032	1490.842	21921.4	20993.85
889.4464	1492.6522	21904.7	20975.65
889.5896	1494.4618	21804.15	20875.35
889.7327	1496.2705	21775.25	20849.7
889.8759	1498.0785	21698.35	20766.35
890.019	1499.8858	21625.65	20696.45
890.1622	1501.6924	21573.3	20644.6
890.3053	1503.4981	21526.1	20598.8
890.4484	1505.3032	21472.6	20543.55
890.5914	1507.1075	21413.2	20485.25
890.7345	1508.911	21277.15	20350.3
890.8776	1510.7138	21226.5	20297.55
891.0206	1512.5159	21112.55	20184.85
891.1637	1514.3172	21048.95	20121.85
891.3067	1516.1178	20946.85	20021.65
891.4497	1517.9176	20902.65	19971.6
891.5927	1519.7166	20797.45	19871.9
891.7357	1521.515	20751.1	19820.25
891.8786	1523.3126	20671.15	19742.85
892.0216	1525.1094	20597.85	19667.9
892.1645	1526.9055	20524.2	19598.4
892.3074	1528.7008	20438.1	19511.2
892.4503	1530.4954	20294.4	19361.85
892.5932	1532.2893	20290.75	19368.3
892.7361	1534.0824	20186.1	19259.85
892.879	1535.8747	20115.65	19193.2
893.0218	1537.6663	20092.85	19170.4
893.1647	1539.4572	20021.95	19098.5
893.3075	1541.2473	19975.8	19056.25
893.4503	1543.0367	19869.65	18947.2
893.5931	1544.8253	19813.4	18886.35
893.7359	1546.6132	19828.8	18907.2
893.8787	1548.4003	19705.45	18772.8
894.0214	1550.1867	19681.8	18749.6
894.1642	1551.9723	19654	18732.15
894.3069	1553.7572	19627.65	18705.15
894.4496	1555.5414	19571.5	18653.1
894.5923	1557.3247	19527.2	18609.3
894.735	1559.1074	19534.1	18619.65
894.8777	1560.8893	19498.55	18583.75
895.0204	1562.6705	19491.55	18575
895.163	1564.4509	19504.4	18590.65
895.3056	1566.2305	19542.4	18631.6
895.4482	1568.0094	19651.35	18738.9
895.5908	1569.7876	19735.6	18820.5
895.7334	1571.565	19707.55	18791.4
895.876	1573.3417	19745.45	18830.1
896.0186	1575.1176	19728.2	18814.75
896.1611	1576.8928	19671.7	18758.05
896.3036	1578.6672	19510.8	18600.45
896.4461	1580.4409	19318.2	18413.8
896.5886	1582.2138	19203.85	18294.9
896.7311	1583.986	19019.3	18107.85
896.8736	1585.7575	18866.25	17953.8
897.0161	1587.5282	18739.15	17829.95
897.1585	1589.2981	18673.75	17765.25
897.3009	1591.0673	18528.7	17622.9
897.4433	1592.8358	18464.55	17556.1
897.5857	1594.6035	18430.7	17519.2
897.7281	1596.3704	18403.85	17492.45
897.8705	1598.1366	18330.1	17418.95
898.0128	1599.9021	18289.65	17378
898.1551	1601.6668	18248.35	17335.95
898.2975	1603.4308	18286.2	17372.65
898.4398	1605.194	18276.45	17360.45
898.5821	1606.9564	18317.7	17411.75
898.7243	1608.7182	18405.6	17500.35
898.8666	1610.4791	18493.75	17597.45
899.0088	1612.2394	18563.9	17667.85
899.1511	1613.9988	18698.85	17798.7
899.2933	1615.7576	18915.7	18012.7
899.4355	1617.5156	19085.35	18170.35
899.5776	1619.2728	19360.5	18449.75
899.7198	1621.0293	19466.4	18555.1
899.862	1622.785	19524.35	18616.45
900.0041	1624.54	19371.7	18465.7
900.1462	1626.2942	19223.6	18318.2
900.2883	1628.0477	18887	17978.6
900.4304	1629.8005	18570.85	17661.65
900.5725	1631.5525	18325.65	17421.75
900.7145	1633.3037	18076.5	17172.6
900.8566	1635.0542	17887.4	16983.5
900.9986	1636.804	17682.8	16778.85
901.1406	1638.553	17607.85	16633.05
901.2826	1640.3013	17443.7	16537.3
901.4245	1642.0488	17332.05	16422.6
901.5665	1643.7955	17283.4	16382.8
901.7085	1645.5416	17263.8	16361.8
901.8504	1647.2868	17273.3	16369.2
901.9923	1649.0313	17297	16391.25
902.1342	1650.7751	17432.45	16526.35
902.2761	1652.5181	17553.75	16651.55
902.4179	1654.2604	17706.05	16801.35
902.5598	1656.0019	17979.3	17077.8
902.7016	1657.7427	18327.45	17423.35
902.8434	1659.4828	18685.3	17780.85
902.9852	1661.222	18879.3	17973.25
903.127	1662.9606	18927.4	18021.75
903.2687	1664.6984	18739.45	17833.1
903.4105	1666.4354	18401.45	17491
903.5522	1668.1717	17923.8	17015.3
903.6939	1669.9072	17404.95	16496.9
903.8356	1671.642	17015.4	16106.15
903.9773	1673.3761	16665.1	15759.15
904.119	1675.1094	16399.55	15495.6
904.2606	1676.8419	16163.85	15259.4
904.4022	1678.5737	15997.6	15092
904.5439	1680.3048	15873.7	14967.65
904.6855	1682.0351	15718.9	14810.35
904.827	1683.7646	15621.75	14715.8
904.9686	1685.4934	15544.9	14640.25
905.1101	1687.2215	15456.45	14553.4
905.2517	1688.9488	15346.55	14444.3
905.3932	1690.6754	15272.1	14368.6
905.5347	1692.4012	15220.05	14317.95
905.6761	1694.1263	15176.15	14271.5
905.8176	1695.8506	15131.35	14224.85
905.9591	1697.5742	15048.65	14146.3
906.1005	1699.297	14999	14100.05
906.2419	1701.0191	14890.35	13993.45
906.3833	1702.7404	14834.35	13932.95
906.5246	1704.461	14771.55	13870.55
906.666	1706.1808	14697.7	13794.4
906.8073	1707.8999	14667.15	13767.75
906.9487	1709.6182	14630.7	13732.65
907.09	1711.3358	14541.35	13646.8
907.2313	1713.0527	14467	13572.55
907.3725	1714.7688	14449.15	13546.2
907.5138	1716.4841	14359.55	13458.9
907.655	1718.1987	14373.3	13467.7
907.7962	1719.9126	14305.25	13407.8
907.9374	1721.6257	14224.7	13325.25
908.0786	1723.338	14198.7	13302.45
908.2198	1725.0496	14119.15	13220.95
908.3609	1726.7605	14096.6	13198.35
908.502	1728.4706	14005.6	13109.75
908.6431	1730.18	13943.1	13043.6
908.7842	1731.8886	13914.35	13021.65
908.9253	1733.5964	13908.6	12991.5
909.0664	1735.3036	13827.5	12929
909.2074	1737.0099	13811.05	12913.5
909.3484	1738.7156	13789.65	12892.65
909.4894	1740.4204	13707.05	12806.4
909.6304	1742.1246	13692.25	12793
909.7714	1743.8279	13674.7	12776.45
909.9123	1745.5306	13644.15	12747.9
910.0532	1747.2325	13587.25	12692.65
910.1941	1748.9336	13524.75	12630.05
910.335	1750.634	13468.5	12571.3
910.4759	1752.3336	13449.8	12554.15
910.6168	1754.0325	13433.9	12541.4
910.7576	1755.7307	13373.35	12479.35
910.8984	1757.4281	13389.2	12494.6
911.0392	1759.1247	13353.75	12448.15
911.18	1760.8206	13331.05	12424.55
911.3208	1762.5158	13287.65	12384.95
911.4615	1764.2102	13250.6	12352.95
911.6022	1765.9039	13175.65	12281.25
911.7429	1767.5968	13179.1	12287.15
911.8836	1769.289	13136.95	12243.85
912.0243	1770.9804	13071.95	12176.6
912.1649	1772.6711	13070	12169.75
912.3056	1774.361	13019.2	12121.15
912.4462	1776.0502	12980.15	12082
912.5868	1777.7386	12952.1	12051.6
912.7274	1779.4263	12938.35	12043.35
912.8679	1781.1132	12911.2	12018.25
913.0084	1782.7994	12862	11968.8
913.149	1784.4849	12836.65	11945.2
913.2895	1786.1696	12789.5	11890.4
913.4299	1787.8535	12752.7	11862.55
913.5704	1789.5367	12711.3	11821.35
913.7108	1791.2192	12701.4	11809.2
913.8513	1792.9009	12651.5	11730.05
913.9917	1794.5818	12600.15	11700.15
914.132	1796.2621	12572.45	11677.05
914.2724	1797.9415	12590.35	11692.4
914.4128	1799.6202	12555.05	11661.65
914.5531	1801.2982	12513.75	11617.25
914.6934	1802.9755	12479.2	11583.5
914.8337	1804.6519	12465.05	11571.8
914.9739	1806.3277	12377.45	11484.05
915.1142	1808.0027	12341.1	11450.4
915.2544	1809.6769	12314.4	11422.75
915.3946	1811.3504	12286.4	11395.5
915.5348	1813.0231	12237.95	11346.4
915.675	1814.6951	12240.25	11348.4
915.8151	1816.3664	12237.95	11341.75
915.9553	1818.0369	12202.65	11309.55
916.0954	1819.7067	12166.55	11271.8
916.2355	1821.3757	12147.85	11253.7
916.3755	1823.044	12109.6	11215.2
916.5156	1824.7115	12089.75	11194.6
916.6556	1826.3783	11999.45	11105.95
916.7956	1828.0443	12002.7	11111.15
916.9356	1829.7096	11991.55	11096.35
917.0756	1831.3741	11945.35	11049.45
917.2155	1833.0379	11908.1	11014.8
917.3555	1834.701	11867.4	10975.8
917.4954	1836.3633	11857.4	10967.3
917.6353	1838.0248	11860.75	10965.45
917.7751	1839.6856	11806.7	10913.15
917.915	1841.3457	11779.75	10886.25
918.0548	1843.005	11759.8	10866.85
918.1946	1844.6636	11734.15	10841.65
918.3344	1846.3214	11678.6	10786.5
918.4742	1847.9785	11684.05	10794.25
918.6139	1849.6349	11636.7	10742.3
918.7537	1851.2904	11637.5	10734
918.8934	1852.9453	11607	10710.05
919.0331	1854.5994	11579.7	10681
919.1727	1856.2528	11591.05	10689.6
919.3124	1857.9054	11543.25	10649.05
919.452	1859.5572	11504.8	10612.15
919.5916	1861.2083	11483.3	10587.35
919.7312	1862.8587	11524.65	10630.1
919.8708	1864.5084	11452.6	10556.35
920.0103	1866.1572	11437.15	10541.6
920.1498	1867.8054	11372.6	10474.6
920.2893	1869.4528	11375.8	10480.35
920.4288	1871.0994	11305.7	10409.25
920.5683	1872.7453	11279.9	10386.75
920.7077	1874.3905	11276.5	10363.15
920.8471	1876.0349	11225.4	10330.25
920.9865	1877.6786	11205.35	10310
921.1259	1879.3215	11194.1	10299.7
921.2653	1880.9637	11167.2	10273.1
921.4046	1882.6051	11167.55	10274.65
921.5439	1884.2458	11105.7	10210.85
921.6832	1885.8858	11064.25	10170.7
921.8225	1887.525	11066.65	10170.3
921.9617	1889.1634	11008.1	10113.4
922.101	1890.8011	10970.65	10073.45
922.2402	1892.4381	10945.25	10051.25
922.3794	1894.0743	10951.7	10057.2
922.5185	1895.7098	10897.6	10004.2
922.6577	1897.3446	10898.25	10003
922.7968	1898.9786	10855.4	9957.05
922.9359	1900.6118	10810.35	9917.65
923.075	1902.2443	10772.45	9878.4
923.214	1903.8761	10744.5	9850.55
923.3531	1905.5071	10710.4	9817.95
923.4921	1907.1374	10685.65	9794.75
923.6311	1908.7669	10651.5	9759.3
923.77	1910.3957	10633.6	9742
923.909	1912.0237	10574.25	9682.25
924.0479	1913.651	10555.5	9663.15
924.1868	1915.2776	10520.55	9627.55
924.3257	1916.9034	10471.5	9581.7
924.4646	1918.5285	10418.75	9529.15
924.6034	1920.1528	10387.3	9492.85
924.7422	1921.7764	10383.2	9491.1
924.881	1923.3992	10350.2	9460.1
925.0198	1925.0213	10271.15	9376.7
925.1586	1926.6427	10249.2	9357.8
925.2973	1928.2633	10271.85	9310.9
925.436	1929.8832	10185.45	9288.75
925.5747	1931.5023	10181	9289.25
925.7134	1933.1207	10130.2	9240.7
925.852	1934.7383	10118.95	9228
925.9906	1936.3552	10056.3	9164.6
926.1292	1937.9714	10025	9133.5
926.2678	1939.5868	10013.25	9120.25
926.4064	1941.2015	9951.55	9058.95
926.5449	1942.8154	9922.6	9028.9
926.6834	1944.4286	9875.3	8980.85
926.8219	1946.041	9852.65	8939.25
926.9604	1947.6528	9789.55	8890.05
927.0988	1949.2637	9771.6	8878.5
927.2372	1950.8739	9764.6	8874.45
927.3756	1952.4834	9716.6	8827.15
927.514	1954.0921	9722.25	8831.75
927.6523	1955.7001	9662.6	8769.2
927.7907	1957.3074	9631.35	8742.55
927.929	1958.9139	9595.3	8708.7
928.0673	1960.5197	9576.15	8686.6
928.2055	1962.1247	9523.35	8634.75
928.3438	1963.729	9486.3	8599.65
928.482	1965.3325	9473.25	8561.9
928.6202	1966.9353	9427.35	8539.15
928.7584	1968.5374	9375.3	8485.2
928.8965	1970.1387	9359.7	8471.35
929.0346	1971.7393	9313.1	8423.9
929.1727	1973.3392	9315.1	8427.45
929.3108	1974.9383	9264.3	8377.2
929.4489	1976.5366	9245.45	8358.1
929.5869	1978.1342	9231.3	8343.5
929.7249	1979.7311	9228.05	8340.15
929.8629	1981.3273	9186.85	8298.45
930.0009	1982.9227	9145	8258.6
930.1388	1984.5173	9093.9	8207.65
930.2767	1986.1112	9058.95	8173.3
930.4146	1987.7044	9057.2	8170.85
930.5525	1989.2968	9016.15	8128.1
930.6904	1990.8885	9007.75	8118.25
930.8282	1992.4795	8999.05	8114.25
930.966	1994.0697	8934.05	8052.1
931.1038	1995.6592	8920	8033.8
931.2415	1997.2479	8906.65	8021.25
931.3793	1998.8359	8859.7	7972.95
931.517	2000.4232	8837.6	7952.65
931.6547	2002.0097	8807.35	7924.9
931.7923	2003.5955	8766.5	7883.25
931.93	2005.1805	8786.05	7899.95
932.0676	2006.7648	8733.75	7848.85
932.2052	2008.3484	8715.65	7831.3
932.3427	2009.9312	8718.95	7833.05
932.4803	2011.5133	8680.95	7798.05
932.6178	2013.0946	8646.1	7763.2
932.7553	2014.6752	8605.6	7723.15
932.8928	2016.2551	8615	7729.3
933.0302	2017.8342	8576.85	7692.65
933.1676	2019.4126	8556.85	7674.15
933.305	2020.9902	8511.9	7628.9
933.4424	2022.5672	8501.6	7617.75
933.5798	2024.1433	8473.95	7585.3
933.7171	2025.7188	8446.85	7566.4
933.8544	2027.2935	8425.5	7542.05
933.9917	2028.8674	8401.95	7522.7
934.129	2030.4406	8357.25	7477.65
934.2662	2032.0131	8331.65	7451.65
934.4034	2033.5849	8287.8	7401.8
934.5406	2035.1559	8283.7	7403
934.6778	2036.7261	8260.85	7378.25
934.8149	2038.2957	8242.65	7357.3
934.952	2039.8645	8241.05	7353.65
935.0891	2041.4325	8249.15	7361.5
935.2262	2042.9998	8209.1	7325.85
935.3632	2044.5664	8168.65	7284.65
935.5002	2046.1323	8162.45	7282.15
935.6372	2047.6974	8118.45	7237.6
935.7742	2049.2617	8110.2	7229.1
935.9111	2050.8254	8092.55	7205.55
936.048	2052.3883	8080.7	7193.5
936.1849	2053.9504	8052.4	7167.75
936.3218	2055.5118	8020.05	7135.5
936.4586	2057.0725	7993.35	7106.6
936.5955	2058.6325	7988.3	7104.55
936.7323	2060.1917	7952	7071.25
936.869	2061.7502	7922.65	7037.5
937.0058	2063.3079	7895.8	7012.35
937.1425	2064.8649	7874	6987.45
937.2792	2066.4212	7864.45	6980.45
937.4159	2067.9767	7838.2	6955.25
937.5525	2069.5315	7789.9	6904.75
937.6891	2071.0856	7768.3	6884.35
937.8257	2072.6389	7759.95	6875.7
937.9623	2074.1915	7715.25	6834.95
938.0989	2075.7433	7674.95	6791.05
938.2354	2077.2945	7674.9	6791.65
938.3719	2078.8448	7627.55	6743.1
938.5084	2080.3945	7623.7	6738.5
938.6448	2081.9434	7585.95	6702.4
938.7812	2083.4916	7570.05	6683.05
938.9176	2085.039	7576.7	6687.85
939.054	2086.5857	7568.6	6676.75
939.1903	2088.1317	7541.6	6651.75
939.3267	2089.677	7512.3	6623.2
939.463	2091.2215	7491.7	6602.15
939.5992	2092.7652	7457.2	6567.2
939.7355	2094.3083	7435.8	6546.1
939.8717	2095.8506	7432.15	6543.7
940.0079	2097.3921	7410.85	6524
940.1441	2098.933	7400	6512.55
940.2802	2100.4731	7389.15	6502.6
940.4163	2102.0124	7407.25	6513.35
940.5524	2103.5511	7371.7	6484.15
940.6885	2105.089	7359.9	6472.05
940.8245	2106.6261	7315.95	6430.2
940.9606	2108.1626	7304.4	6418.5
941.0965	2109.6983	7300.75	6388.6
941.2325	2111.2332	7266.3	6378.05
941.3684	2112.7675	7232.05	6343.55
941.5044	2114.301	7236.7	6346.05
941.6403	2115.8337	7212.65	6324
941.7761	2117.3657	7182.7	6295
941.912	2118.897	7177	6290.2
942.0478	2120.4276	7145.25	6250.6
942.1835	2121.9575	7117.25	6228.3
942.3193	2123.4866	7141.35	6240.2
942.455	2125.0149	7118	6227.7
942.5907	2126.5426	7075.55	6190.4
942.7264	2128.0695	7062.8	6174.8
942.8621	2129.5956	7039.9	6157.6
942.9977	2131.1211	7042.2	6153.6
943.1333	2132.6458	7021.75	6137.5
943.2689	2134.1698	6993.3	6104.6
943.4044	2135.693	6970.5	6078.85
943.54	2137.2155	6950.35	6060.1
943.6755	2138.7373	6940.3	6054.35
943.8109	2140.2584	6906.55	6023.7
943.9464	2141.7787	6897.85	6007.75
944.0818	2143.2983	6866.35	5985.4
944.2172	2144.8171	6824.65	5943.1
944.3526	2146.3353	6801.75	5917.3
944.4879	2147.8527	6821.95	5936.65
944.6232	2149.3693	6814.25	5926.5
944.7585	2150.8853	6777.6	5888.1
944.8938	2152.4005	6750	5863.15
945.029	2153.9149	6754.9	5865.5
945.1642	2155.4287	6824.35	5821.95
945.2994	2156.9417	6717.95	5828.3
945.4346	2158.454	6702.3	5815.15
945.5697	2159.9655	6675.3	5791.25
945.7048	2161.4764	6659.75	5775.9
945.8399	2162.9865	6645.8	5761.8
945.9749	2164.4958	6648.9	5761
946.1099	2166.0045	6607.9	5720.05
946.2449	2167.5124	6582.95	5698.85
946.3799	2169.0195	6560.9	5673.05
946.5148	2170.526	6556.45	5667.7
946.6498	2172.0317	6553.75	5666.8
946.7846	2173.5367	6525.95	5639.3
946.9195	2175.0409	6501.65	5615.9
947.0543	2176.5445	6501.85	5611.5
947.1891	2178.0473	6463.95	5575.8
947.3239	2179.5494	6450.55	5557.35
947.4587	2181.0507	6424.1	5537.05
947.5934	2182.5513	6393.35	5506.3
947.7281	2184.0512	6381.85	5495.85
947.8628	2185.5504	6379	5493.6
947.9974	2187.0488	6338.2	5453.1
948.132	2188.5465	6321.25	5435.55
948.2666	2190.0435	6305	5418.55
948.4012	2191.5397	6286.75	5400.3
948.5357	2193.0353	6285.9	5399.15
948.6702	2194.5301	6247.4	5358.9
948.8047	2196.0241	6224.7	5335.8
948.9392	2197.5175	6209.05	5320.15
949.0736	2199.0101	6200.95	5309.55
949.208	2200.502	6166.25	5279.35
949.3424	2201.9931	6142.8	5258.15
949.4767	2203.4835	6126.75	5238.75
949.611	2204.9733	6104.25	5213.6
949.7453	2206.4622	6095.6	5211.6
949.8796	2207.9505	6075	5188.45
950.0138	2209.438	6063.6	5182.65
950.148	2210.9248	6041.05	5154.5
950.2822	2212.4109	6023.45	5137.45
950.4164	2213.8962	5984.65	5093.35
950.5505	2215.3809	5976.7	5086.05
950.6846	2216.8648	5978.8	5087.3
950.8186	2218.3479	5949.75	5055.2
950.9527	2219.8304	5936.95	5041.65
951.0867	2221.3121	5907.35	5012.85
951.2207	2222.7931	5900.35	5009.45
951.3546	2224.2733	5895.1	5007.6
951.4886	2225.7529	5843.1	4952.2
951.6225	2227.2317	5827.15	4938.2
951.7563	2228.7098	5807.5	4922
951.8902	2230.1872	5782.55	4898.6
952.024	2231.6638	5774.05	4892.4
952.1578	2233.1397	5795.5	4905.6
952.2916	2234.6149	5761.85	4877.65
952.4253	2236.0894	5723.05	4836.45
952.559	2237.5632	5726.85	4836.65
952.6927	2239.0362	5715.8	4829.25
952.8263	2240.5085	5691.75	4806.2
952.9599	2241.9801	5652.15	4764.05
953.0935	2243.4509	5652.2	4764.7
953.2271	2244.921	5636.4	4746.25
953.3606	2246.3904	5620.45	4728.95
953.4941	2247.8591	5592.5	4705.25
953.6276	2249.3271	5601.3	4710.5
953.7611	2250.7943	5550.8	4659.55
953.8945	2252.2608	5542.05	4652.45
954.0279	2253.7266	5522.65	4634.1
954.1612	2255.1917	5511.45	4624.15
954.2946	2256.656	5513.7	4626.8
954.4279	2258.1197	5477.95	4594.95
954.5612	2259.5826	5473.4	4585.1
954.6944	2261.0447	5466.2	4578.7
954.8276	2262.5062	5435.6	4545.95
954.9608	2263.9669	5435.35	4543.2
955.094	2265.4269	5417.95	4528.75
955.2271	2266.8862	5418	4531.55
955.3602	2268.3448	5389.7	4503.05
955.4933	2269.8026	5393.25	4507.75
955.6264	2271.2598	5361.65	4473.7
955.7594	2272.7162	5355.4	4470.45
955.8924	2274.1719	5333.6	4443.6
956.0253	2275.6268	5314.75	4426
956.1583	2277.0811	5304.55	4414
956.2912	2278.5346	5291.8	4404.2
956.4241	2279.9874	5298.55	4416.15
956.5569	2281.4395	5280.1	4394.65
956.6897	2282.8908	5266.9	4375.85
956.8225	2284.3414	5266.55	4377
956.9553	2285.7914	5243.45	4356.1
957.088	2287.2406	5209.7	4318.9
957.2207	2288.689	5203.9	4313.05
957.3534	2290.1368	5193.7	4298.25
957.486	2291.5838	5184	4291.5
957.6186	2293.0302	5183.95	4290.3
957.7512	2294.4758	5148.15	4257.45
957.8838	2295.9206	5144.4	4255.5
958.0163	2297.3648	5116.85	4229.85
958.1488	2298.8082	5109.7	4220.85
958.2813	2300.251	5084.15	4193.35
958.4137	2301.693	5097.7	4205.85
958.5461	2303.1343	5086.1	4195.55
958.6785	2304.5748	5055.25	4167.8
958.8108	2306.0147	5038.85	4153.2
958.9432	2307.4538	5036.45	4148.05
959.0754	2308.8922	5028.1	4145.8
959.2077	2310.3299	4997.15	4113.95
959.3399	2311.7669	4999.75	4114
959.4721	2313.2031	4959.05	4071.8
959.6043	2314.6387	4929.15	4039.8
959.7365	2316.0735	4942.1	4053.85
959.8686	2317.5076	4926.7	4036.8
960.0006	2318.941	4909.2	4017.8
960.1327	2320.3737	4891.25	3998.75
960.2647	2321.8056	4889.9	3998.9
960.3967	2323.2369	4879.15	3988.5
960.5287	2324.6674	4876.7	3987.15
960.6606	2326.0972	4857.55	3967.25
960.7925	2327.5263	4836.8	3949.25
960.9244	2328.9547	4823.35	3936.2
961.0562	2330.3823	4819.7	3929.75
961.1881	2331.8092	4811.85	3918.5
961.3198	2333.2355	4799.55	3906.15
961.4516	2334.661	4779.65	3890.2
961.5833	2336.0858	4762.1	3869.1
961.715	2337.5098	4754	3865.65
961.8467	2338.9332	4738.9	3850.7
961.9783	2340.3558	4741.8	3849.2
962.1099	2341.7778	4705.35	3818.05
962.2415	2343.199	4702.5	3813.4
962.373	2344.6195	4682.75	3795.55
962.5045	2346.0393	4657.1	3771.05
962.636	2347.4583	4675.9	3788.5
962.7675	2348.8767	4653.7	3762.3
962.8989	2350.2943	4649.25	3758.1
963.0303	2351.7113	4626.55	3734.25
963.1617	2353.1275	4623.75	3732
963.293	2354.543	4630.85	3713.85
963.4243	2355.9578	4608.35	3718.05
963.5556	2357.3718	4572.15	3684.9
963.6868	2358.7852	4563.4	3673.15
963.818	2360.1978	4539.5	3652
963.9492	2361.6098	4539	3650.85
964.0803	2363.021	4528.95	3638.2
964.2114	2364.4315	4506.65	3617.1
964.3425	2365.8413	4487.15	3592.55
964.4736	2367.2504	4487.9	3601.7
964.6046	2368.6587	4452.25	3567.55
964.7356	2370.0664	4454.45	3568.15
964.8666	2371.4733	4444.15	3555.65
964.9975	2372.8795	4431.8	3542.9
965.1284	2374.285	4399.65	3511.55
965.2593	2375.6899	4370.35	3484.8
965.3901	2377.0939	4367.2	3480.1
965.5209	2378.4973	4353.5	3466.05
965.6517	2379.9	4342.85	3456.4
965.7825	2381.3019	4320.1	3432.7
965.9132	2382.7032	4318.5	3432
966.0439	2384.1037	4303.95	3421.4
966.1745	2385.5035	4297.8	3412.55
966.3051	2386.9027	4282.2	3397.1
966.4357	2388.3011	4278.5	3390.1
966.5663	2389.6987	4286.2	3400.95
966.6968	2391.0957	4248.2	3363.1
966.8273	2392.492	4225.85	3340.8
966.9578	2393.8876	4208.3	3321.2
967.0882	2395.2824	4201.5	3316.9
967.2186	2396.6765	4189.1	3303.35
967.349	2398.07	4172.75	3285.8
967.4793	2399.4627	4164.25	3276.25
967.6097	2400.8547	4158.8	3272.25
967.7399	2402.246	4155.85	3262.75
967.8702	2403.6366	4114.85	3227.95
968.0004	2405.0265	4098.15	3211.25
968.1306	2406.4156	4082.45	3191.65
968.2607	2407.8041	4089.65	3198.3
968.3909	2409.1918	4076.9	3188.75
968.521	2410.5789	4063.2	3174.15
968.651	2411.9652	4034.65	3143.95
968.781	2413.3508	4042	3157.3
968.911	2414.7358	4029.7	3142.5
969.041	2416.12	4023.15	3137.8
969.1709	2417.5035	3998.65	3112.25
969.3008	2418.8863	3984.7	3095.95
969.4307	2420.2684	3969.25	3082.15
969.5606	2421.6497	3956.45	3066.2
969.6904	2423.0304	3945.9	3059.55
969.8201	2424.4104	3935	3047.7
969.9499	2425.7896	3920.05	3031.45
970.0796	2427.1682	3922.05	3036.75
970.2093	2428.546	3906.7	3019.3
970.3389	2429.9232	3887.2	2999.1
970.4685	2431.2996	3898.75	3010
970.5981	2432.6753	3880.7	2991.45
970.7277	2434.0503	3872.2	2984.75
970.8572	2435.4246	3854.1	2967.2
970.9867	2436.7982	3845.65	2954.5
971.1161	2438.1711	3842	2956.45
971.2456	2439.5433	3833.1	2944.25
971.375	2440.9148	3823.15	2930.75
971.5043	2442.2856	3794.7	2906.7
971.6336	2443.6557	3800.1	2911.95
971.7629	2445.025	3781.6	2893.7
971.8922	2446.3937	3759.95	2871.8
972.0214	2447.7617	3764.65	2875.45
972.1506	2449.1289	3757.7	2869.55
972.2798	2450.4955	3748.8	2859.75
972.4089	2451.8613	3736.3	2849.15
972.538	2453.2265	3720.45	2833.6
972.6671	2454.5909	3714.75	2825.35
972.7961	2455.9546	3703.9	2818.3
972.9251	2457.3177	3708.3	2821.35
973.0541	2458.68	3703.55	2815.1
973.1831	2460.0416	3697	2810.75
973.312	2461.4025	3679.8	2789.9
973.4408	2462.7627	3678.8	2780
973.5697	2464.1222	3661.6	2775.5
973.6985	2465.4811	3653.55	2767.25
973.8273	2466.8392	3643.35	2757.55
973.956	2468.1966	3643.95	2754.6
974.0847	2469.5533	3641.55	2751.35
974.2134	2470.9093	3632.25	2743.9
974.3421	2472.2645	3628.55	2739.45
974.4707	2473.6191	3610.55	2723.7
974.5993	2474.973	3599.5	2712.55
974.7278	2476.3262	3592.35	2703.35
974.8563	2477.6787	3573.2	2688.7
974.9848	2479.0305	3564	2678.4
975.1132	2480.3816	3563.45	2675.1
975.2417	2481.7319	3555.45	2666.95
975.37	2483.0816	3536.55	2649.15
975.4984	2484.4306	3524.05	2636.45
975.6267	2485.7789	3510.1	2625.85
975.755	2487.1264	3488.5	2602.05
975.8833	2488.4733	3494.3	2610.75
976.0115	2489.8195	3486.25	2594.25
976.1397	2491.165	3471.85	2580.65
976.2678	2492.5097	3458.05	2568.95
976.3959	2493.8538	3445.65	2559.65
976.524	2495.1972	3423.55	2535.6
976.6521	2496.5398	3419.9	2531.55
976.7801	2497.8818	3420.1	2530.95
976.9081	2499.2231	3418.5	2529.35
977.036	2500.5637	3392.15	2502.6
977.164	2501.9035	3387.35	2498.8
977.2918	2503.2427	3382.85	2493.65
977.4197	2504.5812	3378.4	2493.3
977.5475	2505.919	3369.9	2481.05
977.6753	2507.256	3379.4	2492.05
977.8031	2508.5924	3349.75	2462.95
977.9308	2509.9281	3348.5	2454.85
978.0585	2511.2631	3326.8	2439.75
978.1861	2512.5974	3328.75	2441.35
978.3137	2513.9309	3314.7	2427.35
978.4413	2515.2638	3327.4	2414.75
978.5689	2516.596	3300.4	2413.55
978.6964	2517.9275	3288	2397.55
978.8239	2519.2583	3282.8	2398.15
978.9513	2520.5884	3268.6	2380.45
979.0788	2521.9178	3250.15	2363.5
979.2062	2523.2465	3249.8	2363.35
979.3335	2524.5745	3234.75	2346.75
979.4608	2525.9018	3228.5	2342.45
979.5881	2527.2284	3216.2	2330.3
979.7154	2528.5543	3213.1	2326.3
979.8426	2529.8796	3211.8	2323.3
979.9698	2531.2041	3209.55	2322.75
980.0969	2532.5279	3202.95	2317.65
980.224	2533.851	3192.15	2306.3
980.3511	2535.1735	3185.35	2296.65
980.4781	2536.4952	3189.15	2301.7
980.6052	2537.8163	3179.05	2290.9
980.7321	2539.1366	3170.45	2285
980.8591	2540.4562	3161.1	2270.6
980.986	2541.7752	3158.75	2269.95
981.1129	2543.0935	3141.25	2251.7
981.2397	2544.411	3143.6	2254.45
981.3665	2545.7279	3128.8	2240.65
981.4933	2547.0441	3140.6	2253.35
981.62	2548.3596	3124.8	2234.2
981.7467	2549.6744	3127.25	2238.9
981.8734	2550.9885	3110.2	2213.6
982.0001	2552.3019	3105.25	2216.45
982.1267	2553.6146	3100.35	2210.45
982.2532	2554.9266	3096.15	2208.25
982.3798	2556.2379	3072.9	2183.45
982.5063	2557.5485	3091.1	2203.55
982.6327	2558.8585	3073.8	2179.1
982.7592	2560.1677	3067.35	2175.05
982.8856	2561.4762	3064.35	2173.75
983.0119	2562.7841	3058.4	2165.45
983.1383	2564.0913	3052.2	2164.2
983.2646	2565.3977	3045.65	2157.1
983.3908	2566.7035	3033.45	2145.75
983.517	2568.0086	3051.15	2161.8
983.6432	2569.313	3025.25	2136.35
983.7694	2570.6167	3023.7	2132.5
983.8955	2571.9197	3020.65	2133.05
984.0216	2573.222	3018.35	2126.25
984.1476	2574.5236	3016.4	2128.15
984.2737	2575.8246	3006.2	2112.4
984.3996	2577.1248	2997.5	2104.5
984.5256	2578.4244	2997.05	2108.65
984.6515	2579.7232	2994.65	2105.5
984.7774	2581.0214	3014.55	2096.3
984.9032	2582.3189	2983.6	2096.85
985.029	2583.6157	2987.4	2093.5
985.1548	2584.9118	2968.95	2081.65
985.2806	2586.2072	2974.3	2086.6
985.4063	2587.5019	2979.8	2089.5
985.5319	2588.7959	2964.6	2074.05
985.6576	2590.0893	2965.25	2073.85
985.7832	2591.3819	2961.55	2073.65
985.9087	2592.6739	2944.45	2057.05
986.0343	2593.9652	2942.2	2052
986.1597	2595.2557	2940.05	2051.8
986.2852	2596.5456	2940.6	2049.55
986.4106	2597.8348	2924.35	2036.35
986.536	2599.1234	2918.4	2032.9
986.6614	2600.4112	2914.4	2027.45
986.7867	2601.6983	2901.15	2010.3
986.912	2602.9848	2891.65	2001.75
987.0372	2604.2705	2893	1996.75
987.1624	2605.5556	2888.4	2001.2
987.2876	2606.84	2888.2	1999.5
987.4128	2608.1237	2877.25	1989.05
987.5379	2609.4067	2867.75	1977.35
987.6629	2610.689	2867.65	1970.3
987.788	2611.9707	2857.65	1966.5
987.913	2613.2516	2862.4	1970.1
988.0379	2614.5319	2834.55	1946.65
988.1629	2615.8115	2831.85	1942.65
988.2878	2617.0903	2812.9	1922.95
988.4126	2618.3685	2808.65	1921.6
988.5375	2619.6461	2803.55	1914.75
988.6622	2620.9229	2798.75	1911.25
988.787	2622.199	2801.1	1910.45
988.9117	2623.4745	2794.4	1905.25
989.0364	2624.7493	2788.95	1901.05
989.161	2626.0234	2774.7	1888.6
989.2857	2627.2968	2773	1884.4
989.4102	2628.5695	2764.85	1876.05
989.5348	2629.8415	2762.65	1875.45
989.6593	2631.1128	2756	1868.9
989.7837	2632.3835	2750.7	1864.6
989.9082	2633.6535	2733.05	1845.2
990.0326	2634.9228	2722.45	1834.5
990.1569	2636.1914	2719.45	1832.5
990.2812	2637.4593	2725.05	1835.7
990.4055	2638.7265	2719.55	1831.3
990.5298	2639.9931	2712.85	1825.95
990.654	2641.259	2708.1	1817.5
990.7782	2642.5242	2685.55	1796.8
990.9023	2643.7887	2681.7	1793.55
991.0264	2645.0525	2686.6	1800.25
991.1505	2646.3156	2691.85	1788.35
991.2745	2647.5781	2664.55	1776.3
991.3985	2648.8398	2667.35	1780
991.5225	2650.1009	2677.45	1764.5
991.6464	2651.3613	2659.9	1769.35
991.7703	2652.6211	2648.65	1760.15
991.8942	2653.8801	2632.65	1746.35
992.018	2655.1385	2635.55	1743.75
992.1418	2656.3961	2631.05	1744.5
992.2655	2657.6531	2636.1	1749.6
992.3892	2658.9094	2631	1743.15
992.5129	2660.1651	2622.95	1736.9
992.6366	2661.42	2621.95	1734.2
992.7602	2662.6743	2619.6	1730.55
992.8837	2663.9279	2624.3	1737.55
993.0073	2665.1808	2612.15	1724.9
993.1307	2666.433	2609.6	1722.9
993.2542	2667.6846	2597.2	1711.35
993.3776	2668.9354	2600.55	1707.95
993.501	2670.1856	2592.05	1703.25
993.6244	2671.4351	2584.65	1698.2
993.7477	2672.6839	2599.7	1710.25
993.8709	2673.9321	2598.35	1711.7
993.9942	2675.1795	2597.4	1710
994.1174	2676.4263	2592.35	1705.4
994.2405	2677.6724	2586.25	1698.9
994.3637	2678.9179	2588.3	1701.3
994.4868	2680.1626	2583.5	1695
994.6098	2681.4067	2566.95	1676.35
994.7328	2682.6501	2577.7	1689.2
994.8558	2683.8928	2561.75	1673.7
994.9788	2685.1348	2551.55	1665.35
995.1017	2686.3761	2546.8	1660
995.2245	2687.6168	2537.85	1650.9
995.3474	2688.8568	2533.05	1645.6
995.4702	2690.0961	2528.5	1642.75
995.5929	2691.3348	2516.55	1629.95
995.7156	2692.5727	2513.05	1625.6
995.8383	2693.81	2507.7	1620.85
995.961	2695.0466	2503.45	1617.75
996.0836	2696.2826	2493.45	1604.95
996.2062	2697.5178	2492.85	1601
996.3287	2698.7524	2483.25	1594.05
996.4512	2699.9863	2493.65	1604.75
996.5737	2701.2195	2480.45	1593.6
996.6961	2702.452	2483.15	1593.2
996.8185	2703.6839	2493.65	1604.1
996.9408	2704.9151	2475.1	1588.5
997.0631	2706.1456	2475.3	1585.7
997.1854	2707.3755	2486	1598.15
997.3077	2708.6046	2482.7	1591.65
997.4299	2709.8331	2487.2	1600.5
997.552	2711.0609	2479.85	1593.3
997.6742	2712.2881	2491.75	1605
997.7963	2713.5145	2489.8	1599.9
997.9183	2714.7403	2502.1	1616.35
998.0403	2715.9654	2506.05	1618.9
998.1623	2717.1899	2526.1	1625.1
998.2842	2718.4136	2521	1632.9
998.4062	2719.6367	2528.8	1642.4
998.528	2720.8591	2539.65	1648.1
998.6498	2722.0809	2525.15	1638.85
998.7716	2723.3019	2545.15	1655.2
998.8934	2724.5223	2544.25	1656.15
999.0151	2725.7421	2542.65	1654.6
999.1368	2726.9611	2537.85	1649.4
999.2584	2728.1795	2548.3	1658.5
999.38	2729.3972	2536.35	1650.65
999.5016	2730.6142	2522.4	1623.1
999.6231	2731.8306	2494.35	1605.75
999.7446	2733.0462	2486.95	1598.5
999.8661	2734.2612	2455.95	1561.65
999.9875	2735.4756	2432.25	1545.2
1000.1089	2736.6892	2410	1524.2
1000.2302	2737.9022	2397.1	1514.5
1000.3515	2739.1145	2381.15	1496.25
1000.4728	2740.3262	2359.65	1464.7
1000.594	2741.5372	2347.5	1461.15
1000.7152	2742.7475	2328.6	1442.6
1000.8363	2743.9571	2325.45	1438.4
1000.9575	2745.1661	2309.95	1419.5
1001.0785	2746.3744	2303.75	1416.95
1001.1996	2747.582	2287.5	1401.8
1001.3206	2748.7889	2267.15	1379.2
1001.4415	2749.9952	2265.3	1381.2
1001.5625	2751.2008	2254.7	1367.2
1001.6833	2752.4057	2246.2	1360.45
1001.8042	2753.61	2238.65	1353
1001.925	2754.8136	2239	1353.1
1002.0458	2756.0165	2235.35	1350.4
1002.1665	2757.2188	2223	1338.15
1002.2872	2758.4204	2228.7	1343.15
1002.4078	2759.6213	2224.1	1335.45
1002.5285	2760.8215	2221.9	1332.45
1002.649	2762.0211	2204.6	1317.05
1002.7696	2763.22	2214.75	1325.2
1002.8901	2764.4182	2204.7	1318.35
1003.0106	2765.6158	2192.75	1308.65
1003.131	2766.8127	2188	1301.7
1003.2514	2768.009	2180.8	1295.55
1003.3717	2769.2045	2183.35	1295.8
1003.492	2770.3994	2172.75	1284.2
1003.6123	2771.5936	2159.2	1272.3
1003.7325	2772.7872	2152.1	1267.05
1003.8527	2773.9801	2153.95	1266.75
1003.9729	2775.1723	2168.5	1266.25
1004.093	2776.3639	2155.55	1269.65
1004.2131	2777.5548	2146.75	1257.9
1004.3331	2778.745	2145.6	1257.95
1004.4531	2779.9346	2140.4	1254.35
1004.5731	2781.1235	2133.85	1249
1004.693	2782.3117	2138.75	1254.6
1004.8129	2783.4992	2147.8	1263.9
1004.9328	2784.6861	2127.85	1243.8
1005.0526	2785.8723	2145.8	1258.1
1005.1723	2787.0579	2139.95	1256.15
1005.2921	2788.2428	2149.7	1264.85
1005.4118	2789.427	2152.7	1268.85
1005.5314	2790.6106	2163.25	1276.55
1005.651	2791.7935	2167.7	1278.8
1005.7706	2792.9757	2171.25	1288.55
1005.8902	2794.1573	2190.1	1302.9
1006.0097	2795.3382	2197.55	1312.6
1006.1291	2796.5184	2211.8	1328.35
1006.2485	2797.698	2223.8	1336.85
1006.3679	2798.8769	2234.1	1349
1006.4873	2800.0551	2251.05	1367.4
1006.6066	2801.2327	2273.05	1386.9
1006.7258	2802.4096	2274.2	1390.7
1006.8451	2803.5859	2292.5	1406.8
1006.9642	2804.7615	2314.05	1428.8
1007.0834	2805.9364	2341.9	1458.35
1007.2025	2807.1106	2362.35	1479.5
1007.3216	2808.2842	2399.2	1515.15
1007.4406	2809.4572	2426.1	1541.75
1007.5596	2810.6294	2461.65	1577.2
1007.6785	2811.801	2504.9	1619.7
1007.7975	2812.972	2540.4	1659
1007.9163	2814.1423	2578.9	1694.55
1008.0352	2815.3119	2625.75	1740.2
1008.154	2816.4808	2675.8	1793.15
1008.2727	2817.6491	2725.15	1839.6
1008.3914	2818.8167	2763.65	1880.25
1008.5101	2819.9837	2817.95	1928.65
1008.6288	2821.15	2853.55	1968.7
1008.7474	2822.3157	2915.3	2030.55
1008.8659	2823.4807	2936.95	2051.6
1008.9844	2824.645	2980.3	2094.6
1009.1029	2825.8086	3018.3	2136.85
1009.2214	2826.9716	3052.45	2169.45
1009.3398	2828.134	3086.35	2204.55
1009.4581	2829.2957	3117.25	2231.7
1009.5764	2830.4567	3147.25	2261.8
1009.6947	2831.617	3171.95	2289
1009.813	2832.7767	3178.25	2294.3
1009.9312	2833.9358	3169.35	2283.95
1010.0493	2835.0941	3159.45	2273.35
1010.1675	2836.2519	3155.95	2272.05
1010.2855	2837.4089	3132.2	2249.55
1010.4036	2838.5653	3135.6	2250.5
1010.5216	2839.7211	3131.95	2250.15
1010.6396	2840.8761	3133.15	2248.95
1010.7575	2842.0306	3162	2279.1
1010.8754	2843.1843	3198.5	2315.6
1010.9932	2844.3374	3242.9	2357.25
1011.111	2845.4899	3314.65	2428
1011.2288	2846.6417	3385.85	2502.6
1011.3465	2847.7928	3461.95	2579.15
1011.4642	2848.9433	3544.7	2661.55
1011.5818	2850.0931	3612.9	2727.8
1011.6995	2851.2422	3694.15	2808
1011.817	2852.3907	3775.7	2890.5
1011.9345	2853.5385	3828	2942.7
1012.052	2854.6857	3886.2	2995
1012.1695	2855.8323	3928.75	3045
1012.2869	2856.9781	3974.7	3089.3
1012.4042	2858.1233	4027.3	3144.35
1012.5216	2859.2679	4087.85	3203.75
1012.6389	2860.4118	4115.95	3230.4
1012.7561	2861.555	4154.8	3265.65
1012.8733	2862.6976	4178.55	3293.8
1012.9905	2863.8395	4223.9	3340.05
1013.1076	2864.9808	4241	3357
1013.2247	2866.1214	4242.75	3362.25
1013.3417	2867.2614	4247.95	3364.75
1013.4587	2868.4007	4265.5	3379.05
1013.5757	2869.5393	4275.9	3391.05
1013.6926	2870.6773	4290.15	3402.45
1013.8095	2871.8146	4310.8	3423.7
1013.9263	2872.9513	4303	3417.1
1014.0431	2874.0874	4291.25	3408.75
1014.1599	2875.2227	4276.5	3393.45
1014.2766	2876.3574	4261.3	3378.15
1014.3933	2877.4915	4219.85	3336.2
1014.51	2878.6249	4208	3326
1014.6266	2879.7577	4184	3300.7
1014.7431	2880.8898	4165.1	3270.8
1014.8596	2882.0212	4130.4	3246.2
1014.9761	2883.152	4123.6	3240.2
1015.0925	2884.2821	4099.7	3217.8
1015.2089	2885.4116	4102.2	3218.85
1015.3253	2886.5405	4093.6	3210.45
1015.4416	2887.6686	4107.85	3221.35
1015.5579	2888.7962	4108.65	3226.3
1015.6741	2889.923	4099.85	3218
1015.7903	2891.0493	4115.9	3234.2
1015.9065	2892.1748	4121.95	3238.8
1016.0226	2893.2997	4132.85	3248.85
1016.1387	2894.424	4148.45	3264.9
1016.2547	2895.5476	4172.7	3288.5
1016.3707	2896.6706	4179.6	3298.1
1016.4866	2897.7929	4222.5	3338.75
1016.6025	2898.9145	4246.95	3362.95
1016.7184	2900.0355	4269.15	3383.6
1016.8342	2901.1559	4300.25	3417.45
1016.95	2902.2756	4325.95	3444.5
1017.0658	2903.3946	4350.8	3468.85
1017.1815	2904.513	4382.55	3496.05
1017.2971	2905.6308	4406.8	3523.65
1017.4127	2906.7479	4423.7	3539.6
1017.5283	2907.8643	4467.75	3581.95
1017.6439	2908.9801	4467.05	3582.5
1017.7594	2910.0953	4457.75	3574.05
1017.8748	2911.2098	4461.7	3575.6
1017.9902	2912.3236	4445.75	3553.75
1018.1056	2913.4368	4446.5	3559.25
1018.2209	2914.5494	4433.75	3552
1018.3362	2915.6613	4401.2	3512.5
1018.4515	2916.7725	4369.3	3484.15
1018.5667	2917.8831	4329.35	3446.95
1018.6819	2918.9931	4301.75	3415.7
1018.797	2920.1024	4267.2	3383.3
1018.9121	2921.211	4235.4	3352.55
1019.0271	2922.319	4215.9	3331.95
1019.1421	2923.4264	4218.7	3337
1019.2571	2924.5331	4190.9	3309.75
1019.372	2925.6391	4156.5	3276.85
1019.4869	2926.7445	4156	3274.75
1019.6017	2927.8493	4157.9	3277.35
1019.7165	2928.9534	4149.5	3269.4
1019.8313	2930.0569	4146	3258.95
1019.946	2931.1597	4124.6	3241.7
1020.0606	2932.2619	4112.65	3231.8
1020.1753	2933.3634	4101.35	3220.1
1020.2899	2934.4643	4098.45	3210.15
1020.4044	2935.5645	4076.4	3188.05
1020.5189	2936.6641	4024.25	3137.05
1020.6334	2937.763	3967.15	3084.3
1020.7478	2938.8613	3935.25	3053.6
1020.8622	2939.959	3875.95	2988.1
1020.9765	2941.056	3792.2	2909.2
1021.0908	2942.1523	3699.75	2816.1
1021.2051	2943.248	3615.85	2734.3
1021.3193	2944.3431	3528.9	2648.45
1021.4334	2945.4375	3429.7	2548.1
1021.5476	2946.5313	3317.95	2437.75
1021.6617	2947.6244	3214.05	2331.1
1021.7757	2948.7169	3099.9	2215.8
1021.8897	2949.8087	3008.55	2126.35
1022.0037	2950.8999	2908.3	2026.85
1022.1176	2951.9904	2819.8	1938.1
1022.2315	2953.0803	2750.75	1869.65
1022.3453	2954.1696	2696.25	1815.65
1022.4591	2955.2582	2634.65	1752.35
1022.5728	2956.3462	2580.05	1700.15
1022.6865	2957.4335	2548.95	1664.5
1022.8002	2958.5202	2513.55	1629.55
1022.9138	2959.6062	2469.9	1589.5
1023.0274	2960.6916	2454.25	1573
1023.141	2961.7764	2432.3	1549.2
1023.2545	2962.8605	2405.15	1522.9
1023.3679	2963.9439	2407.8	1526.55
1023.4813	2965.0267	2387	1504.9
1023.5947	2966.1089	2389	1482.05
1023.708	2967.1905	2378.1	1495.6
1023.8213	2968.2714	2373.95	1492.2
1023.9346	2969.3516	2359.45	1475.5
1024.0478	2970.4312	2365.75	1477.05
1024.1609	2971.5102	2361.25	1479.35
1024.274	2972.5885	2373.05	1492.2
1024.3871	2973.6662	2360.85	1474.2
1024.5002	2974.7432	2367.45	1485.1
1024.6132	2975.8196	2349.85	1466.3
1024.7261	2976.8954	2332.5	1451.7
1024.839	2977.9705	2325.4	1443.85
1024.9519	2979.045	2321.05	1440
1025.0647	2980.1188	2289.3	1407
1025.1775	2981.192	2264.65	1384.4
1025.2902	2982.2645	2250.95	1365.55
1025.4029	2983.3364	2216.45	1334.6
1025.5156	2984.4077	2192.7	1311.05
1025.6282	2985.4783	2157.75	1270.1
1025.7407	2986.5483	2119.8	1239.8
1025.8532	2987.6177	2096.65	1217.6
1025.9657	2988.6864	2041.05	1156.1
1026.0782	2989.7545	2017.2	1135.2
1026.1906	2990.8219	1998.25	1117
1026.3029	2991.8887	1940.6	1058
1026.4152	2992.9548	1915.9	1034.35
1026.5275	2994.0204	1881.3	1000.35
1026.6397	2995.0852	1858.4	977.15
1026.7519	2996.1495	1833.85	950.85
1026.864	2997.2131	1803.75	922.7
1026.9761	2998.276	1779.95	896.45
1027.0882	2999.3383	1765.95	882.75
1027.2002	3000.4	1749.1	866.25
1027.3122	3001.4611	1721.2	839
1027.4241	3002.5215	1711.5	829.65
1027.536	3003.5812	1696.85	816
1027.6478	3004.6404	1684.2	801
1027.7596	3005.6989	1673.3	789.1
1027.8714	3006.7567	1665.45	781.95
1027.9831	3007.8139	1664.5	766.75
1028.0947	3008.8705	1644.45	763.35
1028.2064	3009.9264	1654	755.8
1028.3179	3010.9818	1630.35	748.2
1028.4295	3012.0364	1628.2	747
1028.541	3013.0905	1624	743.1
1028.6524	3014.1439	1625.45	743.4
1028.7638	3015.1966	1622.6	739.35
1028.8752	3016.2487	1616.55	738.25
1028.9865	3017.3002	1623.9	735.65
1029.0978	3018.3511	1618.35	738.3
1029.209	3019.4013	1612.85	731.7
1029.3202	3020.4509	1611.1	732.25
1029.4314	3021.4998	1616.8	733.75
1029.5425	3022.5481	1614.85	732.95
1029.6535	3023.5958	1617.3	735.75
1029.7645	3024.6428	1616.7	735.4
1029.8755	3025.6892	1617.85	735.6
1029.9864	3026.735	1616.3	736.3
1030.0973	3027.7802	1620.3	738.7
1030.2082	3028.8247	1618	737.5
1030.319	3029.8685	1619.65	739.45
1030.4297	3030.9118	1620.9	739.3
1030.5404	3031.9544	1629.15	748.15
1030.6511	3032.9963	1633.9	751.65
1030.7617	3034.0376	1627.65	746.55
1030.8723	3035.0783	1646.95	763.9
1030.9829	3036.1184	1646.65	764.05
1031.0934	3037.1578	1643.2	765.95
1031.2038	3038.1966	1644.65	762.7
1031.3142	3039.2348	1636.55	755.55
1031.4246	3040.2723	1650.7	762.7
1031.5349	3041.3092	1645.85	764.65
1031.6452	3042.3455	1634.15	752.8
1031.7554	3043.3811	1632.95	749.9
1031.8656	3044.4161	1618.4	736.75
1031.9758	3045.4505	1625.1	745.3
1032.0859	3046.4842	1616.4	734.2
1032.1959	3047.5173	1604.4	726.4
1032.3059	3048.5498	1599.5	720.75
1032.4159	3049.5816	1593.35	713.15
1032.5258	3050.6128	1584.35	702.05
1032.6357	3051.6434	1572.6	691.05
1032.7455	3052.6734	1566.9	686.85
1032.8553	3053.7027	1560.15	679.4
1032.9651	3054.7314	1551.35	671.7
1033.0748	3055.7594	1548.75	669.55
1033.1845	3056.7868	1540	658.1
1033.2941	3057.8136	1528.9	648.65
1033.4037	3058.8398	1520.55	640.25
1033.5132	3059.8653	1516.55	636.05
1033.6227	3060.8902	1510.2	629.65
1033.7321	3061.9145	1504.55	620.9
1033.8415	3062.9381	1493.55	613
1033.9509	3063.9612	1510.75	615.8
1034.0602	3064.9835	1485.1	603.95
1034.1694	3066.0053	1476.9	594.45
1034.2787	3067.0264	1469.2	591.05
1034.3878	3068.0469	1459	574.85
1034.497	3069.0668	1451.8	569.05
1034.6061	3070.086	1450.65	570.45
1034.7151	3071.1046	1443.05	560.3
1034.8241	3072.1226	1428.4	547.65
1034.9331	3073.1399	1409.95	529.3
1035.042	3074.1567	1409.35	529.45
1035.1508	3075.1727	1397.2	514.3
1035.2597	3076.1882	1376.2	495.15
1035.3684	3077.203	1378.5	496.65
1035.4772	3078.2173	1372.1	490.1
1035.5859	3079.2308	1360.95	477.95
1035.6945	3080.2438	1345.1	463.55
1035.8031	3081.2561	1341.75	461.9
1035.9117	3082.2678	1329.25	451
1036.0202	3083.2789	1319.7	438.95
1036.1286	3084.2893	1319.3	439
1036.2371	3085.2991	1312.8	431.8
1036.3454	3086.3083	1311.15	424.85
1036.4538	3087.3169	1304.75	423.4
1036.562	3088.3248	1291.6	408.25
1036.6703	3089.3321	1288.55	407.45
1036.7785	3090.3388	1286.1	405.8
1036.8866	3091.3449	1281.1	401.85
1036.9948	3092.3503	1276	391.9
1037.1028	3093.3551	1270.9	390.75
1037.2108	3094.3593	1264.85	386.45
1037.3188	3095.3629	1261.35	379.75
1037.4267	3096.3658	1260.5	378.4
1037.5346	3097.3681	1251.15	371.65
1037.6425	3098.3698	1252.4	371.5
1037.7503	3099.3708	1257.9	370.9
1037.858	3100.3713	1243.1	361.45
1037.9657	3101.3711	1237.4	357.5
1038.0734	3102.3702	1366.55	344.45
1038.181	3103.3688	1238.1	356.55
1038.2886	3104.3667	1229.1	349.15
1038.3961	3105.364	1228.4	349.15
1038.5036	3106.3607	1218.3	334.55
1038.611	3107.3568	1221.1	341.25
1038.7184	3108.3522	1215.35	334.8
1038.8257	3109.347	1222.95	341.85
1038.933	3110.3412	1221.25	334.9
1039.0403	3111.3348	1217.25	337.3
1039.1475	3112.3277	1205.45	326.35
1039.2547	3113.32	1202.55	321.9
1039.3618	3114.3117	1205.7	324.25
1039.4689	3115.3028	1198.5	318.95
1039.5759	3116.2932	1205.5	323
1039.6829	3117.2831	1202.55	319.2
1039.7898	3118.2723	1197.3	317.95
1039.8967	3119.2608	1192.65	312.8
1040.0035	3120.2488	1189	310.25
1040.1103	3121.2361	1189.8	307.4
1040.2171	3122.2229	1188.6	310.2
1040.3238	3123.209	1188.15	306.45
1040.4305	3124.1944	1186.3	306.5
1040.5371	3125.1793	1181.6	299.65
1040.6437	3126.1635	1181.8	302.6
1040.7502	3127.1471	1179.4	301.1
1040.8567	3128.1301	1171.85	290.25
1040.9631	3129.1125	1175.85	297.95
1041.0695	3130.0942	1175.25	294.35
1041.1759	3131.0753	1179.05	289.65
1041.2822	3132.0558	1168	287.55
1041.3884	3133.0357	1170.45	288.85
1041.4946	3134.015	1167.35	287.4
1041.6008	3134.9936	1165.2	282.85
1041.7069	3135.9716	1175.9	270.65
1041.813	3136.949	1158.95	280.95
1041.919	3137.9258	1180.85	283.95
1042.025	3138.902	1165.3	281.15
1042.1309	3139.8775	1157.7	279.25
1042.2368	3140.8524	1153.95	274.8
1042.3427	3141.8267	1161.9	281.7
1042.4485	3142.8004	1149.95	268.5
1042.5542	3143.7735	1152.2	266.3
1042.6599	3144.7459	1151.3	268.9
1042.7656	3145.7178	1150.05	266.6
1042.8712	3146.689	1141.75	264.1
1042.9768	3147.6596	1144.75	262.7
1043.0823	3148.6295	1142.65	262.05
1043.1878	3149.5989	1139.75	260.2
1043.2932	3150.5676	1130.75	253.1
1043.3986	3151.5357	1131	250.6
1043.5039	3152.5032	1134.9	256.5
1043.6092	3153.4701	1131.3	251.15
1043.7145	3154.4364	1138.75	257
1043.8197	3155.402	1128.05	248.2
1043.9248	3156.367	1126.6	245.35
1044.03	3157.3315	1152.85	247.1
1044.135	3158.2952	1123.75	243.1
1044.24	3159.2584	1121.25	240.75
1044.345	3160.221	1116.85	236.25
1044.4499	3161.1829	1122.85	242.25
1044.5548	3162.1442	1120.65	242.8
1044.6596	3163.105	1110.45	229.75
1044.7644	3164.065	1115.85	237.75
1044.8692	3165.0245	1116.85	233.95
1044.9739	3165.9834	1105.15	227.65
1045.0785	3166.9416	1105.6	226.9
1045.1831	3167.8993	1107.95	227.6
1045.2877	3168.8563	1109.85	230.95
1045.3922	3169.8127	1104.8	223
1045.4966	3170.7684	1104.1	225.85
1045.6011	3171.7236	1102.85	222.65
1045.7054	3172.6782	1098.7	218.2
1045.8098	3173.6321	1101.35	223.2
1045.914	3174.5854	1105.5	224
1046.0183	3175.5381	1098.5	219.5
1046.1224	3176.4902	1092.85	213.05
1046.2266	3177.4417	1094.45	214.6
1046.3307	3178.3926	1094.3	215.2
1046.4347	3179.3428	1089.5	210.65
1046.5387	3180.2924	1090.45	209.55
1046.6427	3181.2415	1094.45	214.65
1046.7466	3182.1899	1084.75	200.65
1046.8504	3183.1377	1084.85	206.4
1046.9542	3184.0848	1087.05	203.75
1047.058	3185.0314	1084.25	205.85
1047.1617	3185.9773	1081	199.85
1047.2654	3186.9227	1083.7	200.8
1047.369	3187.8674	1077.9	199.5
1047.4726	3188.8115	1084.2	199.85
1047.5761	3189.755	1078.2	200.25
1047.6796	3190.6979	1075.9	196.45
1047.783	3191.6402	1077.5	199.3
1047.8864	3192.5818	1080.2	201.8
1047.9898	3193.5229	1091.3	198.15
1048.0931	3194.4633	1072.65	192.5
1048.1963	3195.4031	1075.2	195.95
1048.2995	3196.3423	1071.75	191.65
1048.4027	3197.2809	1068.75	188.9
1048.5058	3198.2189	1071.7	192.25
1048.6089	3199.1563	1075.4	187.85
1048.7119	3200.0931	1069.3	191.35
1048.8148	3201.0292	1066.35	186.7
1048.9178	3201.9648	1067.75	187.4
1049.0206	3202.8997	1068.45	188
1049.1235	3203.834	1067.7	187.5
1049.2262	3204.7677	1062.35	182.65
1049.329	3205.7008	1064.85	181.9
1049.4317	3206.6333	1061.6	183
1049.5343	3207.5652	1064.8	184.7
1049.6369	3208.4964	1061	180.15
1049.7394	3209.4271	1059.4	182.3
1049.8419	3210.3571	1055	176.1
1049.9444	3211.2865	1056.55	175.35
1050.0468	3212.2154	1058.85	177.5
1050.1491	3213.1436	1057.1	176.45
1050.2514	3214.0712	1062.6	177.95
1050.3537	3214.9982	1056.6	177.2
1050.4559	3215.9246	1051.7	171.8
1050.5581	3216.8503	1050.75	173.15
1050.6602	3217.7755	1051.1	169.45
1050.7623	3218.7001	1049.45	171.75
1050.8643	3219.624	1046.4	165.5
1050.9663	3220.5473	1049.7	173.05
1051.0682	3221.4701	1048.35	168.05
1051.1701	3222.3922	1046.95	169.05
1051.2719	3223.3137	1047.4	168.15
1051.3737	3224.2346	1044.9	165.35
1051.4754	3225.1549	1045.1	166.85
1051.5771	3226.0746	1041.85	164.95
1051.6788	3226.9937	1041.65	161.35
1051.7804	3227.9121	1036.5	157.65
1051.8819	3228.83	1040.3	161.15
1051.9834	3229.7473	1040.65	162.25
1052.0849	3230.6639	1041.45	162.45
1052.1863	3231.5799	1036.3	158.35
1052.2876	3232.4954	1036.7	157.4
1052.3889	3233.4102	1037.3	158.35
1052.4902	3234.3244	1035.1	155.75
1052.5914	3235.238	1032.75	155.3
1052.6926	3236.151	1062.1	157.05
1052.7937	3237.0634	1029.5	150.7
1052.8948	3237.9752	1031.15	152.5
1052.9958	3238.8864	1033.15	153.6
1053.0968	3239.797	1029.1	151.8
1053.1977	3240.7069	1031	151.7
1053.2986	3241.6163	1029.95	150.1
1053.3994	3242.5251	1029.6	151.6
1053.5002	3243.4332	1026.2	147.25
1053.6009	3244.3408	1024.35	146
1053.7016	3245.2477	1022.25	143.7
1053.8022	3246.154	1022.65	142.75
1053.9028	3247.0598	1024.4	146.6
1054.0034	3247.9649	1022.45	144.7
1054.1039	3248.8694	1019.6	141.6
1054.2043	3249.7733	1019.35	140.15
1054.3047	3250.6766	1020.2	140.75
1054.4051	3251.5793	1014.95	134.05
1054.5054	3252.4814	1015.2	136.95
1054.6056	3253.3829	1014	136.4
1054.7058	3254.2838	1014.9	137
1054.806	3255.1841	1014.05	134.5
1054.9061	3256.0838	1012.9	135.75
1055.0061	3256.9829	1011.75	132.65
1055.1062	3257.8814	1011.2	130.95
1055.2061	3258.7792	1011.5	130.5
1055.306	3259.6765	1005.9	125.45
1055.4059	3260.5731	1005.6	126.65
1055.5057	3261.4692	1004.5	123.6
1055.6055	3262.3647	1004.5	124.5
1055.7052	3263.2595	1001.95	123.4
1055.8049	3264.1538	996.85	118.9
1055.9045	3265.0474	994	113.65
1056.0041	3265.9404	997	119.45
1056.1036	3266.8329	992.1	115.6
1056.2031	3267.7247	1004.6	117.35
1056.3025	3268.616	988.05	112.15
1056.4019	3269.5066	982.5	102.9
1056.5013	3270.3966	985.85	104.25
1056.6005	3271.286	980.15	101.45
