Software Version:	3.9.2.0
Unit SN:	10000200
Spectrometer SN:	6960
Date:	3/26/2024 1:30:47 PM
Data Line Index:	25
Spectral Points:	2048
Integration time (ms):	125
Averages:	20
Delay (ms):	30000
Sequence Number:	1
Processing:	dark subtract
Laser Power (mW):	305
Laser Current (mA):	820
Laser Diode Temp (C):	25
Laser Case Temp (C):	26.9
System Temp (C):	26.8
Spectrometer Temp (C):	24.6
CCD Temp (C):	0.007
Secondary Temp (C):	20.008
Heatsink Temp (C):	22.462
CCDPCB Temp (C):	36.607
SecondaryPCB Temp (C):	33.706

Wavelength	RamanShift	Raw Counts	Dark Subtracted
787.061	30.1047	542.85	130.6
787.2016	32.3739	549.1	141.05
787.3422	34.6426	558.4	147.85
787.4828	36.9109	571.8	159.05
787.6235	39.1787	583.35	167.55
787.7642	41.4461	596.25	175.15
787.9049	43.7131	616.2	191.45
788.0456	45.9796	633.45	206.05
788.1863	48.2456	645.15	212.35
788.3271	50.5112	665.25	228.7
788.4679	52.7764	678.55	239.1
788.6087	55.0411	690.7	249.2
788.7496	57.3054	714.45	267.1
788.8904	59.5692	735.8	287.4
789.0313	61.8326	761.95	309.65
789.1722	64.0955	788.6	332.7
789.3132	66.3579	812.7	350.45
789.4541	68.6199	851.8	385.55
789.5951	70.8815	911.7	444.9
789.7361	73.1426	1045.85	575
789.8771	75.4032	1395.55	918.75
790.0181	77.6634	2237.95	1756.4
790.1592	79.9231	4323.3	3834
790.3003	82.1824	8996.95	8493.85
790.4414	84.4412	17976.1	17454.5
790.5825	86.6995	32588.85	32034.75
790.7237	88.9574	42936.4	42355.3
790.8648	91.2148	49014.1	48414.95
791.006	93.4717	50660.5	50050.8
791.1472	95.7282	51276.4	50660.05
791.2885	97.9842	51499.75	50876.3
791.4297	100.2398	51454.85	50831.2
791.571	102.4949	51302.7	50676.95
791.7123	104.7495	51182.25	50553.25
791.8536	107.0036	50916.3	50286.8
791.9949	109.2573	50953.2	50319.6
792.1363	111.5105	50664.45	50030.25
792.2777	113.7632	50606.65	49972.35
792.4191	116.0154	50564.6	49918.95
792.5605	118.2672	50664.85	50024.8
792.7019	120.5185	50585.1	49943.9
792.8434	122.7693	50530.35	49889.85
792.9849	125.0197	50296.35	49652.2
793.1264	127.2696	50635	49988.35
793.2679	129.519	50560.45	49905.5
793.4094	131.7679	50680.15	50026.65
793.551	134.0163	50247.35	49587.4
793.6926	136.2642	50351.85	49689.15
793.8342	138.5117	50503.9	49830.1
793.9758	140.7587	50342.35	49672.6
794.1175	143.0052	50297.15	49625
794.2591	145.2512	49917.25	49246.1
794.4008	147.4967	50142.8	49471.25
794.5425	149.7417	50010	49336.5
794.6842	151.9863	49957.5	49279.1
794.826	154.2304	49767.6	49085.95
794.9677	156.4739	49762.55	49076.4
795.1095	158.717	49977.4	49290.3
795.2513	160.9596	49762	49070.2
795.3931	163.2017	49339.25	48646.05
795.535	165.4433	49626.55	48933.25
795.6768	167.6844	49277.45	48582.4
795.8187	169.925	49375.8	48678.2
795.9606	172.1651	49037.9	48338
796.1025	174.4047	49076.2	48374.65
796.2445	176.6439	48978.9	48277.85
796.3864	178.8825	48743.7	48034.95
796.5284	181.1206	49116.3	48401
796.6704	183.3582	48997.95	48280.7
796.8124	185.5954	48828.75	48112.55
796.9544	187.832	48808.6	48087.15
797.0965	190.0681	48529.7	47806.5
797.2386	192.3037	49004.15	48280.1
797.3806	194.5388	49424.65	48689.55
797.5228	196.7734	48352.65	47618.75
797.6649	199.0075	49430.65	48689.1
797.807	201.2411	49078.55	48335.9
797.9492	203.4742	49581.65	48836.15
798.0914	205.7068	49561.1	48819.85
798.2336	207.9389	49567.6	48825.4
798.3758	210.1704	49590.7	48847.35
798.518	212.4015	49861.15	49110.4
798.6603	214.632	49606.9	48857.9
798.8025	216.862	49947.7	49206.75
798.9448	219.0915	49784.9	49051.6
799.0871	221.3205	49792.5	49059.85
799.2294	223.549	50076.6	49349.15
799.3718	225.777	50055.8	49327.95
799.5141	228.0044	50166.5	49435.15
799.6565	230.2314	50179.45	49453.35
799.7989	232.4578	50173.35	49446.05
799.9413	234.6837	50219.2	49482.2
800.0837	236.909	50462.6	49724.15
800.2262	239.1339	50057.2	49295.2
800.3687	241.3582	50257.9	49506.1
800.5111	243.582	50258.65	49479.15
800.6536	245.8053	50268	49500.95
800.7961	248.0281	50265.85	49503.9
800.9387	250.2503	50273.55	49502.75
801.0812	252.472	50204.15	49430.95
801.2238	254.6932	50319.55	49545.85
801.3664	256.9139	50266.05	49490.1
801.509	259.134	50492.95	49712.9
801.6516	261.3536	50314.2	49536.55
801.7942	263.5727	50514.5	49733.5
801.9369	265.7912	50466.65	49685.15
802.0795	268.0092	50548.6	49770.3
802.2222	270.2267	50569.6	49791.8
802.3649	272.4436	50509.7	49726.95
802.5076	274.6601	50574.35	49785.75
802.6504	276.8759	50599	49815.55
802.7931	279.0913	50492.35	49705.95
802.9359	281.3061	50499.2	49708.1
803.0787	283.5204	50538.15	49744.9
803.2215	285.7341	50557.25	49765.15
803.3643	287.9473	50606.3	49799.2
803.5071	290.16	50569.55	49767.8
803.6499	292.3721	50635.8	49842.65
803.7928	294.5837	50578.55	49779.15
803.9357	296.7947	50549.65	49755.25
804.0786	299.0052	50693.8	49897.3
804.2215	301.2152	50623.4	49824.2
804.3644	303.4246	50673.75	49878.5
804.5074	305.6334	50568.2	49775.4
804.6503	307.8418	50422.2	49626.3
804.7933	310.0495	50318.5	49516.55
804.9363	312.2568	50202.05	49399.65
805.0793	314.4635	50108.9	49303.95
805.2223	316.6696	50089.65	49283.3
805.3653	318.8752	50017.3	49206.15
805.5084	321.0802	49766.95	48960.9
805.6514	323.2847	49938.3	49128.5
805.7945	325.4887	49875.45	49063.7
805.9376	327.692	49831.75	49024.15
806.0807	329.8949	49896.7	49084.55
806.2238	332.0972	49806.2	48994.05
806.367	334.2989	49788.6	48976.45
806.5101	336.5001	49803.2	48991.4
806.6533	338.7007	49503.65	48686.5
806.7965	340.9008	49703.05	48883.4
806.9397	343.1003	49617.2	48799.25
807.0829	345.2992	49690.3	48870.6
807.2261	347.4976	49490.05	48665.35
807.3693	349.6955	49579.65	48751.5
807.5126	351.8927	49468.3	48641.45
807.6559	354.0895	49522.3	48685.25
807.7991	356.2856	49489.3	48658.5
807.9424	358.4812	49595	48766.35
808.0857	360.6763	49350.7	48522.35
808.2291	362.8707	49566.85	48736.8
808.3724	365.0646	49418.95	48589.25
808.5158	367.258	49405.4	48575.3
808.6591	369.4508	49244.75	48410.05
808.8025	371.643	49567.85	48731.05
808.9459	373.8346	49389.75	48548.45
809.0893	376.0257	49430.75	48589.85
809.2327	378.2162	49343.65	48501.9
809.3762	380.4062	49109.8	48263.15
809.5196	382.5956	49288.85	48445.25
809.6631	384.7844	49227.65	48384.75
809.8066	386.9726	49266.65	48419.8
809.9501	389.1603	49146.15	48299.8
810.0936	391.3474	49011.35	48132.7
810.2371	393.5339	49112.75	48264.7
810.3806	395.7199	48799.65	47956.05
810.5241	397.9052	48881.8	48043.4
810.6677	400.09	48967.95	48129.75
810.8113	402.2743	49142.95	48307.55
810.9548	404.4579	48963	48129.45
811.0984	406.641	49062.45	48226.75
811.2421	408.8235	49148.1	48313
811.3857	411.0054	49270.7	48432.15
811.5293	413.1868	49348	48507.65
811.673	415.3675	49223.05	48378.7
811.8166	417.5477	49261.9	48420.05
811.9603	419.7273	49254.3	48404.75
812.104	421.9064	49153.9	48299
812.2477	424.0848	49136.55	48287.15
812.3914	426.2627	49165.65	48316.8
812.5351	428.4399	48920.25	48066.35
812.6788	430.6166	48474.9	47623.4
812.8226	432.7928	48696.25	47840.05
812.9663	434.9683	48318.5	47466.35
813.1101	437.1432	48198.45	47343.9
813.2539	439.3176	48386.65	47534.5
813.3977	441.4914	47829.15	46977.9
813.5415	443.6645	47919.05	47061.25
813.6853	445.8371	47950.85	47092.3
813.8291	448.0091	47622.3	46762.75
813.973	450.1806	47457.5	46599.25
814.1168	452.3514	47573.65	46718.25
814.2607	454.5216	47246.4	46380.8
814.4046	456.6913	47511.95	46650.65
814.5485	458.8603	47673	46817.75
814.6924	461.0288	47250.85	46395.9
814.8363	463.1967	47602.15	46748.6
814.9802	465.3639	47519.9	46662.6
815.1241	467.5306	46823	45963.05
815.2681	469.6967	47245.25	46387.4
815.412	471.8622	47525.65	46671.4
815.556	474.0271	47208.6	46350.45
815.7	476.1914	47270.8	46405.45
815.844	478.3551	47303.9	46439.65
815.988	480.5182	47759.15	46898.55
816.132	482.6807	47186.95	46328.95
816.276	484.8426	47326.5	46471.9
816.4201	487.0039	47911.5	47054.6
816.5641	489.1647	48047.55	47184.8
816.7082	491.3248	47639.35	46778.8
816.8522	493.4843	48199.5	47339.45
816.9963	495.6432	48149.45	47291.5
817.1404	497.8015	47489.1	46620.75
817.2845	499.9592	47800.85	46926
817.4286	502.1163	47671.4	46798.95
817.5727	504.2728	47476.45	46607.7
817.7168	506.4287	47289.8	46430.9
817.861	508.5839	46928.85	46069.9
818.0051	510.7386	47060.35	46195.25
818.1493	512.8927	47085.3	46212.2
818.2935	515.0461	47005.8	46135.4
818.4377	517.199	47275.2	46405.7
818.5818	519.3512	47017.85	46146.65
818.726	521.5029	47170.2	46293.3
818.8703	523.6539	47327.5	46454.1
819.0145	525.8043	46911.9	46036.4
819.1587	527.9541	47236.6	46360.05
819.303	530.1033	47100.25	46228.1
819.4472	532.2519	46816.95	45941.9
819.5915	534.3999	47173.8	46297.15
819.7357	536.5472	47334.75	46460.65
819.88	538.694	46835.65	45965.4
820.0243	540.8401	47240.15	46363.85
820.1686	542.9856	47374.2	46493.35
820.3129	545.1305	47587.65	46701.65
820.4572	547.2748	47139.75	46254.85
820.6016	549.4185	47008.25	46120.05
820.7459	551.5615	47314.15	46426.35
820.8902	553.704	47176.7	46291.15
821.0346	555.8458	46982.85	46100.25
821.1789	557.987	47079	46198.4
821.3233	560.1276	47331.85	46446.15
821.4677	562.2675	47349.1	46464.1
821.6121	564.4069	47609.85	46724.95
821.7565	566.5456	47947.05	47066.5
821.9009	568.6837	47527.15	46644.7
822.0453	570.8212	47449	46567.75
822.1897	572.958	46624.25	45741.85
822.3342	575.0942	46868.45	45985.8
822.4786	577.2299	46372.35	45490
822.6231	579.3648	46169.85	45299.05
822.7675	581.4992	46071.1	45204.45
822.912	583.6329	46003.1	45137.7
823.0565	585.766	46125.65	45254.25
823.201	587.8985	46271.8	45397.8
823.3454	590.0304	45670.6	44781.45
823.4899	592.1616	46095.6	45209.4
823.6345	594.2922	45757.6	44868.55
823.779	596.4222	45364.8	44476.7
823.9235	598.5515	45394.35	44502.1
824.068	600.6802	45563.55	44673.7
824.2126	602.8083	45015.75	44128.1
824.3571	604.9358	44941.5	44050.6
824.5017	607.0626	45338.3	44446.9
824.6462	609.1888	44796.1	43900.2
824.7908	611.3144	45219.5	44324.25
824.9354	613.4393	45001.05	44107
825.08	615.5636	44817.9	43925.35
825.2246	617.6873	45110.6	44216.25
825.3692	619.8103	44718.3	43824.65
825.5138	621.9327	44995.35	44107.05
825.6584	624.0544	44931.65	44040.75
825.803	626.1756	44665.5	43777.1
825.9477	628.2961	44574.45	43681.8
826.0923	630.4159	44356.9	43463.05
826.237	632.5351	44268.85	43374.35
826.3816	634.6537	44849.1	43954.4
826.5263	636.7716	44178.8	43277.6
826.6709	638.8889	44282.3	43379.15
826.8156	641.0056	44270.3	43371.65
826.9603	643.1216	44326.5	43426.3
827.105	645.237	44397.05	43497.05
827.2497	647.3518	44008.8	43116.35
827.3944	649.4659	44085.8	43196.45
827.5391	651.5793	44098.65	43206.5
827.6838	653.6922	44135.35	43242.4
827.8285	655.8043	43651.85	42758.65
827.9733	657.9159	44244.3	43350.05
828.118	660.0268	43214.7	42314.65
828.2627	662.137	43728.65	42830.55
828.4075	664.2466	43857.25	42955.3
828.5522	666.3556	43647.85	42748.9
828.697	668.4639	43690.1	42787.85
828.8418	670.5716	43489.35	42595.85
828.9865	672.6786	43636.55	42738.95
829.1313	674.785	43271.1	42368.55
829.2761	676.8907	43287.5	42389.4
829.4209	678.9958	43370.1	42474.9
829.5657	681.1002	43402.15	42504.2
829.7105	683.204	43086.45	42179.65
829.8553	685.3072	42951.05	42047.1
830.0001	687.4097	42977.75	42073.85
830.1449	689.5115	42896.75	41990.5
830.2898	691.6127	43151.55	42248.55
830.4346	693.7132	42849.2	41950.1
830.5794	695.8131	42947.85	42032.7
830.7243	697.9123	43019.25	42111.65
830.8691	700.0109	43075.1	42169.05
831.014	702.1089	42710.35	41805.5
831.1588	704.2061	42809.8	41903.6
831.3037	706.3028	42820.65	41913.5
831.4486	708.3987	42824.3	41917.6
831.5935	710.4941	42714.35	41808.55
831.7383	712.5887	42929.9	42024.35
831.8832	714.6827	42785.75	41878
832.0281	716.7761	43023.45	42119.25
832.173	718.8688	43070.3	42165.4
832.3179	720.9608	42894.75	41982.85
832.4628	723.0522	42985.95	42069.9
832.6077	725.1429	42747.05	41838.4
832.7527	727.233	43372.05	42462.1
832.8976	729.3224	42598.15	41693.1
833.0425	731.4112	42798.65	41889.65
833.1874	733.4993	42687.05	41776.4
833.3324	735.5867	42530.6	41621.05
833.4773	737.6735	42266.35	41353.85
833.6222	739.7596	41998.6	41086.65
833.7672	741.845	41929	41019.3
833.9122	743.9298	41983.45	41074.65
834.0571	746.014	41794.8	40884.1
834.2021	748.0974	41625.8	40709.95
834.347	750.1802	41858	40943.35
834.492	752.2624	41386.15	40474.6
834.637	754.3439	41466.6	40551.7
834.782	756.4247	41534.2	40613.15
834.9269	758.5048	41344.45	40429.95
835.0719	760.5843	41532.2	40618.5
835.2169	762.6631	41763.2	40850.15
835.3619	764.7413	41965.9	41051.75
835.5069	766.8188	42294.5	41378.85
835.6519	768.8956	42591.7	41678.6
835.7969	770.9718	42722.35	41809.2
835.9419	773.0473	42486.95	41574.6
836.0869	775.1221	42208.45	41295.45
836.232	777.1962	42032.6	41117.1
836.377	779.2697	41747.05	40823.45
836.522	781.3426	41910.2	40980.25
836.667	783.4147	41963.8	41046.7
836.8121	785.4862	41897.05	40983.8
836.9571	787.557	41644.6	40729.45
837.1021	789.6271	41494.75	40579.1
837.2472	791.6966	40973.8	40056.65
837.3922	793.7654	40521.8	39605.7
837.5373	795.8335	40318.2	39401.05
837.6823	797.901	40103.25	39186.5
837.8274	799.9678	39914	38993.15
837.9724	802.0339	39868.05	38947.1
838.1175	804.0993	39804.4	38876.85
838.2626	806.1641	39642	38721.25
838.4076	808.2282	39505	38589.45
838.5527	810.2916	39484.85	38567.95
838.6978	812.3544	39428.55	38513.85
838.8428	814.4164	39198.5	38283.75
838.9879	816.4778	39271.45	38352.2
839.133	818.5385	39218.9	38298.85
839.2781	820.5986	39224	38305.3
839.4232	822.658	39379.7	38461.5
839.5682	824.7166	39471.65	38553.05
839.7133	826.7747	39685.35	38764.8
839.8584	828.832	39921.55	39001.9
840.0035	830.8886	40145.8	39224
840.1486	832.9446	40192.15	39270.6
840.2937	834.9999	39757.2	38838.05
840.4388	837.0545	39748.7	38821.85
840.5839	839.1085	39511.75	38593.15
840.729	841.1618	39309.75	38386.3
840.8741	843.2143	39015.6	38097.1
841.0192	845.2662	38867.2	37949.15
841.1643	847.3175	38838.95	37918.75
841.3095	849.368	38584.95	37663.6
841.4546	851.4179	38575.05	37652.9
841.5997	853.467	38367.75	37449.5
841.7448	855.5155	38282.75	37363.55
841.8899	857.5633	38147.35	37225
842.0351	859.6105	38019.65	37097.9
842.1802	861.6569	37992.95	37071.9
842.3253	863.7027	37812.85	36889
842.4704	865.7478	37797.55	36875.05
842.6156	867.7922	37768.4	36843.55
842.7607	869.8359	37748.7	36826.2
842.9058	871.8789	37628.4	36701.55
843.0509	873.9212	37712.3	36757.05
843.1961	875.9629	37609.6	36684.3
843.3412	878.0039	37656.8	36733.6
843.4863	880.0441	37624.2	36703.8
843.6315	882.0837	37588.8	36667.45
843.7766	884.1226	37556.2	36627.05
843.9218	886.1609	37535.15	36612.7
844.0669	888.1984	37597.85	36673.45
844.212	890.2352	37788.5	36864.9
844.3572	892.2714	37584.9	36656.9
844.5023	894.3069	37582	36659.2
844.6475	896.3416	37353.15	36428.45
844.7926	898.3757	37159.85	36238.6
844.9377	900.4091	37072.7	36148.4
845.0829	902.4418	37002.8	36073.15
845.228	904.4739	36912.35	35987.75
845.3732	906.5052	36923.2	35998.3
845.5183	908.5358	36867.5	35941.3
845.6635	910.5658	36726.95	35798.6
845.8086	912.595	36584.25	35657.55
845.9538	914.6236	36346.15	35420.75
846.0989	916.6515	36303.65	35375.75
846.2441	918.6786	36095.85	35167.85
846.3892	920.7051	36094.9	35167
846.5344	922.7309	36089.95	35163.5
846.6795	924.756	35973.85	35049.35
846.8246	926.7804	35971.45	35048.3
846.9698	928.8041	35728.75	34801.35
847.1149	930.8272	35797.25	34873.1
847.2601	932.8495	35622.6	34696.25
847.4052	934.8711	35575.3	34647.35
847.5504	936.892	35423.55	34496.2
847.6955	938.9123	35330.5	34403.7
847.8407	940.9318	35342.1	34414.6
847.9858	942.9506	35195.4	34264.35
848.131	944.9688	35031.55	34104.2
848.2761	946.9862	34950.95	34025.35
848.4213	949.003	34723.55	33795.95
848.5664	951.019	34605.4	33676.15
848.7115	953.0344	34552.7	33625.1
848.8567	955.0491	34440.5	33514.35
849.0018	957.063	34471.65	33546.65
849.147	959.0763	34535.2	33601.3
849.2921	961.0888	34341.4	33413.65
849.4373	963.1007	34408.8	33481.55
849.5824	965.1119	34371.4	33451.7
849.7275	967.1223	34286.55	33369.9
849.8727	969.1321	34251.8	33334.6
850.0178	971.1412	34154.8	33234.6
850.1629	973.1495	34047.5	33121.3
850.3081	975.1572	34064.55	33117.8
850.4532	977.1641	33966.75	33041.9
850.5983	979.1704	33895.5	32965.1
850.7435	981.1759	33789.35	32858.4
850.8886	983.1808	33762.55	32833.45
851.0337	985.1849	33704.15	32766.2
851.1788	987.1884	33638.7	32710.8
851.324	989.1911	33631.3	32702.55
851.4691	991.1932	33541.1	32614.5
851.6142	993.1945	33486.6	32560.45
851.7593	995.1951	33354.4	32425.9
851.9045	997.1951	33294.8	32363.1
852.0496	999.1943	33127.6	32201.5
852.1947	1001.1928	33006.55	32077.35
852.3398	1003.1906	32971.85	32043.1
852.4849	1005.1877	32913.65	31987.7
852.63	1007.1841	32801.65	31873.25
852.7751	1009.1798	32725.55	31799.85
852.9202	1011.1748	32609.7	31683.4
853.0653	1013.1691	32444.2	31514.25
853.2104	1015.1627	32155	31226.35
853.3555	1017.1556	31926.4	31000.95
853.5006	1019.1477	31797.55	30872.85
853.6457	1021.1392	31500.25	30578.95
853.7908	1023.1299	31371.95	30452.65
853.9359	1025.12	31365.35	30447.2
854.081	1027.1093	31232.9	30324
854.2261	1029.0979	31183.65	30273.8
854.3712	1031.0859	31160.2	30248
854.5163	1033.0731	31074.45	30156.95
854.6613	1035.0596	30972.2	30050.5
854.8064	1037.0454	30748.35	29826.55
854.9515	1039.0304	30643.55	29719.15
855.0965	1041.0148	30353.1	29428.75
855.2416	1042.9985	30272.15	29345.4
855.3867	1044.9814	30270.6	29344.8
855.5317	1046.9636	30097.45	29171
855.6768	1048.9452	29978.05	29055.2
855.8219	1050.926	29963.6	29037
855.9669	1052.9061	29920.25	28997.05
856.112	1054.8855	29833.65	28908
856.257	1056.8642	29841.5	28919.8
856.4021	1058.8421	29835	28905.45
856.5471	1060.8194	29770.15	28840.3
856.6921	1062.7959	29697.15	28771.1
856.8372	1064.7717	29683.75	28755.85
856.9822	1066.7469	29683.2	28758.1
857.1272	1068.7213	29702.15	28776.35
857.2723	1070.695	29696.75	28768.85
857.4173	1072.6679	29533.4	28607.7
857.5623	1074.6402	29542.1	28616.55
857.7073	1076.6117	29494	28563
857.8523	1078.5826	29376.25	28446.35
857.9973	1080.5527	29184.25	28258.15
858.1423	1082.5221	29037.4	28111.4
858.2873	1084.4908	28972.65	28049.05
858.4323	1086.4587	28979	28052.9
858.5773	1088.426	28893.5	27963.45
858.7223	1090.3925	28814.2	27884.05
858.8673	1092.3584	28792.9	27865.8
859.0123	1094.3235	28641.4	27716.3
859.1573	1096.2879	28620.6	27692.8
859.3022	1098.2515	28677.55	27751.1
859.4472	1100.2145	28754.95	27830.25
859.5922	1102.1767	28767.95	27839.15
859.7371	1104.1382	28884.7	27962.7
859.8821	1106.099	28966.4	28038.6
860.027	1108.0591	29043.55	28117.9
860.172	1110.0185	29044.35	28117.2
860.3169	1111.9771	29043.65	28119.6
860.4619	1113.9351	28895.85	27970.75
860.6068	1115.8923	28764.85	27838.7
860.7517	1117.8488	28544.45	27618.6
860.8967	1119.8045	28302.15	27378.25
861.0416	1121.7596	28251.8	27325.2
861.1865	1123.7139	28076.4	27151.5
861.3314	1125.6675	27934.35	27007.2
861.4763	1127.6204	28005.6	27077.85
861.6212	1129.5726	27881.4	26957.45
861.7661	1131.524	27754.15	26828.5
861.911	1133.4748	27667.3	26745.25
862.0559	1135.4248	27490.65	26564.35
862.2008	1137.3741	27319.8	26393.3
862.3457	1139.3226	27190.9	26263.35
862.4905	1141.2705	27140.65	26215.65
862.6354	1143.2176	26958.8	26029.15
862.7803	1145.164	26932.6	26004.8
862.9251	1147.1097	26836.5	25911.8
863.07	1149.0546	26708.5	25782.85
863.2148	1150.9989	26642.05	25716.75
863.3597	1152.9424	26529.2	25603.2
863.5045	1154.8852	26399.55	25472.1
863.6493	1156.8272	26363.35	25437.4
863.7942	1158.7686	26352.55	25419.8
863.939	1160.7092	26228.1	25303.5
864.0838	1162.6491	26149.85	25222.65
864.2286	1164.5883	26203.65	25279.8
864.3734	1166.5267	26221.3	25297.7
864.5182	1168.4644	26303.25	25377.05
864.663	1170.4014	26393.9	25467.2
864.8078	1172.3377	26538.65	25619.1
864.9526	1174.2732	26657.7	25731.35
865.0974	1176.2081	26890.85	25966.1
865.2421	1178.1421	27135.25	26208.05
865.3869	1180.0755	27479.8	26556
865.5317	1182.0082	27592.15	26670.65
865.6764	1183.9401	27621.45	26697.25
865.8212	1185.8713	27497.95	26578.25
865.9659	1187.8017	27260.4	26344.9
866.1106	1189.7315	26953.85	26042.2
866.2554	1191.6605	26556.2	25646.7
866.4001	1193.5888	26307.55	25393.95
866.5448	1195.5163	26155.8	25236.55
866.6895	1197.4432	26003.2	25078.9
866.8342	1199.3693	25928.85	25005.95
866.9789	1201.2947	25775.35	24850.7
867.1236	1203.2193	25675.25	24750
867.2683	1205.1432	25696.7	24775.45
867.413	1207.0664	25592.3	24669.9
867.5576	1208.9889	25494.65	24569.45
867.7023	1210.9106	25397.3	24475.85
867.847	1212.8316	25304.05	24380.55
867.9916	1214.7519	25289.35	24354.65
868.1363	1216.6715	25244	24322.6
868.2809	1218.5903	25289.15	24367.6
868.4255	1220.5084	25286.35	24363.6
868.5701	1222.4257	25291.7	24368.95
868.7148	1224.3424	25224.55	24305.55
868.8594	1226.2583	25248	24319.2
869.004	1228.1735	25311.15	24389.55
869.1486	1230.0879	25307.8	24384.3
869.2932	1232.0016	25363.25	24442.35
869.4377	1233.9146	25416.1	24492.85
869.5823	1235.8269	25365.65	24443.05
869.7269	1237.7384	25348	24425.45
869.8715	1239.6492	25156.65	24235.05
870.016	1241.5592	25079.95	24158.8
870.1606	1243.4686	25066.95	24144.4
870.3051	1245.3772	25105.3	24180.75
870.4496	1247.285	25177.8	24252.3
870.5941	1249.1922	25248.25	24327.3
870.7387	1251.0986	25298.9	24378.9
870.8832	1253.0042	25303	24384.05
871.0277	1254.9092	25314.65	24392.45
871.1722	1256.8134	25316.25	24397.55
871.3167	1258.7169	25431.25	24506.6
871.4611	1260.6196	25472.35	24553.3
871.6056	1262.5216	25616.3	24692.6
871.7501	1264.4229	25682.65	24764.75
871.8945	1266.3234	25792.6	24869.15
872.039	1268.2232	25800	24878.35
872.1834	1270.1223	25776.5	24854.1
872.3278	1272.0207	25781.6	24857.95
872.4723	1273.9183	25696.2	24768.25
872.6167	1275.8151	25580.25	24657.75
872.7611	1277.7113	25539.7	24617.5
872.9055	1279.6067	25540.15	24617.55
873.0499	1281.5014	25680	24759.4
873.1943	1283.3953	25880.05	24957.15
873.3386	1285.2885	26233.85	25315.6
873.483	1287.181	26534.15	25611.45
873.6274	1289.0727	26880.95	25962.15
873.7717	1290.9637	27021.2	26100.25
873.9161	1292.854	27198.8	26276.25
874.0604	1294.7435	27104.75	26181.75
874.2047	1296.6323	27018.5	26098.35
874.349	1298.5204	26876.4	25952.95
874.4933	1300.4077	26698.25	25775.05
874.6376	1302.2943	26465.8	25545.45
874.7819	1304.1802	26258.3	25339.5
874.9262	1306.0653	25867.4	24947.85
875.0705	1307.9497	25477.2	24555
875.2147	1309.8333	25229.1	24306.65
875.359	1311.7162	24994.85	24072.95
875.5032	1313.5984	24826.35	23904.9
875.6475	1315.4798	24705.65	23772
875.7917	1317.3605	24589.7	23661.75
875.9359	1319.2405	24489	23567.7
876.0801	1321.1197	24297.55	23376.9
876.2243	1322.9982	24015.3	23091.55
876.3685	1324.876	23856.3	22935.55
876.5127	1326.753	23650.3	22728.65
876.6569	1328.6293	23462.65	22538.8
876.801	1330.5048	23332.85	22407.5
876.9452	1332.3796	23135.5	22215.6
877.0893	1334.2537	23092.85	22146.8
877.2335	1336.127	22970.45	22049.05
877.3776	1337.9996	22880.7	21959.3
877.5217	1339.8714	22825.55	21900.95
877.6658	1341.7426	22832.35	21867.45
877.8099	1343.6129	22782.35	21860.05
877.954	1345.4826	22756.05	21836.35
878.0981	1347.3515	22748.6	21824.3
878.2422	1349.2196	22673.1	21752
878.3862	1351.087	22681.9	21762.6
878.5303	1352.9537	22636.3	21713.9
878.6743	1354.8197	22712.9	21788.2
878.8184	1356.6849	22817.6	21894.05
878.9624	1358.5493	22888.35	21966.55
879.1064	1360.4131	22963.15	22042
879.2504	1362.276	23011.85	22094.15
879.3944	1364.1383	22967.1	22045.2
879.5384	1365.9998	22788.95	21861.8
879.6823	1367.8606	22557.3	21635.15
879.8263	1369.7206	22279.6	21360.05
879.9702	1371.5799	22009.2	21086
880.1142	1373.4384	21762.3	20840.2
880.2581	1375.2962	21635.65	20715.05
880.402	1377.1533	21339.35	20421.15
880.5459	1379.0096	21017.1	20100.2
880.6898	1380.8652	20786.8	19869.7
880.8337	1382.7201	20516.8	19600.5
880.9776	1384.5742	20297.95	19376.45
881.1215	1386.4275	20097.3	19176.8
881.2653	1388.2802	19965.2	19048.9
881.4092	1390.132	19832.9	18913.1
881.553	1391.9832	19806.9	18884.35
881.6968	1393.8336	19654.8	18735.95
881.8406	1395.6832	19576.3	18654.8
881.9844	1397.5322	19502.3	18581.95
882.1282	1399.3803	19416.05	18490.15
882.272	1401.2278	19299.45	18380.1
882.4158	1403.0745	19290.75	18373.45
882.5595	1404.9204	19190	18270.4
882.7033	1406.7656	19177.8	18259.85
882.847	1408.6101	19082.85	18162.75
882.9908	1410.4538	19055.8	18137.35
883.1345	1412.2968	19035.35	18118.25
883.2782	1414.139	18978.25	18058.75
883.4219	1415.9805	19037.75	18119.65
883.5656	1417.8213	19007.7	18068.1
883.7092	1419.6613	19064.1	18145.2
883.8529	1421.5006	19116.75	18197.45
883.9965	1423.3391	19184	18265.55
884.1402	1425.1769	19318.85	18398.9
884.2838	1427.0139	19594.1	18674.75
884.4274	1428.8502	19878.8	18956.4
884.571	1430.6858	20199.85	19279.3
884.7146	1432.5206	20387	19469.1
884.8582	1434.3547	20478.7	19559.7
885.0018	1436.188	20463.9	19545.5
885.1453	1438.0206	20396.55	19476.6
885.2889	1439.8524	20249.45	19330
885.4324	1441.6835	20149.05	19230.4
885.5759	1443.5139	20029	19106.4
885.7194	1445.3435	19956.85	19040.7
885.8629	1447.1724	19931.05	19012.35
886.0064	1449.0005	19869	18952.95
886.1499	1450.8279	19756.45	18841.3
886.2933	1452.6545	19766.9	18851.8
886.4368	1454.4804	19805.3	18891.4
886.5802	1456.3056	19749.25	18825.8
886.7237	1458.13	19691.9	18775.45
886.8671	1459.9536	19569.4	18655
887.0105	1461.7766	19354.85	18436.7
887.1539	1463.5987	19096.75	18178.5
887.2972	1465.4202	18857.7	17941.55
887.4406	1467.2409	18597.8	17679
887.584	1469.0608	18418.95	17503.15
887.7273	1470.88	18236.95	17318.05
887.8706	1472.6984	18085.85	17170.5
888.0139	1474.5161	17874.1	16955.7
888.1572	1476.3331	17733.75	16817.25
888.3005	1478.1493	17641.7	16726.3
888.4438	1479.9648	17583.75	16667.1
888.5871	1481.7795	17505.9	16588.55
888.7303	1483.5935	17441.05	16522.35
888.8736	1485.4067	17366.5	16448.95
889.0168	1487.2192	17343.4	16429.5
889.16	1489.031	17313.6	16394.85
889.3032	1490.842	17225.85	16312
889.4464	1492.6522	17213.45	16300.4
889.5896	1494.4618	17153.35	16236.65
889.7327	1496.2705	17103.8	16188.2
889.8759	1498.0785	17070.15	16153.15
890.019	1499.8858	16996.15	16078.75
890.1622	1501.6924	16937.75	16024.05
890.3053	1503.4981	16875.85	15960.75
890.4484	1505.3032	16846.55	15931.6
890.5914	1507.1075	16782.45	15866.1
890.7345	1508.911	16738.95	15824.05
890.8776	1510.7138	16675.65	15757.85
891.0206	1512.5159	16617.15	15701.1
891.1637	1514.3172	16537.95	15622.25
891.3067	1516.1178	16453.75	15537.6
891.4497	1517.9176	16438.6	15521.8
891.5927	1519.7166	16398.15	15484.75
891.7357	1521.515	16319.5	15399.9
891.8786	1523.3126	16271.15	15358.25
892.0216	1525.1094	16207.85	15293.65
892.1645	1526.9055	16143.4	15230.95
892.3074	1528.7008	16097.8	15185.35
892.4503	1530.4954	16034.2	15115.5
892.5932	1532.2893	16004.3	15093.75
892.7361	1534.0824	15954.85	15039.65
892.879	1535.8747	15895.4	14985.9
893.0218	1537.6663	15872.5	14962.05
893.1647	1539.4572	15790.75	14879.15
893.3075	1541.2473	15786.55	14874.9
893.4503	1543.0367	15782.5	14872.35
893.5931	1544.8253	15690.15	14775.7
893.7359	1546.6132	15713.8	14798.4
893.8787	1548.4003	15655.4	14731.25
894.0214	1550.1867	15679.15	14762.8
894.1642	1551.9723	15705.8	14791.8
894.3069	1553.7572	15711.9	14799.95
894.4496	1555.5414	15734.6	14826.75
894.5923	1557.3247	15806.55	14899.1
894.735	1559.1074	15870.05	14964.55
894.8777	1560.8893	15959.55	15053
895.0204	1562.6705	15995.7	15087.6
895.163	1564.4509	16076	15169.5
895.3056	1566.2305	16059.5	15156.85
895.4482	1568.0094	16125.8	15222.65
895.5908	1569.7876	16085.3	15178.15
895.7334	1571.565	16061.1	15152.85
895.876	1573.3417	16040.9	15132.9
896.0186	1575.1176	16010.75	15106.5
896.1611	1576.8928	15988.25	15085.35
896.3036	1578.6672	15936.3	15037.05
896.4461	1580.4409	15897.2	14997.2
896.5886	1582.2138	15890.05	14986.05
896.7311	1583.986	15903.25	15000.5
896.8736	1585.7575	15934.35	15030.2
897.0161	1587.5282	15930.5	15027.05
897.1585	1589.2981	15982.35	15081.05
897.3009	1591.0673	16001.7	15101.1
897.4433	1592.8358	16039.45	15138.15
897.5857	1594.6035	16067.35	15162.6
897.7281	1596.3704	16099.65	15196.3
897.8705	1598.1366	16093.7	15190.25
898.0128	1599.9021	16126	15223.2
898.1551	1601.6668	16109.6	15206.2
898.2975	1603.4308	16169.1	15262.15
898.4398	1605.194	16271	15363.75
898.5821	1606.9564	16366.5	15467.9
898.7243	1608.7182	16507	15607.65
898.8666	1610.4791	16652.7	15758.4
899.0088	1612.2394	16811.35	15916.85
899.1511	1613.9988	16983.75	16087.5
899.2933	1615.7576	17192.35	16293
899.4355	1617.5156	17343.2	16433.1
899.5776	1619.2728	17400.2	16496
899.7198	1621.0293	17286.05	16385.45
899.862	1622.785	17126.45	16224.8
900.0041	1624.54	16851.4	15952.5
900.1462	1626.2942	16594.05	15697.6
900.2883	1628.0477	16286.3	15385.4
900.4304	1629.8005	15988.45	15086.75
900.5725	1631.5525	15767.6	14869.1
900.7145	1633.3037	15500.3	14603.15
900.8566	1635.0542	15340.15	14441.1
900.9986	1636.804	15186.1	14287.45
901.1406	1638.553	15160.2	14190.4
901.2826	1640.3013	15009.75	14109.85
901.4245	1642.0488	14927.35	14026.65
901.5665	1643.7955	14917.15	14021.25
901.7085	1645.5416	14883.5	13986.2
901.8504	1647.2868	14945.5	14047.95
901.9923	1649.0313	14958.9	14059.25
902.1342	1650.7751	15025.25	14123.9
902.2761	1652.5181	15115.75	14220.8
902.4179	1654.2604	15170.8	14274.7
902.5598	1656.0019	15253	14355.8
902.7016	1657.7427	15387.1	14489.75
902.8434	1659.4828	15542.8	14645.75
902.9852	1661.222	15639.6	14740.7
903.127	1662.9606	15567.25	14668.2
903.2687	1664.6984	15438.3	14536.3
903.4105	1666.4354	15156.75	14255.1
903.5522	1668.1717	14807.35	13908.25
903.6939	1669.9072	14417.4	13517.35
903.8356	1671.642	14075.15	13172
903.9773	1673.3761	13795.15	12896.4
904.119	1675.1094	13563.35	12663.55
904.2606	1676.8419	13378.95	12481.85
904.4022	1678.5737	13217.6	12318.25
904.5439	1680.3048	13117.75	12220.85
904.6855	1682.0351	12950	12051.45
904.827	1683.7646	12884.5	11982.2
904.9686	1685.4934	12793.2	11896.75
905.1101	1687.2215	12713.55	11814.75
905.2517	1688.9488	12596.25	11698.6
905.3932	1690.6754	12520.3	11624.75
905.5347	1692.4012	12493.95	11595.2
905.6761	1694.1263	12442.75	11543.65
905.8176	1695.8506	12390.45	11491.95
905.9591	1697.5742	12358.75	11462.8
906.1005	1699.297	12286.05	11392.9
906.2419	1701.0191	12224.95	11331.1
906.3833	1702.7404	12162.6	11269.65
906.5246	1704.461	12070.6	11170.9
906.666	1706.1808	12049	11150.35
906.8073	1707.8999	11994.1	11097.55
906.9487	1709.6182	11960.25	11067.1
907.09	1711.3358	11903.65	11008.55
907.2313	1713.0527	11867.7	10975.15
907.3725	1714.7688	11820.1	10920.5
907.5138	1716.4841	11758.05	10862.4
907.655	1718.1987	11761.65	10861.3
907.7962	1719.9126	11711.95	10818.75
907.9374	1721.6257	11659.75	10764.05
908.0786	1723.338	11628.05	10735.3
908.2198	1725.0496	11578.45	10684.8
908.3609	1726.7605	11563.8	10670.3
908.502	1728.4706	11515.7	10619.55
908.6431	1730.18	11467.4	10571.55
908.7842	1731.8886	11436.65	10542.9
908.9253	1733.5964	11415.2	10516.1
909.0664	1735.3036	11379.6	10482.9
909.2074	1737.0099	11370.05	10476.75
909.3484	1738.7156	11338.5	10445.75
909.4894	1740.4204	11266.7	10371.2
909.6304	1742.1246	11237.6	10343.2
909.7714	1743.8279	11233.6	10340.5
909.9123	1745.5306	11182.4	10288.55
910.0532	1747.2325	11186.45	10293.25
910.1941	1748.9336	11110	10217.5
910.335	1750.634	11061.8	10166.35
910.4759	1752.3336	11041.1	10148.05
910.6168	1754.0325	11044.05	10153.25
910.7576	1755.7307	10992.5	10100.95
910.8984	1757.4281	10996.7	10103.85
911.0392	1759.1247	10974.35	10070.45
911.18	1760.8206	10993.45	10092.9
911.3208	1762.5158	10949.65	10050
911.4615	1764.2102	10902.75	10006.85
911.6022	1765.9039	10878.9	9986.85
911.7429	1767.5968	10875.95	9984.35
911.8836	1769.289	10803.35	9911.7
912.0243	1770.9804	10780.75	9887.55
912.1649	1772.6711	10802.75	9906.95
912.3056	1774.361	10751.75	9856.75
912.4462	1776.0502	10737.15	9841.3
912.5868	1777.7386	10722.55	9825.5
912.7274	1779.4263	10663.9	9770.85
912.8679	1781.1132	10666.7	9777.2
913.0084	1782.7994	10612.1	9718.9
913.149	1784.4849	10584.2	9693
913.2895	1786.1696	10550.35	9651.9
913.4299	1787.8535	10514.7	9623.4
913.5704	1789.5367	10520.9	9629.55
913.7108	1791.2192	10513.7	9624.55
913.8513	1792.9009	10484.4	9566.8
913.9917	1794.5818	10455.7	9562.15
914.132	1796.2621	10430.3	9535.05
914.2724	1797.9415	10405.3	9511
914.4128	1799.6202	10358.8	9464.75
914.5531	1801.2982	10379.3	9486.3
914.6934	1802.9755	10329.5	9434.9
914.8337	1804.6519	10319.65	9427.1
914.9739	1806.3277	10278.5	9385.1
915.1142	1808.0027	10237.65	9348.05
915.2544	1809.6769	10232.7	9341.05
915.3946	1811.3504	10190.55	9297.9
915.5348	1813.0231	10192.65	9302.45
915.675	1814.6951	10157.1	9265.85
915.8151	1816.3664	10166.9	9272.95
915.9553	1818.0369	10118.4	9223.75
916.0954	1819.7067	10095.65	9202.25
916.2355	1821.3757	10079.65	9183.8
916.3755	1823.044	10079.95	9184.6
916.5156	1824.7115	10070.2	9176.05
916.6556	1826.3783	10039.95	9147.75
916.7956	1828.0443	9979.8	9088.1
916.9356	1829.7096	9970.4	9080.5
917.0756	1831.3741	9963.5	9068.65
917.2155	1833.0379	9959	9067.5
917.3555	1834.701	9886.25	8995.65
917.4954	1836.3633	9897.6	9004.55
917.6353	1838.0248	9854.55	8962.55
917.7751	1839.6856	9840.3	8947.5
917.915	1841.3457	9860.25	8970.7
918.0548	1843.005	9820.95	8928.85
918.1946	1844.6636	9824.1	8931.4
918.3344	1846.3214	9802.7	8910.15
918.4742	1847.9785	9789.45	8896.4
918.6139	1849.6349	9750.5	8856.8
918.7537	1851.2904	9728.9	8826.3
918.8934	1852.9453	9707.2	8812.95
919.0331	1854.5994	9666.5	8772.8
919.1727	1856.2528	9680.3	8781.95
919.3124	1857.9054	9663.4	8769.9
919.452	1859.5572	9627.5	8736.25
919.5916	1861.2083	9638.2	8745.45
919.7312	1862.8587	9627.15	8734.25
919.8708	1864.5084	9608.85	8715.6
920.0103	1866.1572	9582.4	8689
920.1498	1867.8054	9519.6	8627.4
920.2893	1869.4528	9491.25	8596
920.4288	1871.0994	9489.75	8596.4
920.5683	1872.7453	9487.85	8595.1
920.7077	1874.3905	9449	8548.9
920.8471	1876.0349	9450	8556.2
920.9865	1877.6786	9439.05	8542.4
921.1259	1879.3215	9414.3	8520.3
921.2653	1880.9637	9417	8525.2
921.4046	1882.6051	9363.7	8472.1
921.5439	1884.2458	9335.7	8441.8
921.6832	1885.8858	9309.15	8416.5
921.8225	1887.525	9302.9	8408.95
921.9617	1889.1634	9276.6	8382.9
922.101	1890.8011	9248.65	8354.55
922.2402	1892.4381	9229.6	8336.25
922.3794	1894.0743	9225.8	8334.4
922.5185	1895.7098	9188.4	8296.75
922.6577	1897.3446	9187.25	8292.95
922.7968	1898.9786	9167.8	8270.6
922.9359	1900.6118	9158.5	8266.65
923.075	1902.2443	9090.85	8196
923.214	1903.8761	9066.55	8174.3
923.3531	1905.5071	9023.5	8130.95
923.4921	1907.1374	9028.95	8135.65
923.6311	1908.7669	9019.4	8127.6
923.77	1910.3957	8998.2	8105.7
923.909	1912.0237	8952.55	8060.25
924.0479	1913.651	8924.95	8033.25
924.1868	1915.2776	8914.25	8023.6
924.3257	1916.9034	8873.2	7984
924.4646	1918.5285	8816.7	7925.05
924.6034	1920.1528	8801.5	7908.65
924.7422	1921.7764	8795.55	7903.2
924.881	1923.3992	8777.85	7886.2
925.0198	1925.0213	8709.45	7816.35
925.1586	1926.6427	8674.9	7782.9
925.2973	1928.2633	8716.5	7756.55
925.436	1929.8832	8648	7756.65
925.5747	1931.5023	8631.8	7738.55
925.7134	1933.1207	8585.9	7695.9
925.852	1934.7383	8590.2	7696.95
925.9906	1936.3552	8551.8	7662.05
926.1292	1937.9714	8535	7643.05
926.2678	1939.5868	8520.95	7625.25
926.4064	1941.2015	8469.9	7577.7
926.5449	1942.8154	8432.75	7539.85
926.6834	1944.4286	8407.6	7514.7
926.8219	1946.041	8410.2	7496.3
926.9604	1947.6528	8349.05	7451.3
927.0988	1949.2637	8329.25	7438.2
927.2372	1950.8739	8294.9	7403.15
927.3756	1952.4834	8271.3	7380.2
927.514	1954.0921	8266.2	7377.5
927.6523	1955.7001	8240.3	7345.75
927.7907	1957.3074	8236.75	7347.3
927.929	1958.9139	8184.5	7295.95
928.0673	1960.5197	8162.9	7270.25
928.2055	1962.1247	8142.8	7254.1
928.3438	1963.729	8108.1	7218.65
928.482	1965.3325	8101.45	7187.25
928.6202	1966.9353	8043.25	7154.4
928.7584	1968.5374	8036.05	7144.85
928.8965	1970.1387	8032.2	7142.3
929.0346	1971.7393	8001.3	7108.9
929.1727	1973.3392	7958.2	7068.65
929.3108	1974.9383	7933.75	7046.95
929.4489	1976.5366	7901.45	7014.3
929.5869	1978.1342	7905.6	7017.15
929.7249	1979.7311	7907	7016.7
929.8629	1981.3273	7855.45	6965
930.0009	1982.9227	7839.9	6950.35
930.1388	1984.5173	7794.2	6906.1
930.2767	1986.1112	7795.4	6908.15
930.4146	1987.7044	7780.95	6892.9
930.5525	1989.2968	7752.45	6863.75
930.6904	1990.8885	7737.95	6846
930.8282	1992.4795	7716.45	6826.35
930.966	1994.0697	7697.3	6809.3
931.1038	1995.6592	7674.2	6787.25
931.2415	1997.2479	7671.05	6781.4
931.3793	1998.8359	7630.95	6744.5
931.517	2000.4232	7604.35	6719.35
931.6547	2002.0097	7602.95	6718.45
931.7923	2003.5955	7565.2	6679.45
931.93	2005.1805	7569.2	6681.35
932.0676	2006.7648	7538.05	6651.6
932.2052	2008.3484	7505.25	6617.1
932.3427	2009.9312	7507.25	6617.45
932.4803	2011.5133	7457.6	6573.65
932.6178	2013.0946	7461.8	6574.9
932.7553	2014.6752	7444.05	6560.3
932.8928	2016.2551	7444.8	6556.65
933.0302	2017.8342	7379.7	6493
933.1676	2019.4126	7380.3	6495.95
933.305	2020.9902	7360.65	6476.8
933.4424	2022.5672	7342.05	6455
933.5798	2024.1433	7335.55	6444.35
933.7171	2025.7188	7283.8	6399.9
933.8544	2027.2935	7271.25	6384.8
933.9917	2028.8674	7251.85	6367.6
934.129	2030.4406	7216.45	6331.85
934.2662	2032.0131	7193.3	6310.25
934.4034	2033.5849	7175.25	6282
934.5406	2035.1559	7192.45	6308.55
934.6778	2036.7261	7175	6289
934.8149	2038.2957	7148.3	6261.65
934.952	2039.8645	7127.3	6241.35
935.0891	2041.4325	7142.25	6249.25
935.2262	2042.9998	7110.15	6225.9
935.3632	2044.5664	7092.75	6203.05
935.5002	2046.1323	7069.05	6182.9
935.6372	2047.6974	7052.35	6167.55
935.7742	2049.2617	7015.05	6131.15
935.9111	2050.8254	7032.65	6142.4
936.048	2052.3883	7026.25	6138.6
936.1849	2053.9504	6987.65	6101.65
936.3218	2055.5118	6970.95	6081.1
936.4586	2057.0725	6946	6055.05
936.5955	2058.6325	6913.05	6025.75
936.7323	2060.1917	6900.7	6015.3
936.869	2061.7502	6901.2	6012.65
937.0058	2063.3079	6890.7	6005.1
937.1425	2064.8649	6856.25	5966.15
937.2792	2066.4212	6844.9	5959.25
937.4159	2067.9767	6839.45	5953.65
937.5525	2069.5315	6802.9	5915.25
937.6891	2071.0856	6771	5885.4
937.8257	2072.6389	6751.55	5866.5
937.9623	2074.1915	6720.35	5835.95
938.0989	2075.7433	6707.25	5819.9
938.2354	2077.2945	6700.05	5815.5
938.3719	2078.8448	6669	5782.05
938.5084	2080.3945	6651.2	5764.15
938.6448	2081.9434	6648.2	5758.8
938.7812	2083.4916	6620.5	5729.8
938.9176	2085.039	6592.45	5699.85
939.054	2086.5857	6588	5698.45
939.1903	2088.1317	6579.3	5688.05
939.3267	2089.677	6561.3	5670.55
939.463	2091.2215	6562.1	5671.95
939.5992	2092.7652	6541.55	5648.8
939.7355	2094.3083	6523.3	5633.15
939.8717	2095.8506	6507.3	5618.6
940.0079	2097.3921	6493.7	5605.25
940.1441	2098.933	6471.95	5582.55
940.2802	2100.4731	6470	5581.15
940.4163	2102.0124	6461.2	5565.8
940.5524	2103.5511	6439.5	5550.4
940.6885	2105.089	6429.65	5540.55
940.8245	2106.6261	6416.05	5528.6
940.9606	2108.1626	6408.95	5520.25
941.0965	2109.6983	6411.2	5491.2
941.2325	2111.2332	6364.6	5474.2
941.3684	2112.7675	6368.8	5476.2
941.5044	2114.301	6349.9	5462.15
941.6403	2115.8337	6340.7	5451.35
941.7761	2117.3657	6333.35	5445.3
941.912	2118.897	6324.55	5433.5
942.0478	2120.4276	6297.5	5400.6
942.1835	2121.9575	6264.55	5372
942.3193	2123.4866	6273.6	5381.3
942.455	2125.0149	6264.15	5375
942.5907	2126.5426	6216.9	5329.65
942.7264	2128.0695	6209.75	5319.4
942.8621	2129.5956	6203.25	5318.35
942.9977	2131.1211	6209.3	5318.35
943.1333	2132.6458	6175.4	5286
943.2689	2134.1698	6125.8	5234.5
943.4044	2135.693	6146.05	5255.95
943.54	2137.2155	6132.9	5240.75
943.6755	2138.7373	6129.3	5240.85
943.8109	2140.2584	6084.05	5196.15
943.9464	2141.7787	6092.2	5199.6
944.0818	2143.2983	6047.15	5159.8
944.2172	2144.8171	6015.75	5135.35
944.3526	2146.3353	6019.7	5129.65
944.4879	2147.8527	6007.75	5120.75
944.6232	2149.3693	5985.1	5095.9
944.7585	2150.8853	5972.2	5082
944.8938	2152.4005	5945.9	5055.3
945.029	2153.9149	5942.75	5051.3
945.1642	2155.4287	6014.2	5016.1
945.2994	2156.9417	5927.1	5034.15
945.4346	2158.454	5924.6	5034.2
945.5697	2159.9655	5877.05	4988.7
945.7048	2161.4764	5898.6	5011.2
945.8399	2162.9865	5876.8	4990.05
945.9749	2164.4958	5848	4957.95
946.1099	2166.0045	5830.05	4940.2
946.2449	2167.5124	5830.65	4939.25
946.3799	2169.0195	5803.45	4914.9
946.5148	2170.526	5792.7	4901.55
946.6498	2172.0317	5786.45	4897.4
946.7846	2173.5367	5767.55	4876.5
946.9195	2175.0409	5764.6	4877.3
947.0543	2176.5445	5744.6	4856.2
947.1891	2178.0473	5752.55	4863.3
947.3239	2179.5494	5715.65	4821
947.4587	2181.0507	5688.8	4797.5
947.5934	2182.5513	5679.2	4788.9
947.7281	2184.0512	5665.45	4775.6
947.8628	2185.5504	5656.3	4766.8
947.9974	2187.0488	5628	4738.95
948.132	2188.5465	5600.45	4711.6
948.2666	2190.0435	5607.5	4718.65
948.4012	2191.5397	5590.6	4699.75
948.5357	2193.0353	5579.1	4688.7
948.6702	2194.5301	5555.9	4664.95
948.8047	2196.0241	5539.7	4646.5
948.9392	2197.5175	5514.15	4623.25
949.0736	2199.0101	5501.2	4606.4
949.208	2200.502	5466.9	4577.55
949.3424	2201.9931	5478.5	4589.85
949.4767	2203.4835	5441.9	4552.15
949.611	2204.9733	5449.9	4543.8
949.7453	2206.4622	5422.05	4533
949.8796	2207.9505	5399.65	4509.65
950.0138	2209.438	5363.7	4478.3
950.148	2210.9248	5373.1	4485.3
950.2822	2212.4109	5356.6	4467.95
950.4164	2213.8962	5322.7	4429.75
950.5505	2215.3809	5328.9	4435.3
950.6846	2216.8648	5302.8	4409.3
950.8186	2218.3479	5291.7	4393.35
950.9527	2219.8304	5268.35	4372.75
951.0867	2221.3121	5265.2	4371.55
951.2207	2222.7931	5260.6	4370.35
951.3546	2224.2733	5231.4	4343.45
951.4886	2225.7529	5220.65	4331.85
951.6225	2227.2317	5206.35	4315.85
951.7563	2228.7098	5191.45	4303.35
951.8902	2230.1872	5168.85	4282.4
952.024	2231.6638	5179.3	4288.85
952.1578	2233.1397	5156.8	4263.6
952.2916	2234.6149	5142.9	4255.35
952.4253	2236.0894	5119.45	4229.2
952.559	2237.5632	5115.65	4225.6
952.6927	2239.0362	5091.15	4202.85
952.8263	2240.5085	5078.8	4189.95
952.9599	2241.9801	5068.55	4179.3
953.0935	2243.4509	5054.8	4165.7
953.2271	2244.921	5032.15	4140.2
953.3606	2246.3904	5013.2	4118.35
953.4941	2247.8591	5017.7	4127.15
953.6276	2249.3271	4993.65	4106
953.7611	2250.7943	5001.4	4109.2
953.8945	2252.2608	4970.65	4080.15
954.0279	2253.7266	4939.2	4049.95
954.1612	2255.1917	4957.1	4066.3
954.2946	2256.656	4935.6	4046.05
954.4279	2258.1197	4913.25	4026.35
954.5612	2259.5826	4912	4020.1
954.6944	2261.0447	4907.35	4015.6
954.8276	2262.5062	4882.2	3989.7
954.9608	2263.9669	4857.95	3966.8
955.094	2265.4269	4874.65	3983.9
955.2271	2266.8862	4847.55	3955.75
955.3602	2268.3448	4831.05	3942.8
955.4933	2269.8026	4836.3	3947.1
955.6264	2271.2598	4823.15	3934
955.7594	2272.7162	4802.85	3915.1
955.8924	2274.1719	4792.45	3903.75
956.0253	2275.6268	4779.7	3888.85
956.1583	2277.0811	4782.7	3889.85
956.2912	2278.5346	4768.5	3878.5
956.4241	2279.9874	4761.8	3874.3
956.5569	2281.4395	4748.6	3862.4
956.6897	2282.8908	4745.5	3850.95
956.8225	2284.3414	4729.95	3838.85
956.9553	2285.7914	4693.3	3803.9
957.088	2287.2406	4712.15	3821.7
957.2207	2288.689	4687.15	3795.6
957.3534	2290.1368	4659.55	3764.05
957.486	2291.5838	4664.45	3769.45
957.6186	2293.0302	4659.6	3765.8
957.7512	2294.4758	4629.3	3738.05
957.8838	2295.9206	4638.55	3745.9
958.0163	2297.3648	4612.55	3723.9
958.1488	2298.8082	4596.75	3706.95
958.2813	2300.251	4606.55	3713.35
958.4137	2301.693	4597.95	3703
958.5461	2303.1343	4586.6	3693.55
958.6785	2304.5748	4570.55	3681.1
958.8108	2306.0147	4545.2	3655.6
958.9432	2307.4538	4535.3	3643.7
959.0754	2308.8922	4519.3	3630.9
959.2077	2310.3299	4505.4	3616.25
959.3399	2311.7669	4488.9	3602
959.4721	2313.2031	4490.7	3600.95
959.6043	2314.6387	4464.4	3571.55
959.7365	2316.0735	4451.9	3561.8
959.8686	2317.5076	4451	3559.15
960.0006	2318.941	4436.7	3544.45
960.1327	2320.3737	4435.1	3541.05
960.2647	2321.8056	4437.65	3546.05
960.3967	2323.2369	4404.65	3514.35
960.5287	2324.6674	4396.55	3504.35
960.6606	2326.0972	4381.35	3488.75
960.7925	2327.5263	4383.65	3493.2
960.9244	2328.9547	4381.2	3487.8
961.0562	2330.3823	4347.7	3458.3
961.1881	2331.8092	4363.95	3466.4
961.3198	2333.2355	4341.75	3448.85
961.4516	2334.661	4328.4	3435.25
961.5833	2336.0858	4316.7	3423.5
961.715	2337.5098	4303.2	3410.05
961.8467	2338.9332	4293.1	3402.05
961.9783	2340.3558	4291	3399.2
962.1099	2341.7778	4268.85	3378.05
962.2415	2343.199	4260	3365.75
962.373	2344.6195	4262.4	3372.5
962.5045	2346.0393	4234.85	3345.5
962.636	2347.4583	4225.9	3333.6
962.7675	2348.8767	4225.05	3334.9
962.8989	2350.2943	4230.65	3337.65
963.0303	2351.7113	4215.3	3321.9
963.1617	2353.1275	4199.7	3305.6
963.293	2354.543	4211.15	3293.2
963.4243	2355.9578	4186.15	3294.5
963.5556	2357.3718	4156.45	3265.6
963.6868	2358.7852	4145.25	3252.65
963.818	2360.1978	4119.3	3229.3
963.9492	2361.6098	4140.45	3251.45
964.0803	2363.021	4122.3	3227.75
964.2114	2364.4315	4096.25	3206.85
964.3425	2365.8413	4094.8	3202.7
964.4736	2367.2504	4094.95	3205.35
964.6046	2368.6587	4067.5	3177.3
964.7356	2370.0664	4054.4	3163.6
964.8666	2371.4733	4043.3	3152.2
964.9975	2372.8795	4034.25	3144.25
965.1284	2374.285	4013.5	3123.65
965.2593	2375.6899	4010.2	3119.55
965.3901	2377.0939	3977.45	3088.15
965.5209	2378.4973	3978.8	3088.3
965.6517	2379.9	3973.8	3082.25
965.7825	2381.3019	3968	3078.9
965.9132	2382.7032	3948.45	3057.75
966.0439	2384.1037	3934.95	3048.6
966.1745	2385.5035	3927.1	3039.7
966.3051	2386.9027	3931.55	3043.55
966.4357	2388.3011	3921.3	3030.75
966.5663	2389.6987	3894.15	3004.75
966.6968	2391.0957	3886.7	2997.8
966.8273	2392.492	3876.25	2988.2
966.9578	2393.8876	3865.55	2975.75
967.0882	2395.2824	3858	2967.6
967.2186	2396.6765	3836.45	2945.5
967.349	2398.07	3821.8	2931.8
967.4793	2399.4627	3821.35	2930.3
967.6097	2400.8547	3819.2	2927.5
967.7399	2402.246	3803.5	2909.65
967.8702	2403.6366	3789	2898.7
968.0004	2405.0265	3767.45	2878.4
968.1306	2406.4156	3747.95	2855.9
968.2607	2407.8041	3751.15	2856.35
968.3909	2409.1918	3737.35	2845.3
968.521	2410.5789	3731.35	2838.75
968.651	2411.9652	3710.65	2817.4
968.781	2413.3508	3705.95	2815
968.911	2414.7358	3711.3	2819.15
969.041	2416.12	3681.65	2790.6
969.1709	2417.5035	3675.45	2786.55
969.3008	2418.8863	3662.55	2768.8
969.4307	2420.2684	3665.4	2775
969.5606	2421.6497	3626.3	2733.75
969.6904	2423.0304	3625.55	2737.3
969.8201	2424.4104	3615.3	2725.7
969.9499	2425.7896	3614.65	2723.1
970.0796	2427.1682	3615.7	2725.3
970.2093	2428.546	3605.6	2714.45
970.3389	2429.9232	3589.05	2694.4
970.4685	2431.2996	3595.15	2705.25
970.5981	2432.6753	3569.1	2678.75
970.7277	2434.0503	3574.8	2685.2
970.8572	2435.4246	3541.2	2650.75
970.9867	2436.7982	3535.35	2641.25
971.1161	2438.1711	3528.25	2638.25
971.2456	2439.5433	3535.25	2642.05
971.375	2440.9148	3524.9	2628.4
971.5043	2442.2856	3488.45	2596.1
971.6336	2443.6557	3509.9	2618.35
971.7629	2445.025	3482.1	2592.9
971.8922	2446.3937	3481.2	2590.45
972.0214	2447.7617	3463.65	2572.3
972.1506	2449.1289	3462.85	2574.35
972.2798	2450.4955	3453.4	2557.55
972.4089	2451.8613	3446.6	2557.95
972.538	2453.2265	3437.65	2545.5
972.6671	2454.5909	3439.45	2548.15
972.7961	2455.9546	3424	2534.05
972.9251	2457.3177	3413.1	2522.8
973.0541	2458.68	3416.6	2523.7
973.1831	2460.0416	3409.7	2517.1
973.312	2461.4025	3389.6	2499.05
973.4408	2462.7627	3392.55	2490.05
973.5697	2464.1222	3372.7	2486.15
973.6985	2465.4811	3366.9	2476.25
973.8273	2466.8392	3358.25	2470.2
973.956	2468.1966	3361.35	2468.6
974.0847	2469.5533	3362.1	2469.2
974.2134	2470.9093	3362.55	2470.75
974.3421	2472.2645	3347.5	2458.65
974.4707	2473.6191	3332.15	2442.1
974.5993	2474.973	3316.65	2427.35
974.7278	2476.3262	3319.35	2426.25
974.8563	2477.6787	3306.3	2417.65
974.9848	2479.0305	3295.25	2406.1
975.1132	2480.3816	3282.1	2391.15
975.2417	2481.7319	3270.3	2378.9
975.37	2483.0816	3262.3	2370.05
975.4984	2484.4306	3261.3	2370.35
975.6267	2485.7789	3259	2370.85
975.755	2487.1264	3228.95	2338.65
975.8833	2488.4733	3234.85	2346.2
976.0115	2489.8195	3238	2330.2
976.1397	2491.165	3214.85	2321.55
976.2678	2492.5097	3207.45	2315.05
976.3959	2493.8538	3190.1	2302.2
976.524	2495.1972	3191.7	2300.3
976.6521	2496.5398	3174.95	2282.5
976.7801	2497.8818	3171.8	2278.65
976.9081	2499.2231	3157.65	2265.75
977.036	2500.5637	3150.25	2256.05
977.164	2501.9035	3145.75	2253.25
977.2918	2503.2427	3134.35	2240.25
977.4197	2504.5812	3118	2229.05
977.5475	2505.919	3122.2	2229.2
977.6753	2507.256	3116.5	2225.85
977.8031	2508.5924	3110.7	2220.15
977.9308	2509.9281	3106.45	2209
978.0585	2511.2631	3089.25	2200.65
978.1861	2512.5974	3091	2202.75
978.3137	2513.9309	3069.4	2181.6
978.4413	2515.2638	3091.5	2174.45
978.5689	2516.596	3074.2	2182.35
978.6964	2517.9275	3044.45	2155.4
978.8239	2519.2583	3053.35	2163.1
978.9513	2520.5884	3047.7	2156.15
979.0788	2521.9178	3023.55	2133.75
979.2062	2523.2465	3024.35	2134
979.3335	2524.5745	3006.3	2116.15
979.4608	2525.9018	3013.55	2123.75
979.5881	2527.2284	2998.3	2107.9
979.7154	2528.5543	2993.25	2101.65
979.8426	2529.8796	2988.6	2098.65
979.9698	2531.2041	2983.2	2092.35
980.0969	2532.5279	2974.5	2086.6
980.224	2533.851	2981.15	2090.5
980.3511	2535.1735	2973.7	2085.45
980.4781	2536.4952	2962.05	2070.45
980.6052	2537.8163	2946.4	2054
980.7321	2539.1366	2954.5	2063.8
980.8591	2540.4562	2945.15	2052.05
980.986	2541.7752	2940.9	2050.9
981.1129	2543.0935	2928	2036.8
981.2397	2544.411	2934.1	2042.35
981.3665	2545.7279	2924.9	2034.4
981.4933	2547.0441	2916.75	2024.95
981.62	2548.3596	2930.3	2037.1
981.7467	2549.6744	2906.5	2012.15
981.8734	2550.9885	2905.55	2013.1
982.0001	2552.3019	2892.75	2001.5
982.1267	2553.6146	2901.25	2008.6
982.2532	2554.9266	2885.25	1993.95
982.3798	2556.2379	2872.55	1981.95
982.5063	2557.5485	2879.55	1991.1
982.6327	2558.8585	2868.9	1972.1
982.7592	2560.1677	2863.95	1969.6
982.8856	2561.4762	2861.3	1971.35
983.0119	2562.7841	2861.85	1967.9
983.1383	2564.0913	2850.6	1960.2
983.2646	2565.3977	2850.65	1960.25
983.3908	2566.7035	2847.85	1955.65
983.517	2568.0086	2843.85	1951.3
983.6432	2569.313	2837.1	1944.4
983.7694	2570.6167	2832.55	1940.05
983.8955	2571.9197	2827.6	1937
984.0216	2573.222	2827.35	1935.5
984.1476	2574.5236	2810.05	1919.3
984.2737	2575.8246	2806.85	1914.05
984.3996	2577.1248	2799.15	1906.2
984.5256	2578.4244	2803.6	1914.45
984.6515	2579.7232	2792.8	1901.9
984.7774	2581.0214	2815.35	1894.5
984.9032	2582.3189	2793.85	1904.75
985.029	2583.6157	2795.6	1900.2
985.1548	2584.9118	2790.7	1902
985.2806	2586.2072	2769.7	1879.35
985.4063	2587.5019	2771.7	1881.65
985.5319	2588.7959	2767.3	1877.9
985.6576	2590.0893	2764.2	1871.25
985.7832	2591.3819	2755.25	1864.45
985.9087	2592.6739	2760.3	1870.35
986.0343	2593.9652	2744.35	1849.3
986.1597	2595.2557	2744.25	1854.35
986.2852	2596.5456	2734.75	1841.9
986.4106	2597.8348	2727.7	1836.7
986.536	2599.1234	2720.3	1832.15
986.6614	2600.4112	2721.6	1833
986.7867	2601.6983	2716.6	1823.2
986.912	2602.9848	2698.6	1806.4
987.0372	2604.2705	2701.1	1804.05
987.1624	2605.5556	2688.3	1800
987.2876	2606.84	2693.55	1803.95
987.4128	2608.1237	2672.55	1782.15
987.5379	2609.4067	2673.05	1780.8
987.6629	2610.689	2669.75	1769.2
987.788	2611.9707	2653.05	1759.1
987.913	2613.2516	2659.15	1764.8
988.0379	2614.5319	2642.9	1754.6
988.1629	2615.8115	2630.45	1741.15
988.2878	2617.0903	2616.6	1726.35
988.4126	2618.3685	2621	1731.05
988.5375	2619.6461	2607.9	1717.65
988.6622	2620.9229	2599.55	1710.5
988.787	2622.199	2603.75	1712
988.9117	2623.4745	2603.75	1711.6
989.0364	2624.7493	2600.4	1711.15
989.161	2626.0234	2593.45	1704.95
989.2857	2627.2968	2571.75	1681.85
989.4102	2628.5695	2575.65	1685
989.5348	2629.8415	2569.6	1680.85
989.6593	2631.1128	2551.2	1661.3
989.7837	2632.3835	2539.6	1648.9
989.9082	2633.6535	2536.65	1647.75
990.0326	2634.9228	2538	1648.55
990.1569	2636.1914	2519.4	1630.35
990.2812	2637.4593	2526.65	1636.3
990.4055	2638.7265	2513.15	1625.15
990.5298	2639.9931	2511.75	1622.6
990.654	2641.259	2519.75	1629.2
990.7782	2642.5242	2507.65	1617.15
990.9023	2643.7887	2501.45	1611.95
991.0264	2645.0525	2499.35	1610.3
991.1505	2646.3156	2498.2	1594.55
991.2745	2647.5781	2488.8	1599.1
991.3985	2648.8398	2476.8	1589
991.5225	2650.1009	2478	1564.45
991.6464	2651.3613	2479.85	1590.5
991.7703	2652.6211	2473.75	1584.65
991.8942	2653.8801	2453.65	1567.85
992.018	2655.1385	2453.45	1560.9
992.1418	2656.3961	2451.25	1563.05
992.2655	2657.6531	2423.85	1536.2
992.3892	2658.9094	2442.85	1556.2
992.5129	2660.1651	2436.45	1548.7
992.6366	2661.42	2437.6	1546.9
992.7602	2662.6743	2444.15	1555.2
992.8837	2663.9279	2428.5	1540.95
993.0073	2665.1808	2429.95	1540.35
993.1307	2666.433	2421.95	1533.05
993.2542	2667.6846	2419.6	1530.5
993.3776	2668.9354	2426.9	1535.65
993.501	2670.1856	2421.55	1530.45
993.6244	2671.4351	2422.25	1534.1
993.7477	2672.6839	2409.6	1520.25
993.8709	2673.9321	2406.45	1516.9
993.9942	2675.1795	2405.95	1519.8
994.1174	2676.4263	2393.75	1506.55
994.2405	2677.6724	2389.6	1503
994.3637	2678.9179	2385.5	1494.4
994.4868	2680.1626	2387.65	1499
994.6098	2681.4067	2378.65	1489.6
994.7328	2682.6501	2364.3	1476.9
994.8558	2683.8928	2368.1	1478.1
994.9788	2685.1348	2359.2	1471.05
995.1017	2686.3761	2348.05	1460.15
995.2245	2687.6168	2342.2	1455.45
995.3474	2688.8568	2340.45	1451.35
995.4702	2690.0961	2338.5	1451
995.5929	2691.3348	2343.25	1454.15
995.7156	2692.5727	2329.3	1438.85
995.8383	2693.81	2317.4	1429.7
995.961	2695.0466	2304.05	1416.85
996.0836	2696.2826	2304.95	1414.25
996.2062	2697.5178	2312.75	1423.45
996.3287	2698.7524	2294.05	1403.4
996.4512	2699.9863	2301.95	1410.5
996.5737	2701.2195	2288.15	1402.65
996.6961	2702.452	2301.5	1412.5
996.8185	2703.6839	2292.25	1402.15
996.9408	2704.9151	2291	1402.75
997.0631	2706.1456	2286.65	1397.25
997.1854	2707.3755	2296.25	1407.5
997.3077	2708.6046	2293.65	1403.9
997.4299	2709.8331	2288.55	1399.9
997.552	2711.0609	2276.35	1385.65
997.6742	2712.2881	2286.25	1395.5
997.7963	2713.5145	2305.25	1414.15
997.9183	2714.7403	2296	1407.95
998.0403	2715.9654	2298.25	1409.25
998.1623	2717.1899	2303.15	1400.1
998.2842	2718.4136	2297.35	1407.5
998.4062	2719.6367	2291.7	1404.5
998.528	2720.8591	2302.4	1406.4
998.6498	2722.0809	2300.85	1412.95
998.7716	2723.3019	2303.65	1412.3
998.8934	2724.5223	2305.4	1415.1
999.0151	2725.7421	2302.85	1412.65
999.1368	2726.9611	2299.65	1408.35
999.2584	2728.1795	2290.95	1397.6
999.38	2729.3972	2289	1402.2
999.5016	2730.6142	2286.45	1391.1
999.6231	2731.8306	2261.75	1373.35
999.7446	2733.0462	2262.15	1372.25
999.8661	2734.2612	2237.25	1343.55
999.9875	2735.4756	2222.35	1332.7
1000.1089	2736.6892	2205.05	1315.8
1000.2302	2737.9022	2197.25	1312.4
1000.3515	2739.1145	2180.15	1291.85
1000.4728	2740.3262	2183.55	1287.75
1000.594	2741.5372	2158.95	1272.6
1000.7152	2742.7475	2157.45	1268.05
1000.8363	2743.9571	2145.9	1255.65
1000.9575	2745.1661	2147.35	1254.35
1001.0785	2746.3744	2130.6	1241.2
1001.1996	2747.582	2117.15	1229.95
1001.3206	2748.7889	2112.35	1224.9
1001.4415	2749.9952	2102	1214.25
1001.5625	2751.2008	2102.85	1215.6
1001.6833	2752.4057	2096.75	1206
1001.8042	2753.61	2091.1	1202.8
1001.925	2754.8136	2079.65	1189.5
1002.0458	2756.0165	2075.8	1188.2
1002.1665	2757.2188	2061.25	1175.35
1002.2872	2758.4204	2069.55	1183.05
1002.4078	2759.6213	2061.7	1173.2
1002.5285	2760.8215	2060.8	1168.8
1002.649	2762.0211	2058.3	1169.75
1002.7696	2763.22	2053	1161.85
1002.8901	2764.4182	2038.65	1148.6
1003.0106	2765.6158	2044.3	1157.55
1003.131	2766.8127	2038.55	1150.2
1003.2514	2768.009	2037.25	1150.25
1003.3717	2769.2045	2027.6	1139.3
1003.492	2770.3994	2026.15	1136.35
1003.6123	2771.5936	2019.3	1132.4
1003.7325	2772.7872	2010.35	1122.55
1003.8527	2773.9801	2010.35	1120.45
1003.9729	2775.1723	2006.65	1101.65
1004.093	2776.3639	1999.9	1111.2
1004.2131	2777.5548	1989.25	1099.3
1004.3331	2778.745	1993.95	1106.45
1004.4531	2779.9346	1992.2	1107.15
1004.5731	2781.1235	1988.95	1100.55
1004.693	2782.3117	1988.7	1102.1
1004.8129	2783.4992	1974.2	1087.5
1004.9328	2784.6861	1978.25	1090
1005.0526	2785.8723	1978.2	1091.7
1005.1723	2787.0579	1973.55	1084.7
1005.2921	2788.2428	1978.05	1090.75
1005.4118	2789.427	1979.55	1092.75
1005.5314	2790.6106	1985.55	1097.9
1005.651	2791.7935	1974.25	1085.35
1005.7706	2792.9757	1969.7	1083.35
1005.8902	2794.1573	1981.85	1091
1006.0097	2795.3382	1979.45	1091.55
1006.1291	2796.5184	1983.2	1097.55
1006.2485	2797.698	1980.1	1092.5
1006.3679	2798.8769	1999.75	1112.05
1006.4873	2800.0551	1987	1099.4
1006.6066	2801.2327	2000.5	1111.1
1006.7258	2802.4096	2002.45	1115.8
1006.8451	2803.5859	2014.4	1125.05
1006.9642	2804.7615	2011.6	1123.6
1007.0834	2805.9364	2022.7	1136.2
1007.2025	2807.1106	2030.65	1144.3
1007.3216	2808.2842	2031.25	1142.3
1007.4406	2809.4572	2048.7	1159.75
1007.5596	2810.6294	2073.9	1184.2
1007.6785	2811.801	2084.15	1197.25
1007.7975	2812.972	2111.45	1227.05
1007.9163	2814.1423	2128.65	1242.7
1008.0352	2815.3119	2154.15	1267.85
1008.154	2816.4808	2174.15	1288.05
1008.2727	2817.6491	2216.2	1327.35
1008.3914	2818.8167	2240.05	1354.85
1008.5101	2819.9837	2276.45	1385
1008.6288	2821.15	2306.6	1417.5
1008.7474	2822.3157	2335.2	1448.8
1008.8659	2823.4807	2363.15	1474.55
1008.9844	2824.645	2405.35	1518.6
1009.1029	2825.8086	2433.95	1548.8
1009.2214	2826.9716	2471.95	1587.55
1009.3398	2828.134	2504.75	1618.8
1009.4581	2829.2957	2531.75	1644.1
1009.5764	2830.4567	2547.85	1660.6
1009.6947	2831.617	2552.05	1667.9
1009.813	2832.7767	2554.45	1668.3
1009.9312	2833.9358	2554.05	1667.25
1010.0493	2835.0941	2553.2	1666.95
1010.1675	2836.2519	2542.25	1657.8
1010.2855	2837.4089	2526.2	1636.75
1010.4036	2838.5653	2518.45	1632.95
1010.5216	2839.7211	2500	1613.4
1010.6396	2840.8761	2501.7	1612.9
1010.7575	2842.0306	2510.8	1625.25
1010.8754	2843.1843	2521.15	1633.85
1010.9932	2844.3374	2538	1650.55
1011.111	2845.4899	2555.7	1666.7
1011.2288	2846.6417	2586.1	1700.8
1011.3465	2847.7928	2623.95	1738.45
1011.4642	2848.9433	2650.1	1765.6
1011.5818	2850.0931	2700.7	1814.1
1011.6995	2851.2422	2730.7	1844.35
1011.817	2852.3907	2764.6	1876
1011.9345	2853.5385	2787.45	1899.05
1012.052	2854.6857	2837.5	1944.25
1012.1695	2855.8323	2855.9	1970.45
1012.2869	2856.9781	2878.9	1993.5
1012.4042	2858.1233	2902.55	2016.6
1012.5216	2859.2679	2931.3	2043.95
1012.6389	2860.4118	2965.75	2079.5
1012.7561	2861.555	2992.3	2101.1
1012.8733	2862.6976	3018.15	2129.85
1012.9905	2863.8395	3039.3	2155.55
1013.1076	2864.9808	3063.75	2177.6
1013.2247	2866.1214	3075.1	2190.95
1013.3417	2867.2614	3074.8	2187.45
1013.4587	2868.4007	3068.4	2181.45
1013.5757	2869.5393	3086.35	2198.8
1013.6926	2870.6773	3100.65	2211
1013.8095	2871.8146	3105.25	2215.2
1013.9263	2872.9513	3095.6	2206.7
1014.0431	2874.0874	3094.9	2208.1
1014.1599	2875.2227	3072.65	2185.7
1014.2766	2876.3574	3066.35	2180.35
1014.3933	2877.4915	3036.05	2152
1014.51	2878.6249	3033.75	2146.5
1014.6266	2879.7577	3009.9	2123.6
1014.7431	2880.8898	3009.8	2112.75
1014.8596	2882.0212	2977.1	2091.95
1014.9761	2883.152	2974.15	2088.85
1015.0925	2884.2821	2957.25	2069.4
1015.2089	2885.4116	2951.85	2068.3
1015.3253	2886.5405	2953.75	2067.6
1015.4416	2887.6686	2959.4	2068.4
1015.5579	2888.7962	2948.15	2062.95
1015.6741	2889.923	2957.45	2072.35
1015.7903	2891.0493	2970	2084.3
1015.9065	2892.1748	2964.15	2079.35
1016.0226	2893.2997	2967.05	2081.6
1016.1387	2894.424	2963.05	2077.75
1016.2547	2895.5476	2980.45	2095.4
1016.3707	2896.6706	2992.4	2108.75
1016.4866	2897.7929	2994.6	2109.2
1016.6025	2898.9145	3017.2	2132.15
1016.7184	2900.0355	3026.85	2140.2
1016.8342	2901.1559	3037.85	2149.6
1016.95	2902.2756	3060.25	2173.15
1017.0658	2903.3946	3081.15	2194.85
1017.1815	2904.513	3101.2	2213.05
1017.2971	2905.6308	3098.95	2213.05
1017.4127	2906.7479	3113.9	2226.3
1017.5283	2907.8643	3129.35	2243.25
1017.6439	2908.9801	3133.55	2249.4
1017.7594	2910.0953	3125	2238.4
1017.8748	2911.2098	3134.25	2247.5
1017.9902	2912.3236	3122.1	2228.8
1018.1056	2913.4368	3115.8	2224.55
1018.2209	2914.5494	3091.85	2206.25
1018.3362	2915.6613	3079.9	2188.25
1018.4515	2916.7725	3059.35	2172.5
1018.5667	2917.8831	3035.05	2149.75
1018.6819	2918.9931	3012	2123.45
1018.797	2920.1024	2985.5	2098.95
1018.9121	2921.211	2988.1	2102.65
1019.0271	2922.319	2966.95	2081.8
1019.1421	2923.4264	2964.2	2079.2
1019.2571	2924.5331	2941.75	2057.75
1019.372	2925.6391	2938.05	2052.1
1019.4869	2926.7445	2946.35	2061.75
1019.6017	2927.8493	2938.6	2052.35
1019.7165	2928.9534	2936.85	2050.4
1019.8313	2930.0569	2942.15	2054.85
1019.946	2931.1597	2930	2045.6
1020.0606	2932.2619	2946.1	2061.4
1020.1753	2933.3634	2945.15	2062.2
1020.2899	2934.4643	2945.95	2053.15
1020.4044	2935.5645	2941.05	2049.05
1020.5189	2936.6641	2925.2	2034.05
1020.6334	2937.763	2898.45	2013.15
1020.7478	2938.8613	2878.15	1992.7
1020.8622	2939.959	2851.3	1960.4
1020.9765	2941.056	2808.55	1922.95
1021.0908	2942.1523	2768.6	1882.95
1021.2051	2943.248	2716.15	1829.55
1021.3193	2944.3431	2658.4	1773
1021.4334	2945.4375	2600.4	1716.65
1021.5476	2946.5313	2537.2	1652.35
1021.6617	2947.6244	2478	1593.25
1021.7757	2948.7169	2413.2	1528.45
1021.8897	2949.8087	2345.15	1460.15
1022.0037	2950.8999	2300.25	1415.75
1022.1176	2951.9904	2249.15	1364.2
1022.2315	2953.0803	2209.4	1324.75
1022.3453	2954.1696	2157.75	1271.85
1022.4591	2955.2582	2118.05	1232.8
1022.5728	2956.3462	2098.85	1214.5
1022.6865	2957.4335	2074.05	1187.1
1022.8002	2958.5202	2051.65	1166.35
1022.9138	2959.6062	2027.55	1142.25
1023.0274	2960.6916	2009.05	1124.3
1023.141	2961.7764	2000.85	1115.3
1023.2545	2962.8605	1992	1105.35
1023.3679	2963.9439	1984.5	1100.8
1023.4813	2965.0267	1964.25	1076.8
1023.5947	2966.1089	1975.45	1068.55
1023.708	2967.1905	1952.05	1064.55
1023.8213	2968.2714	1955.7	1069.9
1023.9346	2969.3516	1959.7	1074.35
1024.0478	2970.4312	1966.65	1074.45
1024.1609	2971.5102	1954.35	1070.2
1024.274	2972.5885	1959	1075.75
1024.3871	2973.6662	1959.05	1068.15
1024.5002	2974.7432	1952.75	1067.95
1024.6132	2975.8196	1951.6	1066.75
1024.7261	2976.8954	1939.75	1054.35
1024.839	2977.9705	1946.3	1060.25
1024.9519	2979.045	1924	1038.65
1025.0647	2980.1188	1923.45	1037.3
1025.1775	2981.192	1908.45	1023.4
1025.2902	2982.2645	1890.55	1004.05
1025.4029	2983.3364	1876.15	989.15
1025.5156	2984.4077	1867.1	982.5
1025.6282	2985.4783	1844.45	953.5
1025.7407	2986.5483	1823.15	939.5
1025.8532	2987.6177	1799.15	914.35
1025.9657	2988.6864	1779.55	894.2
1026.0782	2989.7545	1763.1	877.3
1026.1906	2990.8219	1737.25	851.75
1026.3029	2991.8887	1720.55	833.55
1026.4152	2992.9548	1698.45	812.65
1026.5275	2994.0204	1673.05	790.15
1026.6397	2995.0852	1651.85	769.25
1026.7519	2996.1495	1636.15	749.75
1026.864	2997.2131	1617.05	735.6
1026.9761	2998.276	1602.2	716.35
1027.0882	2999.3383	1590.15	703.7
1027.2002	3000.4	1571.45	685.85
1027.3122	3001.4611	1561.5	676.2
1027.4241	3002.5215	1547.9	663.2
1027.536	3003.5812	1538.2	654.3
1027.6478	3004.6404	1517	629.75
1027.7596	3005.6989	1511.15	623.7
1027.8714	3006.7567	1510.45	625.4
1027.9831	3007.8139	1516.95	613.95
1028.0947	3008.8705	1496.05	611.05
1028.2064	3009.9264	1507.3	605.9
1028.3179	3010.9818	1475.6	590.65
1028.4295	3012.0364	1469.7	584.8
1028.541	3013.0905	1466.6	582.55
1028.6524	3014.1439	1459.7	575.85
1028.7638	3015.1966	1454.95	570.15
1028.8752	3016.2487	1457.5	571
1028.9865	3017.3002	1454.5	564
1029.0978	3018.3511	1443.15	560.75
1029.209	3019.4013	1446.85	561.85
1029.3202	3020.4509	1435.85	552.05
1029.4314	3021.4998	1435.6	550.4
1029.5425	3022.5481	1441.9	556.75
1029.6535	3023.5958	1433.95	548.5
1029.7645	3024.6428	1437.4	552.3
1029.8755	3025.6892	1434.45	548.65
1029.9864	3026.735	1428.35	542.85
1030.0973	3027.7802	1426.3	539.5
1030.2082	3028.8247	1424.15	539.4
1030.319	3029.8685	1432.1	545.85
1030.4297	3030.9118	1425.2	539.75
1030.5404	3031.9544	1421.7	540.95
1030.6511	3032.9963	1424.25	539.45
1030.7617	3034.0376	1423.7	538.6
1030.8723	3035.0783	1424.25	536.8
1030.9829	3036.1184	1416	531.25
1031.0934	3037.1578	1422.85	538.8
1031.2038	3038.1966	1420.5	534.65
1031.3142	3039.2348	1425.95	542.5
1031.4246	3040.2723	1428.95	536.95
1031.5349	3041.3092	1419.15	535.15
1031.6452	3042.3455	1415.25	533.35
1031.7554	3043.3811	1418.5	532.3
1031.8656	3044.4161	1415.55	529.35
1031.9758	3045.4505	1406.8	523.15
1032.0859	3046.4842	1410.75	524.85
1032.1959	3047.5173	1409.2	526.6
1032.3059	3048.5498	1401.25	514.9
1032.4159	3049.5816	1402.55	518.9
1032.5258	3050.6128	1402.6	517.2
1032.6357	3051.6434	1390.3	503
1032.7455	3052.6734	1396.5	509.85
1032.8553	3053.7027	1393.7	508.45
1032.9651	3054.7314	1384.65	501.45
1033.0748	3055.7594	1382	496.85
1033.1845	3056.7868	1387.4	503.1
1033.2941	3057.8136	1379.05	495.4
1033.4037	3058.8398	1374.1	491.65
1033.5132	3059.8653	1374.85	491.6
1033.6227	3060.8902	1366.8	484.2
1033.7321	3061.9145	1370.75	487.3
1033.8415	3062.9381	1368.3	484.85
1033.9509	3063.9612	1375.05	473.7
1034.0602	3064.9835	1362.15	477.95
1034.1694	3066.0053	1354.6	469.75
1034.2787	3067.0264	1351.5	466.55
1034.3878	3068.0469	1353	469.1
1034.497	3069.0668	1349	461.35
1034.6061	3070.086	1340.7	457.25
1034.7151	3071.1046	1344	457.05
1034.8241	3072.1226	1334.75	448.15
1034.9331	3073.1399	1323.7	437.25
1035.042	3074.1567	1320.35	437.05
1035.1508	3075.1727	1319.1	430.85
1035.2597	3076.1882	1305.6	423.25
1035.3684	3077.203	1307.8	422.45
1035.4772	3078.2173	1298.7	413.15
1035.5859	3079.2308	1299.4	412.35
1035.6945	3080.2438	1297.2	410.7
1035.8031	3081.2561	1283.8	400.35
1035.9117	3082.2678	1279.65	394.3
1036.0202	3083.2789	1281.3	399
1036.1286	3084.2893	1276.35	394.5
1036.2371	3085.2991	1273	387.45
1036.3454	3086.3083	1268.45	381.9
1036.4538	3087.3169	1260.05	375.85
1036.562	3088.3248	1263	377.4
1036.6703	3089.3321	1258.9	374.75
1036.7785	3090.3388	1251.8	367.15
1036.8866	3091.3449	1256.25	372.9
1036.9948	3092.3503	1246.35	360.05
1037.1028	3093.3551	1242.25	359.5
1037.2108	3094.3593	1242	357.75
1037.3188	3095.3629	1227.9	344.85
1037.4267	3096.3658	1232.7	349.2
1037.5346	3097.3681	1235.45	350.25
1037.6425	3098.3698	1228.45	342.45
1037.7503	3099.3708	1227.55	337.35
1037.858	3100.3713	1217.75	334
1037.9657	3101.3711	1216.75	332.8
1038.0734	3102.3702	1353.75	330.8
1038.181	3103.3688	1222.5	336.65
1038.2886	3104.3667	1208.6	324.65
1038.3961	3105.364	1204.7	322.05
1038.5036	3106.3607	1211	324.75
1038.611	3107.3568	1203.35	320.25
1038.7184	3108.3522	1198.1	314.85
1038.8257	3109.347	1201.6	315.7
1038.933	3110.3412	1200.75	310.3
1039.0403	3111.3348	1193.1	308.75
1039.1475	3112.3277	1189.15	306.1
1039.2547	3113.32	1183.8	302.55
1039.3618	3114.3117	1182.5	298.2
1039.4689	3115.3028	1194.1	310.65
1039.5759	3116.2932	1183.05	296.75
1039.6829	3117.2831	1186.05	296.25
1039.7898	3118.2723	1176.25	293.05
1039.8967	3119.2608	1171.95	287.3
1040.0035	3120.2488	1172.25	288.7
1040.1103	3121.2361	1175	289.3
1040.2171	3122.2229	1170.9	288.3
1040.3238	3123.209	1167.55	284.35
1040.4305	3124.1944	1165.95	281.05
1040.5371	3125.1793	1165.25	277.25
1040.6437	3126.1635	1165.55	280.9
1040.7502	3127.1471	1158.6	275.75
1040.8567	3128.1301	1162.4	278.6
1040.9631	3129.1125	1155.8	271.75
1041.0695	3130.0942	1157.1	274.3
1041.1759	3131.0753	1168.5	274.45
1041.2822	3132.0558	1151.9	264.85
1041.3884	3133.0357	1151.55	266.1
1041.4946	3134.015	1151.8	266.45
1041.6008	3134.9936	1146.7	261.15
1041.7069	3135.9716	1166.75	261.3
1041.813	3136.949	1139.2	256.05
1041.919	3137.9258	1164.8	261.2
1042.025	3138.902	1149.25	259.4
1042.1309	3139.8775	1146.4	264.35
1042.2368	3140.8524	1140.1	256.5
1042.3427	3141.8267	1140.1	255
1042.4485	3142.8004	1142.4	259
1042.5542	3143.7735	1141.45	251.45
1042.6599	3144.7459	1138.85	253.5
1042.7656	3145.7178	1136.45	251.7
1042.8712	3146.689	1134.75	250.2
1042.9768	3147.6596	1135	249.35
1043.0823	3148.6295	1129.7	243.6
1043.1878	3149.5989	1125.05	241.65
1043.2932	3150.5676	1121.75	239.35
1043.3986	3151.5357	1119.05	237.3
1043.5039	3152.5032	1126.75	243.7
1043.6092	3153.4701	1116.55	232.45
1043.7145	3154.4364	1127.35	240.25
1043.8197	3155.402	1115.3	231.25
1043.9248	3156.367	1121	235.35
1044.03	3157.3315	1142.95	233.85
1044.135	3158.2952	1113.25	229.5
1044.24	3159.2584	1107.4	224.15
1044.345	3160.221	1108.15	223.35
1044.4499	3161.1829	1105.75	221.55
1044.5548	3162.1442	1112.8	228.35
1044.6596	3163.105	1113.8	227.45
1044.7644	3164.065	1106.65	222.2
1044.8692	3165.0245	1106.4	219.5
1044.9739	3165.9834	1098.2	214.15
1045.0785	3166.9416	1096.25	213.35
1045.1831	3167.8993	1099.9	215.9
1045.2877	3168.8563	1099.35	214.3
1045.3922	3169.8127	1097	214.35
1045.4966	3170.7684	1097.55	213.9
1045.6011	3171.7236	1095.95	211.55
1045.7054	3172.6782	1092.65	208.8
1045.8098	3173.6321	1095.1	211
1045.914	3174.5854	1098	209.9
1046.0183	3175.5381	1088.5	204.85
1046.1224	3176.4902	1090.7	207.6
1046.2266	3177.4417	1089.4	205.5
1046.3307	3178.3926	1083.5	200.55
1046.4347	3179.3428	1086.3	206.1
1046.5387	3180.2924	1082.25	200.75
1046.6427	3181.2415	1087.55	205.55
1046.7466	3182.1899	1087.45	205.05
1046.8504	3183.1377	1083.4	201.55
1046.9542	3184.0848	1081.45	193.7
1047.058	3185.0314	1083.9	199.3
1047.1617	3185.9773	1083.1	197.75
1047.2654	3186.9227	1078.2	194.15
1047.369	3187.8674	1079.6	197.7
1047.4726	3188.8115	1078.6	192.9
1047.5761	3189.755	1074	191.8
1047.6796	3190.6979	1075.7	192.75
1047.783	3191.6402	1069.85	185.6
1047.8864	3192.5818	1071.5	189.3
1047.9898	3193.5229	1077.7	185.75
1048.0931	3194.4633	1070.3	187.15
1048.1963	3195.4031	1069.2	184.8
1048.2995	3196.3423	1065.9	183.85
1048.4027	3197.2809	1061.85	178.3
1048.5058	3198.2189	1064.3	181.15
1048.6089	3199.1563	1072.5	181.7
1048.7119	3200.0931	1063.5	179.55
1048.8148	3201.0292	1066.95	184.1
1048.9178	3201.9648	1065.55	181.45
1049.0206	3202.8997	1069	182.9
1049.1235	3203.834	1062.3	179.3
1049.2262	3204.7677	1056.45	173.9
1049.329	3205.7008	1062	175.9
1049.4317	3206.6333	1053.15	170.1
1049.5343	3207.5652	1057.4	170.95
1049.6369	3208.4964	1057.1	173.35
1049.7394	3209.4271	1052.3	170.95
1049.8419	3210.3571	1055.1	172.75
1049.9444	3211.2865	1051.7	166.4
1050.0468	3212.2154	1050.65	167.65
1050.1491	3213.1436	1056.3	171.45
1050.2514	3214.0712	1059.5	169.8
1050.3537	3214.9982	1048.15	164.2
1050.4559	3215.9246	1054.8	170.55
1050.5581	3216.8503	1047.5	165.8
1050.6602	3217.7755	1046.1	162.4
1050.7623	3218.7001	1051.15	167.2
1050.8643	3219.624	1046.5	164.15
1050.9663	3220.5473	1043.6	160.55
1051.0682	3221.4701	1047.85	162
1051.1701	3222.3922	1042	156.15
1051.2719	3223.3137	1036.85	153.45
1051.3737	3224.2346	1042.4	159.6
1051.4754	3225.1549	1037.95	154.95
1051.5771	3226.0746	1037.45	153.75
1051.6788	3226.9937	1039.2	155.5
1051.7804	3227.9121	1036.15	154.55
1051.8819	3228.83	1039.65	156.8
1051.9834	3229.7473	1037.6	152.15
1052.0849	3230.6639	1037.8	153.45
1052.1863	3231.5799	1031.35	148.25
1052.2876	3232.4954	1031.2	148.2
1052.3889	3233.4102	1028.55	145.65
1052.4902	3234.3244	1032.1	150.25
1052.5914	3235.238	1026.25	142.85
1052.6926	3236.151	1056.6	144.2
1052.7937	3237.0634	1029.8	147.4
1052.8948	3237.9752	1027.35	145.4
1052.9958	3238.8864	1029.7	147.65
1053.0968	3239.797	1025.3	141.8
1053.1977	3240.7069	1025.3	140.25
1053.2986	3241.6163	1028.65	143.65
1053.3994	3242.5251	1023.85	141.4
1053.5002	3243.4332	1017.8	134.65
1053.6009	3244.3408	1021.4	137.15
1053.7016	3245.2477	1020.7	137.2
1053.8022	3246.154	1022.2	137.7
1053.9028	3247.0598	1019.3	135.5
1054.0034	3247.9649	1016.8	133.7
1054.1039	3248.8694	1017.75	133.85
1054.2043	3249.7733	1015.45	132.8
1054.3047	3250.6766	1012.2	130.35
1054.4051	3251.5793	1013.15	126.7
1054.5054	3252.4814	1014.35	130.35
1054.6056	3253.3829	1009.75	128.05
1054.7058	3254.2838	1009.15	125.85
1054.806	3255.1841	1011.7	129.65
1054.9061	3256.0838	1006.55	122.3
1055.0061	3256.9829	1005.8	122.85
1055.1062	3257.8814	1005.5	119.75
1055.2061	3258.7792	1008.9	122.75
1055.306	3259.6765	1005.85	120.3
1055.4059	3260.5731	1001.7	116.25
1055.5057	3261.4692	1001.7	117.55
1055.6055	3262.3647	1001.85	116.55
1055.7052	3263.2595	998.75	115.85
1055.8049	3264.1538	998.9	116.15
1055.9045	3265.0474	993.7	108.2
1056.0041	3265.9404	994.65	112.5
1056.1036	3266.8329	990.05	108.55
1056.2031	3267.7247	999.85	106.7
1056.3025	3268.616	988.6	105.8
1056.4019	3269.5066	985	102.05
1056.5013	3270.3966	983.45	97.4
1056.6005	3271.286	976.5	95.45
