Software Version:	3.9.2.0
Unit SN:	10000200
Spectrometer SN:	6960
Date:	3/26/2024 2:11:15 PM
Data Line Index:	25
Spectral Points:	2048
Integration time (ms):	125
Averages:	20
Delay (ms):	30000
Sequence Number:	1
Processing:	dark subtract
Laser Power (mW):	300
Laser Current (mA):	819
Laser Diode Temp (C):	25.1
Laser Case Temp (C):	27.5
System Temp (C):	27.5
Spectrometer Temp (C):	25.4
CCD Temp (C):	0.002
Secondary Temp (C):	20.006
Heatsink Temp (C):	22.919
CCDPCB Temp (C):	37.018
SecondaryPCB Temp (C):	34.317

Wavelength	RamanShift	Raw Counts	Dark Subtracted
787.061	30.1047	671.3	261
787.2016	32.3739	683.65	275.7
787.3422	34.6426	699.05	290.05
787.4828	36.9109	716.5	306.05
787.6235	39.1787	745.95	330.7
787.7642	41.4461	771.6	352.6
787.9049	43.7131	798.2	374.45
788.0456	45.9796	825.9	400.4
788.1863	48.2456	855.7	424.2
788.3271	50.5112	887.6	451.35
788.4679	52.7764	912.95	475.75
788.6087	55.0411	947.95	506.9
788.7496	57.3054	977.55	532.55
788.8904	59.5692	1013.55	565.55
789.0313	61.8326	1060.2	606.65
789.1722	64.0955	1103.7	647.3
789.3132	66.3579	1147.4	685.15
789.4541	68.6199	1218.65	751.8
789.5951	70.8815	1326.45	859.15
789.7361	73.1426	1543.95	1072.05
789.8771	75.4032	2105.8	1628.25
790.0181	77.6634	3495.25	3010.05
790.1592	79.9231	6999.85	6503.35
790.3003	82.1824	15055.5	14540.1
790.4414	84.4412	35896.4	35345.8
790.5825	86.6995	62521.55	61921
790.7237	88.9574	65535	64888.15
790.8648	91.2148	65535	64853.15
791.006	93.4717	65535	64835.8
791.1472	95.7282	65535	64825.3
791.2885	97.9842	65535	64816.15
791.4297	100.2398	65535	64809.1
791.571	102.4949	65535	64811.65
791.7123	104.7495	65535	64805.45
791.8536	107.0036	65535	64811.9
791.9949	109.2573	65535	64806.85
792.1363	111.5105	65535	64806.8
792.2777	113.7632	65535	64803.85
792.4191	116.0154	65535	64794.25
792.5605	118.2672	65535	64796.85
792.7019	120.5185	65535	64794.4
792.8434	122.7693	65535	64797.5
792.9849	125.0197	65535	64792.65
793.1264	127.2696	65535	64785.95
793.2679	129.519	65535	64788
793.4094	131.7679	65535	64778.65
793.551	134.0163	65535	64774.4
793.6926	136.2642	65535	64776
793.8342	138.5117	65535	64768.9
793.9758	140.7587	65535	64769
794.1175	143.0052	65535	64766.35
794.2591	145.2512	65535	64771.4
794.4008	147.4967	65535	64765.7
794.5425	149.7417	65535	64770.45
794.6842	151.9863	65535	64765.05
794.826	154.2304	65535	64757.15
794.9677	156.4739	65535	64749.65
795.1095	158.717	65535	64754.25
795.2513	160.9596	65535	64747.8
795.3931	163.2017	65535	64747.25
795.535	165.4433	65535	64743.95
795.6768	167.6844	65535	64738.3
795.8187	169.925	65535	64741.2
795.9606	172.1651	65535	64742.7
796.1025	174.4047	65535	64738.8
796.2445	176.6439	65535	64740.9
796.3864	178.8825	65535	64733.25
796.5284	181.1206	65535	64729.25
796.6704	183.3582	65535	64721
796.8124	185.5954	65535	64721.8
796.9544	187.832	65535	64714.85
797.0965	190.0681	65535	64716.15
797.2386	192.3037	65535	64712.95
797.3806	194.5388	65535	64710.25
797.5228	196.7734	65535	64704.45
797.6649	199.0075	65535	64697.2
797.807	201.2411	65535	64699.85
797.9492	203.4742	65535	64700.85
798.0914	205.7068	65535	64699.7
798.2336	207.9389	65535	64698.9
798.3758	210.1704	65535	64699.7
798.518	212.4015	65535	64695.45
798.6603	214.632	65535	64693.4
798.8025	216.862	65535	64703.25
798.9448	219.0915	65535	64711.15
799.0871	221.3205	65535	64711.85
799.2294	223.549	65535	64711.7
799.3718	225.777	65535	64717.85
799.5141	228.0044	65535	64711.6
799.6565	230.2314	65535	64713.4
799.7989	232.4578	65535	64717.05
799.9413	234.6837	65535	64714.45
800.0837	236.909	65535	64702.55
800.2262	239.1339	65535	64678.85
800.3687	241.3582	65535	64687.4
800.5111	243.582	65535	64660.65
800.6536	245.8053	65535	64672.2
800.7961	248.0281	65535	64681.35
800.9387	250.2503	65535	64676.35
801.0812	252.472	65535	64670
801.2238	254.6932	65535	64673.45
801.3664	256.9139	65535	64670.35
801.509	259.134	65535	64658.6
801.6516	261.3536	65535	64666.2
801.7942	263.5727	65535	64665.2
801.9369	265.7912	65535	64666.1
802.0795	268.0092	65535	64664.6
802.2222	270.2267	65535	64664.65
802.3649	272.4436	65535	64661.1
802.5076	274.6601	65535	64659.9
802.6504	276.8759	65535	64663.2
802.7931	279.0913	65535	64658.65
802.9359	281.3061	65535	64659.9
803.0787	283.5204	65535	64655.2
803.2215	285.7341	65535	64650.65
803.3643	287.9473	65535	64635.25
803.5071	290.16	65535	64642.55
803.6499	292.3721	65535	64652.8
803.7928	294.5837	65535	64648.35
803.9357	296.7947	65535	64646.3
804.0786	299.0052	65535	64650.25
804.2215	301.2152	65535	64651
804.3644	303.4246	65535	64656.75
804.5074	305.6334	65535	64659.55
804.6503	307.8418	65535	64649.7
804.7933	310.0495	65535	64650.25
804.9363	312.2568	65535	64648.55
805.0793	314.4635	65535	64641.1
805.2223	316.6696	65535	64648.8
805.3653	318.8752	65535	64634.1
805.5084	321.0802	65535	64640.05
805.6514	323.2847	65535	64639
805.7945	325.4887	65535	64641.3
805.9376	327.692	65535	64638.6
806.0807	329.8949	65535	64642.05
806.2238	332.0972	65535	64636.55
806.367	334.2989	65535	64633.05
806.5101	336.5001	65535	64635.85
806.6533	338.7007	65535	64633.95
806.7965	340.9008	65535	64630
806.9397	343.1003	65535	64630.5
807.0829	345.2992	65535	64627.55
807.2261	347.4976	65535	64631.4
807.3693	349.6955	65535	64626.2
807.5126	351.8927	65535	64621.35
807.6559	354.0895	65535	64615.65
807.7991	356.2856	65535	64624.6
807.9424	358.4812	65535	64623.35
808.0857	360.6763	65535	64624.4
808.2291	362.8707	65535	64619.55
808.3724	365.0646	65535	64618.75
808.5158	367.258	65535	64617.5
808.6591	369.4508	65535	64617.5
808.8025	371.643	65535	64614.35
808.9459	373.8346	65535	64613.25
809.0893	376.0257	65535	64608.1
809.2327	378.2162	65535	64611.25
809.3762	380.4062	65535	64609.5
809.5196	382.5956	65535	64608.2
809.6631	384.7844	65535	64611.2
809.8066	386.9726	65535	64608.8
809.9501	389.1603	65535	64611.7
810.0936	391.3474	65535	64588.15
810.2371	393.5339	65535	64608.8
810.3806	395.7199	65535	64618.65
810.5241	397.9052	65535	64616.8
810.6677	400.09	65535	64615.2
810.8113	402.2743	65535	64625.65
810.9548	404.4579	65535	64621.95
811.0984	406.641	65535	64619.8
811.2421	408.8235	65535	64625.75
811.3857	411.0054	65535	64618.35
811.5293	413.1868	65535	64610.45
811.673	415.3675	65535	64613.8
811.8166	417.5477	65535	64612.3
811.9603	419.7273	65535	64610.4
812.104	421.9064	65535	64607.8
812.2477	424.0848	65535	64612.95
812.3914	426.2627	65535	64606.85
812.5351	428.4399	65535	64608.35
812.6788	430.6166	65535	64597.15
812.8226	432.7928	65535	64600.15
812.9663	434.9683	65535	64607.05
813.1101	437.1432	65535	64605.95
813.2539	439.3176	65535	64612.7
813.3977	441.4914	65535	64612.8
813.5415	443.6645	65535	64609.7
813.6853	445.8371	65535	64604.5
813.8291	448.0091	65535	64600.1
813.973	450.1806	65535	64606.1
814.1168	452.3514	65535	64611.2
814.2607	454.5216	65535	64600.45
814.4046	456.6913	65535	64605.7
814.5485	458.8603	65535	64608.3
814.6924	461.0288	65535	64614.7
814.8363	463.1967	65535	64618.15
814.9802	465.3639	65535	64612.55
815.1241	467.5306	65535	64611.4
815.2681	469.6967	65535	64614.45
815.412	471.8622	65535	64616.6
815.556	474.0271	65535	64610.95
815.7	476.1914	65535	64602.75
815.844	478.3551	65535	64607.8
815.988	480.5182	65535	64609.95
816.132	482.6807	65535	64616.55
816.276	484.8426	65535	64625.85
816.4201	487.0039	65535	64619.65
816.5641	489.1647	65535	64606.75
816.7082	491.3248	65535	64606.6
816.8522	493.4843	65535	64614.55
816.9963	495.6432	65535	64609.55
817.1404	497.8015	65535	64599.95
817.2845	499.9592	65535	64593.45
817.4286	502.1163	65535	64593.7
817.5727	504.2728	65535	64610.6
817.7168	506.4287	65535	64616.1
817.861	508.5839	65535	64617.95
818.0051	510.7386	65535	64608.85
818.1493	512.8927	65535	64597.35
818.2935	515.0461	65535	64600.15
818.4377	517.199	65535	64598.85
818.5818	519.3512	65535	64599.95
818.726	521.5029	65535	64600.1
818.8703	523.6539	65535	64596.65
819.0145	525.8043	65535	64591.3
819.1587	527.9541	65535	64596.45
819.303	530.1033	65535	64600.65
819.4472	532.2519	65535	64597.2
819.5915	534.3999	65535	64594.6
819.7357	536.5472	65535	64601.5
819.88	538.694	65535	64601.95
820.0243	540.8401	65535	64595.2
820.1686	542.9856	65535	64587.05
820.3129	545.1305	65535	64580.55
820.4572	547.2748	65535	64573.8
820.6016	549.4185	65535	64573.75
820.7459	551.5615	65535	64576.55
820.8902	553.704	65535	64581.7
821.0346	555.8458	65535	64586.6
821.1789	557.987	65535	64585.25
821.3233	560.1276	65535	64586.35
821.4677	562.2675	65535	64581.15
821.6121	564.4069	65535	64581.1
821.7565	566.5456	65535	64588.2
821.9009	568.6837	65535	64592.6
822.0453	570.8212	65535	64590.95
822.1897	572.958	65535	64589.8
822.3342	575.0942	65535	64597.15
822.4786	577.2299	65535	64600.25
822.6231	579.3648	65535	64614.55
822.7675	581.4992	65535	64621.6
822.912	583.6329	65535	64624.7
823.0565	585.766	65535	64612.8
823.201	587.8985	65535	64610.3
823.3454	590.0304	65535	64590.05
823.4899	592.1616	65535	64586.25
823.6345	594.2922	65535	64587.8
823.779	596.4222	65535	64579.35
823.9235	598.5515	65535	64587.55
824.068	600.6802	65535	64582.55
824.2126	602.8083	65535	64586.65
824.3571	604.9358	65535	64585.95
824.5017	607.0626	65535	64581.25
824.6462	609.1888	65535	64574.25
824.7908	611.3144	65535	64574.95
824.9354	613.4393	65535	64580
825.08	615.5636	65535	64577.45
825.2246	617.6873	65535	64578.3
825.3692	619.8103	65535	64583.1
825.5138	621.9327	65535	64579.5
825.6584	624.0544	65535	64583
825.803	626.1756	65535	64590.3
825.9477	628.2961	65535	64579.45
826.0923	630.4159	65535	64581.1
826.237	632.5351	65535	64580.55
826.3816	634.6537	65535	64580.85
826.5263	636.7716	65535	64575.1
826.6709	638.8889	65535	64567.6
826.8156	641.0056	65535	64569.7
826.9603	643.1216	65535	64570.5
827.105	645.237	65535	64575.4
827.2497	647.3518	65535	64581.15
827.3944	649.4659	65535	64593.5
827.5391	651.5793	65535	64585.5
827.6838	653.6922	65535	64582.85
827.8285	655.8043	65535	64582.8
827.9733	657.9159	65535	64581.35
828.118	660.0268	65535	64580.05
828.2627	662.137	65535	64581
828.4075	664.2466	65535	64570.5
828.5522	666.3556	65535	64575.65
828.697	668.4639	65535	64583.05
828.8418	670.5716	65535	64584.1
828.9865	672.6786	65535	64577.65
829.1313	674.785	65535	64576.9
829.2761	676.8907	65535	64577.45
829.4209	678.9958	65535	64581.8
829.5657	681.1002	65535	64576.25
829.7105	683.204	65535	64567.8
829.8553	685.3072	65535	64574.55
830.0001	687.4097	65535	64577.8
830.1449	689.5115	65535	64572.35
830.2898	691.6127	65535	64583.1
830.4346	693.7132	65535	64580.2
830.5794	695.8131	65535	64555.5
830.7243	697.9123	65535	64564.7
830.8691	700.0109	65535	64570.3
831.014	702.1089	65535	64576.55
831.1588	704.2061	65535	64573.45
831.3037	706.3028	65535	64570.35
831.4486	708.3987	65535	64571.2
831.5935	710.4941	65535	64571.15
831.7383	712.5887	65535	64571.25
831.8832	714.6827	65535	64570.7
832.0281	716.7761	65535	64578.65
832.173	718.8688	65535	64576.25
832.3179	720.9608	65535	64563.5
832.4628	723.0522	65535	64560.5
832.6077	725.1429	65535	64567.3
832.7527	727.233	65535	64567.65
832.8976	729.3224	65535	64574.05
833.0425	731.4112	65535	64572.7
833.1874	733.4993	65535	64572.35
833.3324	735.5867	65535	64571.05
833.4773	737.6735	65535	64572.65
833.6222	739.7596	65535	64571.65
833.7672	741.845	65535	64570.7
833.9122	743.9298	65535	64570.35
834.0571	746.014	65535	64568.55
834.2021	748.0974	65535	64570.75
834.347	750.1802	65535	64562.65
834.492	752.2624	65535	64566.1
834.637	754.3439	65535	64564.55
834.782	756.4247	65535	64555.95
834.9269	758.5048	65535	64565.8
835.0719	760.5843	65535	64563.65
835.2169	762.6631	65535	64568.1
835.3619	764.7413	65535	64563.95
835.5069	766.8188	65535	64562.55
835.6519	768.8956	65535	64563.7
835.7969	770.9718	65535	64563.85
835.9419	773.0473	65535	64564.35
836.0869	775.1221	65535	64568.4
836.232	777.1962	65535	64566.05
836.377	779.2697	65535	64565.55
836.522	781.3426	65535	64547.7
836.667	783.4147	65535	64560.65
836.8121	785.4862	65535	64566.95
836.9571	787.557	65535	64562.2
837.1021	789.6271	65535	64562.25
837.2472	791.6966	65535	64562.35
837.3922	793.7654	65535	64560.55
837.5373	795.8335	65535	64567.45
837.6823	797.901	65535	64565
837.8274	799.9678	65535	64561.65
837.9724	802.0339	65535	64560.05
838.1175	804.0993	65535	64552.2
838.2626	806.1641	65535	64562.15
838.4076	808.2282	65535	64567.05
838.5527	810.2916	65535	64566.4
838.6978	812.3544	65535	64568.7
838.8428	814.4164	65535	64566.95
838.9879	816.4778	65535	64558.75
839.133	818.5385	65535	64563.95
839.2781	820.5986	65535	64561.6
839.4232	822.658	65535	64556.75
839.5682	824.7166	65535	64560.7
839.7133	826.7747	65535	64561.5
839.8584	828.832	65535	64559.65
840.0035	830.8886	65535	64560.65
840.1486	832.9446	65535	64557.05
840.2937	834.9999	65535	64565.95
840.4388	837.0545	65535	64557.5
840.5839	839.1085	65535	64562.15
840.729	841.1618	65535	64556.75
840.8741	843.2143	65535	64562.75
841.0192	845.2662	65535	64562.2
841.1643	847.3175	65535	64558.6
841.3095	849.368	65535	64558.55
841.4546	851.4179	65535	64561.6
841.5997	853.467	65535	64565.4
841.7448	855.5155	65535	64560.2
841.8899	857.5633	65535	64556.15
842.0351	859.6105	65533.6	64558.8
842.1802	861.6569	65535	64563.9
842.3253	863.7027	65525.3	64546.05
842.4704	865.7478	65530.7	64554.15
842.6156	867.7922	65530.05	64557.6
842.7607	869.8359	65535	64559.8
842.9058	871.8789	65521.9	64550
843.0509	873.9212	65532.7	64524.85
843.1961	875.9629	65534	64556.9
843.3412	878.0039	65529.8	64553.4
843.4863	880.0441	65524.6	64550.4
843.6315	882.0837	65527.8	64551.45
843.7766	884.1226	65519.75	64545.65
843.9218	886.1609	65516.55	64541.1
844.0669	888.1984	65492.35	64518.6
844.212	890.2352	65520.35	64545.85
844.3572	892.2714	65458.7	64478.85
844.5023	894.3069	65505.05	64530.4
844.6475	896.3416	65469.35	64495.25
844.7926	898.3757	65454.65	64480.85
844.9377	900.4091	65234.35	64258.9
845.0829	902.4418	65500.5	64517.6
845.228	904.4739	65410.2	64432.35
845.3732	906.5052	65409.2	64429.7
845.5183	908.5358	65293.3	64316.1
845.6635	910.5658	65230.8	64252.65
845.8086	912.595	65254.65	64277.2
845.9538	914.6236	64952.1	63977
846.0989	916.6515	65385.15	64410.35
846.2441	918.6786	64941.95	63964.15
846.3892	920.7051	65057.6	64078.75
846.5344	922.7309	64972.85	63994.4
846.6795	924.756	65072.8	64099.5
846.8246	926.7804	64981.4	64002.9
846.9698	928.8041	64584.75	63613
847.1149	930.8272	64875.5	63899.85
847.2601	932.8495	64891.9	63913.3
847.4052	934.8711	64592.65	63610.8
847.5504	936.892	64382.9	63406.75
847.6955	938.9123	64544.75	63569.3
847.8407	940.9318	64303.05	63326.35
847.9858	942.9506	64278.15	63304.9
848.131	944.9688	64353.15	63378.1
848.2761	946.9862	63895.3	62921.95
848.4213	949.003	64079.8	63102.35
848.5664	951.019	63673.6	62696.85
848.7115	953.0344	63766.7	62788.05
848.8567	955.0491	63723.3	62747.65
849.0018	957.063	63873.55	62897.5
849.147	959.0763	63909.05	62929.65
849.2921	961.0888	63602.7	62628.25
849.4373	963.1007	63846.55	62876.65
849.5824	965.1119	63822.3	62860.4
849.7275	967.1223	63563.05	62604.45
849.8727	969.1321	63844.15	62882.3
850.0178	971.1412	63494.25	62526.15
850.1629	973.1495	63348.7	62376.2
850.3081	975.1572	63542.05	62514.4
850.4532	977.1641	63369.05	62389.95
850.5983	979.1704	63324.05	62347.9
850.7435	981.1759	63359.45	62380.6
850.8886	983.1808	63151.6	62174.1
851.0337	985.1849	63202.4	62218.8
851.1788	987.1884	63275.1	62297.25
851.324	989.1911	63450.25	62471.8
851.4691	991.1932	62918.8	61941.9
851.6142	993.1945	63053.7	62083.7
851.7593	995.1951	63193.35	62215.85
851.9045	997.1951	62859.5	61876.25
852.0496	999.1943	62770.6	61795
852.1947	1001.1928	62639	61663.45
852.3398	1003.1906	62756.4	61782.45
852.4849	1005.1877	62328.75	61350.8
852.63	1007.1841	62172.35	61199.2
852.7751	1009.1798	62187.8	61219.5
852.9202	1011.1748	62101.4	61128.85
853.0653	1013.1691	61960.8	60986.75
853.2104	1015.1627	60689.9	59719.9
853.3555	1017.1556	61311	60340.65
853.5006	1019.1477	61388.25	60421.05
853.6457	1021.1392	60848.8	59884.6
853.7908	1023.1299	59940.25	58980.55
853.9359	1025.12	60529.1	59572.75
854.081	1027.1093	60090.75	59148.9
854.2261	1029.0979	60028.15	59086.55
854.3712	1031.0859	59918.45	58971.7
854.5163	1033.0731	59227.05	58267.7
854.6613	1035.0596	59517.25	58555.35
854.8064	1037.0454	59233.65	58268.7
854.9515	1039.0304	58810.9	57840.2
855.0965	1041.0148	57956.9	56989.85
855.2416	1042.9985	58054.9	57080.9
855.3867	1044.9814	58612.55	57643.9
855.5317	1046.9636	57678.45	56708.95
855.6768	1048.9452	57736.3	56768.25
855.8219	1050.926	57571.1	56602.6
855.9669	1052.9061	57574.75	56608.6
856.112	1054.8855	57532	56560.65
856.257	1056.8642	57116.75	56141.7
856.4021	1058.8421	56812.4	55837.3
856.5471	1060.8194	56865.65	55896.9
856.6921	1062.7959	56536.55	55568.7
856.8372	1064.7717	56818	55849.1
856.9822	1066.7469	56540.3	55569.35
857.1272	1068.7213	56515	55546.05
857.2723	1070.695	56181.1	55214.2
857.4173	1072.6679	55733.05	54762
857.5623	1074.6402	55931.4	54960.1
857.7073	1076.6117	55514.65	54539.15
857.8523	1078.5826	55514.7	54544.7
857.9973	1080.5527	55555.9	54582.6
858.1423	1082.5221	55307.25	54339.8
858.2873	1084.4908	55505.4	54539.45
858.4323	1086.4587	55439.2	54472.5
858.5773	1088.426	55495.7	54524.65
858.7223	1090.3925	55356.45	54380.8
858.8673	1092.3584	55167.1	54200
859.0123	1094.3235	54628.95	53657.8
859.1573	1096.2879	54443.3	53474.7
859.3022	1098.2515	54453.65	53485.8
859.4472	1100.2145	54196.8	53229.65
859.5922	1102.1767	54074.55	53105
859.7371	1104.1382	54242.65	53277.8
859.8821	1106.099	54173.05	53203.6
860.027	1108.0591	54154.95	53188.85
860.172	1110.0185	53684.15	52717.15
860.3169	1111.9771	54105.6	53139
860.4619	1113.9351	53576.25	52609
860.6068	1115.8923	52976.25	52011.5
860.7517	1117.8488	52439.25	51472
860.8967	1119.8045	51922	50955.3
861.0416	1121.7596	51866.2	50900.8
861.1865	1123.7139	51608.1	50644.25
861.3314	1125.6675	51545.8	50577.3
861.4763	1127.6204	51484.8	50515.8
861.6212	1129.5726	51139.65	50172.8
861.7661	1131.524	51339.35	50373.4
861.911	1133.4748	51311.3	50345.15
862.0559	1135.4248	51019.9	50051.2
862.2008	1137.3741	50949.45	49985.95
862.3457	1139.3226	50819.1	49851.6
862.4905	1141.2705	50740.6	49773.1
862.6354	1143.2176	50448.85	49480.2
862.7803	1145.164	50255.85	49289.75
862.9251	1147.1097	50160.85	49191.35
863.07	1149.0546	50095.1	49128.75
863.2148	1150.9989	49992.05	49025.85
863.3597	1152.9424	49669.35	48701.55
863.5045	1154.8852	49427.5	48462.4
863.6493	1156.8272	49180.6	48214.65
863.7942	1158.7686	49247	48274.35
863.939	1160.7092	48766.9	47800.45
864.0838	1162.6491	48502.5	47533.75
864.2286	1164.5883	48679.8	47712
864.3734	1166.5267	48478.65	47510.8
864.5182	1168.4644	48648.35	47683.35
864.663	1170.4014	48629.3	47660.2
864.8078	1172.3377	48839.2	47877.9
864.9526	1174.2732	48996.85	48036.8
865.0974	1176.2081	48933.1	47971.9
865.2421	1178.1421	48910.25	47942.85
865.3869	1180.0755	49133.35	48170.55
865.5317	1182.0082	48841.65	47877.85
865.6764	1183.9401	48722.25	47758.55
865.8212	1185.8713	48321.6	47363.4
865.9659	1187.8017	48069.95	47120.1
866.1106	1189.7315	47764.75	46823.9
866.2554	1191.6605	47306.55	46363.35
866.4001	1193.5888	46918.05	45969.6
866.5448	1195.5163	46732.95	45778.6
866.6895	1197.4432	46457.25	45497.5
866.8342	1199.3693	46285.7	45324.05
866.9789	1201.2947	46001	45032.85
867.1236	1203.2193	45879.95	44916.9
867.2683	1205.1432	45741.1	44781
867.413	1207.0664	45643.95	44688.05
867.5576	1208.9889	45558.1	44596.6
867.7023	1210.9106	45475.25	44510.8
867.847	1212.8316	45305.1	44348.4
867.9916	1214.7519	45316.25	44348.65
868.1363	1216.6715	45113.45	44150.35
868.2809	1218.5903	45080.65	44120.85
868.4255	1220.5084	44845.75	43882.5
868.5701	1222.4257	44798.15	43837.6
868.7148	1224.3424	44449.1	43496.35
868.8594	1226.2583	44329.15	43364.6
869.004	1228.1735	44390.45	43433.7
869.1486	1230.0879	44219.95	43261.9
869.2932	1232.0016	44298	43337.7
869.4377	1233.9146	44134.35	43172.5
869.5823	1235.8269	43952.85	42995.35
869.7269	1237.7384	43751.95	42793.95
869.8715	1239.6492	43378.1	42424.9
870.016	1241.5592	43247.9	42287.65
870.1606	1243.4686	42970.55	42013.7
870.3051	1245.3772	42820.7	41859.5
870.4496	1247.285	42604.9	41645.2
870.5941	1249.1922	42382	41421.7
870.7387	1251.0986	42287.5	41329.4
870.8832	1253.0042	42070.05	41114
871.0277	1254.9092	42094.55	41138.9
871.1722	1256.8134	42064.65	41111.55
871.3167	1258.7169	42171.35	41212.5
871.4611	1260.6196	42167.8	41209.75
871.6056	1262.5216	42250.1	41291.15
871.7501	1264.4229	42252.55	41292.65
871.8945	1266.3234	42327.75	41371.85
872.039	1268.2232	42293.6	41332.25
872.1834	1270.1223	42067.75	41112.65
872.3278	1272.0207	41962.25	41003
872.4723	1273.9183	41877.55	40912.2
872.6167	1275.8151	41703	40747.05
872.7611	1277.7113	41530.1	40573.6
872.9055	1279.6067	41232.25	40275.45
873.0499	1281.5014	40968.45	40010.55
873.1943	1283.3953	40761.15	39804.15
873.3386	1285.2885	40636.1	39679.45
873.483	1287.181	40467.4	39511.25
873.6274	1289.0727	40468.8	39518.05
873.7717	1290.9637	40323.45	39369.1
873.9161	1292.854	40429.8	39473.1
874.0604	1294.7435	40438.7	39486
874.2047	1296.6323	40509.75	39554.6
874.349	1298.5204	40660.45	39700.85
874.4933	1300.4077	40860.7	39906
874.6376	1302.2943	40920.45	39966.45
874.7819	1304.1802	40982.8	40026.75
874.9262	1306.0653	40758.95	39803.95
875.0705	1307.9497	40555.2	39598.4
875.2147	1309.8333	40449.2	39496.45
875.359	1311.7162	40299.6	39347.1
875.5032	1313.5984	40346.5	39390.4
875.6475	1315.4798	40353.5	39385.35
875.7917	1317.3605	40366.15	39411.3
875.9359	1319.2405	40477.1	39517.6
876.0801	1321.1197	40404.35	39443.8
876.2243	1322.9982	40246.3	39289.45
876.3685	1324.876	40247.6	39291.5
876.5127	1326.753	40096.05	39140.65
876.6569	1328.6293	40120.6	39161.8
876.801	1330.5048	40120.65	39164.75
876.9452	1332.3796	39913.65	38958.6
877.0893	1334.2537	39890.3	38912.05
877.2335	1336.127	39667.55	38711.25
877.3776	1337.9996	39576.1	38622.7
877.5217	1339.8714	39464.8	38509.95
877.6658	1341.7426	39346.95	38347.95
877.8099	1343.6129	39239.85	38283.9
877.954	1345.4826	39060.65	38101.25
878.0981	1347.3515	39020.5	38063.55
878.2422	1349.2196	38810.2	37852.65
878.3862	1351.087	38840.65	37884.55
878.5303	1352.9537	38745.2	37786.25
878.6743	1354.8197	38786.85	37830.7
878.8184	1356.6849	38964.15	38007.7
878.9624	1358.5493	38917.35	37962.9
879.1064	1360.4131	38800.7	37848.55
879.2504	1362.276	38632.65	37681.45
879.3944	1364.1383	38409.05	37457.05
879.5384	1365.9998	38056.5	37099.55
879.6823	1367.8606	37654.75	36698.35
879.8263	1369.7206	37363.9	36408.4
879.9702	1371.5799	37123.05	36163.65
880.1142	1373.4384	36885.1	35930.25
880.2581	1375.2962	36708.6	35750.5
880.402	1377.1533	36334.05	35381.65
880.5459	1379.0096	35901.6	34955.35
880.6898	1380.8652	35623.05	34675.9
880.8337	1382.7201	35297.15	34347.3
880.9776	1384.5742	34929.85	33974.7
881.1215	1386.4275	34667.6	33710.4
881.2653	1388.2802	34446.2	33492.85
881.4092	1390.132	34248.85	33295.35
881.553	1391.9832	34167.85	33211.6
881.6968	1393.8336	33889.9	32935.8
881.8406	1395.6832	33824.85	32870.5
881.9844	1397.5322	33644.85	32694.25
882.1282	1399.3803	33511.6	32557.5
882.272	1401.2278	33320.6	32370.35
882.4158	1403.0745	33244.3	32295.35
882.5595	1404.9204	33055.5	32106.95
882.7033	1406.7656	33042.8	32091.4
882.847	1408.6101	32910.25	31955.9
882.9908	1410.4538	32802.35	31853.45
883.1345	1412.2968	32722.8	31773.7
883.2782	1414.139	32667.25	31719.65
883.4219	1415.9805	32651.05	31702.75
883.5656	1417.8213	32584.6	31615
883.7092	1419.6613	32589.5	31642.9
883.8529	1421.5006	32688.45	31738.8
883.9965	1423.3391	32909.4	31960.15
884.1402	1425.1769	33081.55	32132.45
884.2838	1427.0139	33502.95	32552.45
884.4274	1428.8502	34003.15	33055.3
884.571	1430.6858	34471.45	33520.7
884.7146	1432.5206	34749.95	33800.15
884.8582	1434.3547	34934.8	33985.1
885.0018	1436.188	34934.95	33985.75
885.1453	1438.0206	34817.5	33866.5
885.2889	1439.8524	34546.1	33593.5
885.4324	1441.6835	34417.15	33465
885.5759	1443.5139	34214.55	33263.7
885.7194	1445.3435	34022.5	33073.95
885.8629	1447.1724	34001.35	33057.05
886.0064	1449.0005	33866.45	32920.85
886.1499	1450.8279	33649.25	32700.9
886.2933	1452.6545	33617.05	32672.35
886.4368	1454.4804	33645.85	32702.2
886.5802	1456.3056	33481.85	32529.3
886.7237	1458.13	33412.65	32466.35
886.8671	1459.9536	33138.2	32193.55
887.0105	1461.7766	32741.75	31790.9
887.1539	1463.5987	32266.1	31318.75
887.2972	1465.4202	31816.9	30869.7
887.4406	1467.2409	31374.2	30426.85
887.584	1469.0608	31162.1	30213.5
887.7273	1470.88	30828.1	29881.35
887.8706	1472.6984	30602.75	29658.45
888.0139	1474.5161	30260.75	29311.75
888.1572	1476.3331	30068.55	29122.65
888.3005	1478.1493	29883.35	28937.65
888.4438	1479.9648	29765.5	28818.45
888.5871	1481.7795	29617.25	28666.05
888.7303	1483.5935	29526.15	28578.9
888.8736	1485.4067	29421	28473.25
889.0168	1487.2192	29326	28379.55
889.16	1489.031	29306.95	28358.65
889.3032	1490.842	29118.25	28171.1
889.4464	1492.6522	29043	28096.65
889.5896	1494.4618	28951.1	28003.4
889.7327	1496.2705	28903.65	27959.45
889.8759	1498.0785	28810.8	27864.4
890.019	1499.8858	28729	27780.2
890.1622	1501.6924	28650.85	27707.5
890.3053	1503.4981	28607.05	27659.15
890.4484	1505.3032	28518.7	27572.7
890.5914	1507.1075	28444.65	27498.55
890.7345	1508.911	28356.05	27409.35
890.8776	1510.7138	28265.85	27319.2
891.0206	1512.5159	28163.4	27220.3
891.1637	1514.3172	28051.65	27106.65
891.3067	1516.1178	27905.3	26962.35
891.4497	1517.9176	27838.2	26887.85
891.5927	1519.7166	27766.2	26824.65
891.7357	1521.515	27659.9	26711
891.8786	1523.3126	27542.85	26599.4
892.0216	1525.1094	27503.5	26561.05
892.1645	1526.9055	27391.25	26449.95
892.3074	1528.7008	27244.7	26301.15
892.4503	1530.4954	27078.35	26133.5
892.5932	1532.2893	27030.85	26090.7
892.7361	1534.0824	26869.3	25925.5
892.879	1535.8747	26888.05	25950.85
893.0218	1537.6663	26787.35	25850.3
893.1647	1539.4572	26665.75	25728.05
893.3075	1541.2473	26607.7	25670.45
893.4503	1543.0367	26521.55	25582.2
893.5931	1544.8253	26413.1	25468.4
893.7359	1546.6132	26432.35	25490.15
893.8787	1548.4003	26290.3	25342
894.0214	1550.1867	26256.4	25311.75
894.1642	1551.9723	26176.7	25237.2
894.3069	1553.7572	26132.05	25195.7
894.4496	1555.5414	26061.45	25125.55
894.5923	1557.3247	26026.4	25093.9
894.735	1559.1074	26006.6	25077.45
894.8777	1560.8893	25962.05	25033.45
895.0204	1562.6705	25961.95	25032
895.163	1564.4509	25939	25009.65
895.3056	1566.2305	25901.25	24975.85
895.4482	1568.0094	26021.65	25096.3
895.5908	1569.7876	26063.05	25135.85
895.7334	1571.565	26003.95	25075.05
895.876	1573.3417	26067.5	25136.9
896.0186	1575.1176	25997.25	25067.6
896.1611	1576.8928	25944.25	25017.65
896.3036	1578.6672	25720.6	24801.95
896.4461	1580.4409	25571.45	24651.9
896.5886	1582.2138	25367.55	24445.8
896.7311	1583.986	25169.45	24243.75
896.8736	1585.7575	25087.95	24162.6
897.0161	1587.5282	24907.85	23985.55
897.1585	1589.2981	24852.95	23934.85
897.3009	1591.0673	24668.6	23751.5
897.4433	1592.8358	24625.2	23701.9
897.5857	1594.6035	24556.3	23629.45
897.7281	1596.3704	24486.1	23555.85
897.8705	1598.1366	24408.15	23481.9
898.0128	1599.9021	24362.55	23440.8
898.1551	1601.6668	24305.35	23382.15
898.2975	1603.4308	24318.3	23389.9
898.4398	1605.194	24325.75	23400
898.5821	1606.9564	24311.25	23392.75
898.7243	1608.7182	24371.95	23460.9
898.8666	1610.4791	24440	23535.85
899.0088	1612.2394	24482	23575.2
899.1511	1613.9988	24573.3	23662.2
899.2933	1615.7576	24736.7	23820.7
899.4355	1617.5156	24950.85	24022.65
899.5776	1619.2728	25130.35	24203.3
899.7198	1621.0293	25240.25	24319.25
899.862	1622.785	25266.45	24347.2
900.0041	1624.54	25132.35	24218.3
900.1462	1626.2942	24960.95	24043.95
900.2883	1628.0477	24592.4	23674.3
900.4304	1629.8005	24340.9	23421.9
900.5725	1631.5525	24029.2	23116.3
900.7145	1633.3037	23778	22863.6
900.8566	1635.0542	23602.7	22689.6
900.9986	1636.804	23459.1	22543.8
901.1406	1638.553	23350.75	22388.9
901.2826	1640.3013	23180	22264.4
901.4245	1642.0488	23053.5	22137.45
901.5665	1643.7955	23035.8	22122.65
901.7085	1645.5416	23004.35	22090.2
901.8504	1647.2868	23006.9	22091.6
901.9923	1649.0313	23014.75	22098.6
902.1342	1650.7751	23115.5	22198.25
902.2761	1652.5181	23215.7	22300.4
902.4179	1654.2604	23374.95	22461.8
902.5598	1656.0019	23561.4	22649.8
902.7016	1657.7427	23883.7	22971.25
902.8434	1659.4828	24189.7	23273.75
902.9852	1661.222	24289.2	23370.15
903.127	1662.9606	24310.15	23393.75
903.2687	1664.6984	24147.2	23229.5
903.4105	1666.4354	23798.45	22877.5
903.5522	1668.1717	23355.25	22433.05
903.6939	1669.9072	22797.3	21874.6
903.8356	1671.642	22430.55	21508.85
903.9773	1673.3761	22120.35	21203.65
904.119	1675.1094	21836.2	20918.75
904.2606	1676.8419	21573.4	20658.45
904.4022	1678.5737	21375.3	20456.35
904.5439	1680.3048	21219.6	20302.55
904.6855	1682.0351	21047.3	20127.85
904.827	1683.7646	20919.4	19999.6
904.9686	1685.4934	20808.35	19892.35
905.1101	1687.2215	20708.15	19792.5
905.2517	1688.9488	20588.1	19672.95
905.3932	1690.6754	20489.9	19579.4
905.5347	1692.4012	20432.85	19515.7
905.6761	1694.1263	20376.1	19459.6
905.8176	1695.8506	20296.45	19378.9
905.9591	1697.5742	20217.4	19304.35
906.1005	1699.297	20124.25	19215.35
906.2419	1701.0191	19983.15	19074.45
906.3833	1702.7404	19946.65	19040
906.5246	1704.461	19805	18893.8
906.666	1706.1808	19725.85	18810.3
906.8073	1707.8999	19669.9	18760.35
906.9487	1709.6182	19615.8	18712.25
907.09	1711.3358	19553.95	18649.65
907.2313	1713.0527	19456.95	18553.05
907.3725	1714.7688	19378.05	18463.8
907.5138	1716.4841	19319.05	18409.2
907.655	1718.1987	19292.95	18377.85
907.7962	1719.9126	19226.65	18320.2
907.9374	1721.6257	19136.65	18230.95
908.0786	1723.338	19123.85	18220.3
908.2198	1725.0496	18994.45	18088.3
908.3609	1726.7605	18941.65	18032.4
908.502	1728.4706	18861.35	17953.2
908.6431	1730.18	18768.9	17860.65
908.7842	1731.8886	18745.15	17840.65
908.9253	1733.5964	18710.4	17785.9
909.0664	1735.3036	18677.3	17770.7
909.2074	1737.0099	18633.7	17731.25
909.3484	1738.7156	18533.3	17628.7
909.4894	1740.4204	18466.65	17556.5
909.6304	1742.1246	18434.95	17526.6
909.7714	1743.8279	18368.45	17462.9
909.9123	1745.5306	18319.5	17415.9
910.0532	1747.2325	18262.2	17359.35
910.1941	1748.9336	18199.8	17295.8
910.335	1750.634	18133.8	17224.5
910.4759	1752.3336	18133.85	17230
910.6168	1754.0325	18104.6	17205.15
910.7576	1755.7307	18020.35	17116.35
910.8984	1757.4281	17983.9	17079.85
911.0392	1759.1247	17953.1	17037.45
911.18	1760.8206	17928.55	17013.5
911.3208	1762.5158	17877.8	16963.15
911.4615	1764.2102	17803.95	16895.7
911.6022	1765.9039	17751.9	16849.7
911.7429	1767.5968	17704.15	16802.55
911.8836	1769.289	17674.1	16773
912.0243	1770.9804	17622.1	16718.6
912.1649	1772.6711	17607.65	16698.2
912.3056	1774.361	17556.1	16646.35
912.4462	1776.0502	17512.05	16602.55
912.5868	1777.7386	17432.4	16524.4
912.7274	1779.4263	17402.9	16496.15
912.8679	1781.1132	17386.45	16484.65
913.0084	1782.7994	17332.75	16432.7
913.149	1784.4849	17298.65	16396.6
913.2895	1786.1696	17201.7	16284.35
913.4299	1787.8535	17189	16290.65
913.5704	1789.5367	17130.65	16232.15
913.7108	1791.2192	17078.45	16175.75
913.8513	1792.9009	17042.85	16112.45
913.9917	1794.5818	16992.1	16086.6
914.132	1796.2621	16971.85	16068
914.2724	1797.9415	16903.35	16000.3
914.4128	1799.6202	16848.1	15943.55
914.5531	1801.2982	16813.45	15907.85
914.6934	1802.9755	16779.2	15872.45
914.8337	1804.6519	16740.7	15835.95
914.9739	1806.3277	16662.65	15760.1
915.1142	1808.0027	16617.5	15718.4
915.2544	1809.6769	16580.4	15681.7
915.3946	1811.3504	16563.55	15667
915.5348	1813.0231	16532.5	15632.1
915.675	1814.6951	16470.35	15570.4
915.8151	1816.3664	16494.3	15588.1
915.9553	1818.0369	16431.95	15527.4
916.0954	1819.7067	16385.05	15482.55
916.2355	1821.3757	16338.5	15433.95
916.3755	1823.044	16312.65	15408.65
916.5156	1824.7115	16264.95	15360.15
916.6556	1826.3783	16204.75	15303.9
916.7956	1828.0443	16162.85	15259.65
916.9356	1829.7096	16140.65	15236.1
917.0756	1831.3741	16110.15	15203.5
917.2155	1833.0379	16048.15	15150
917.3555	1834.701	15987.6	15087.95
917.4954	1836.3633	15977	15080
917.6353	1838.0248	15920.25	15019.5
917.7751	1839.6856	15909.75	15008.5
917.915	1841.3457	15871.45	14970.5
918.0548	1843.005	15847.4	14943.6
918.1946	1844.6636	15786.85	14883.9
918.3344	1846.3214	15753.6	14849.75
918.4742	1847.9785	15782.75	14881.2
918.6139	1849.6349	15708.55	14803.7
918.7537	1851.2904	15693.05	14779.05
918.8934	1852.9453	15639.55	14734.15
919.0331	1854.5994	15595.95	14690.5
919.1727	1856.2528	15593.2	14684.5
919.3124	1857.9054	15497.65	14594
919.452	1859.5572	15489.6	14586.65
919.5916	1861.2083	15479.2	14576.75
919.7312	1862.8587	15462.3	14558.25
919.8708	1864.5084	15391.85	14485.1
920.0103	1866.1572	15361.55	14456.95
920.1498	1867.8054	15318.75	14412.25
920.2893	1869.4528	15293.8	14385.25
920.4288	1871.0994	15228.75	14323.75
920.5683	1872.7453	15224.4	14318.8
920.7077	1874.3905	15156	14246.75
920.8471	1876.0349	15118.35	14215.75
920.9865	1877.6786	15123	14218.5
921.1259	1879.3215	15144.75	14240.85
921.2653	1880.9637	15064.4	14161.7
921.4046	1882.6051	15007.1	14104.9
921.5439	1884.2458	14989.3	14086.45
921.6832	1885.8858	14933.6	14032.05
921.8225	1887.525	14917.55	14012
921.9617	1889.1634	14812.45	13906.15
922.101	1890.8011	14776.15	13872.45
922.2402	1892.4381	14736.25	13831.7
922.3794	1894.0743	14705.3	13803.35
922.5185	1895.7098	14699.4	13798.45
922.6577	1897.3446	14706.55	13801.55
922.7968	1898.9786	14629.05	13723.4
922.9359	1900.6118	14604.95	13703.8
923.075	1902.2443	14524.85	13622.75
923.214	1903.8761	14461.2	13561.25
923.3531	1905.5071	14375.4	13469.65
923.4921	1907.1374	14374.3	13472.35
923.6311	1908.7669	14354.55	13451.85
923.77	1910.3957	14327.9	13429.1
923.909	1912.0237	14262.95	13359.55
924.0479	1913.651	14214	13312.55
924.1868	1915.2776	14162.6	13262.55
924.3257	1916.9034	14093.6	13194.65
924.4646	1918.5285	14045.65	13146.5
924.6034	1920.1528	13988.05	13088.25
924.7422	1921.7764	14008.25	13106.9
924.881	1923.3992	13930.45	13028.2
925.0198	1925.0213	13821.85	12919.15
925.1586	1926.6427	13782.3	12882.75
925.2973	1928.2633	13827.75	12857.2
925.436	1929.8832	13735.45	12832.7
925.5747	1931.5023	13675.6	12772.7
925.7134	1933.1207	13631	12727.5
925.852	1934.7383	13597.6	12694.15
925.9906	1936.3552	13551.95	12653.5
926.1292	1937.9714	13532.95	12634.75
926.2678	1939.5868	13476.1	12573.85
926.4064	1941.2015	13406.6	12503.85
926.5449	1942.8154	13352.45	12451.65
926.6834	1944.4286	13293.6	12390.9
926.8219	1946.041	13245.9	12324.5
926.9604	1947.6528	13196.9	12290.1
927.0988	1949.2637	13172.95	12272.45
927.2372	1950.8739	13107.25	12205.55
927.3756	1952.4834	13079.95	12179.95
927.514	1954.0921	13067.55	12166.8
927.6523	1955.7001	13026.6	12124.25
927.7907	1957.3074	12970.3	12075.3
927.929	1958.9139	12935.45	12040.9
928.0673	1960.5197	12901.35	12004.15
928.2055	1962.1247	12874.8	11978.15
928.3438	1963.729	12799.2	11903.35
928.482	1965.3325	12718.95	11801
928.6202	1966.9353	12670.4	11775.85
928.7584	1968.5374	12619.8	11723.1
928.8965	1970.1387	12616.3	11722.05
929.0346	1971.7393	12571.55	11675.4
929.1727	1973.3392	12570.5	11675.3
929.3108	1974.9383	12491.05	11595.1
929.4489	1976.5366	12427.4	11533.8
929.5869	1978.1342	12399.6	11503.85
929.7249	1979.7311	12376	11481.05
929.8629	1981.3273	12336.1	11444.2
930.0009	1982.9227	12269.7	11375.4
930.1388	1984.5173	12225.6	11332.7
930.2767	1986.1112	12196.15	11301.95
930.4146	1987.7044	12175.05	11282.55
930.5525	1989.2968	12128.8	11235.45
930.6904	1990.8885	12071.75	11177.5
930.8282	1992.4795	12064.7	11172.55
930.966	1994.0697	12011.5	11121
931.1038	1995.6592	11981.25	11089.95
931.2415	1997.2479	11947.4	11055.75
931.3793	1998.8359	11921.9	11031.8
931.517	2000.4232	11858.1	10967.1
931.6547	2002.0097	11829.75	10945.25
931.7923	2003.5955	11783.25	10894.05
931.93	2005.1805	11762.8	10873.05
932.0676	2006.7648	11713.6	10823.1
932.2052	2008.3484	11705.2	10816.65
932.3427	2009.9312	11713.85	10824.65
932.4803	2011.5133	11656.8	10771.95
932.6178	2013.0946	11592.75	10706.4
932.7553	2014.6752	11592.75	10705.65
932.8928	2016.2551	11557.5	10667.25
933.0302	2017.8342	11493.2	10604.7
933.1676	2019.4126	11458.45	10570.85
933.305	2020.9902	11409.55	10523.1
933.4424	2022.5672	11407	10521.65
933.5798	2024.1433	11393	10502
933.7171	2025.7188	11341.9	10459.05
933.8544	2027.2935	11302.05	10414.55
933.9917	2028.8674	11238.55	10353.8
934.129	2030.4406	11236.95	10353.25
934.2662	2032.0131	11196.05	10311.9
934.4034	2033.5849	11160.75	10269.25
934.5406	2035.1559	11118.3	10230.45
934.6778	2036.7261	11118.8	10231.05
934.8149	2038.2957	11087.85	10196.3
934.952	2039.8645	11082.2	10189.5
935.0891	2041.4325	11031	10136.2
935.2262	2042.9998	10996.95	10107.55
935.3632	2044.5664	10969.25	10081.95
935.5002	2046.1323	10955.1	10069.7
935.6372	2047.6974	10919.45	10035.6
935.7742	2049.2617	10894.25	10008.7
935.9111	2050.8254	10851.65	9957.95
936.048	2052.3883	10834.45	9944.45
936.1849	2053.9504	10790.55	9900.7
936.3218	2055.5118	10763	9871.45
936.4586	2057.0725	10710.95	9819.4
936.5955	2058.6325	10693.85	9806
936.7323	2060.1917	10676.4	9790.15
936.869	2061.7502	10633.15	9745.25
937.0058	2063.3079	10580.55	9695.5
937.1425	2064.8649	10560.3	9672.6
937.2792	2066.4212	10559.2	9670.15
937.4159	2067.9767	10501.45	9613.05
937.5525	2069.5315	10447.6	9558.7
937.6891	2071.0856	10402	9514.65
937.8257	2072.6389	10366.55	9478.2
937.9623	2074.1915	10347	9462.9
938.0989	2075.7433	10292.05	9403.65
938.2354	2077.2945	10245.7	9358.9
938.3719	2078.8448	10235.75	9346.9
938.5084	2080.3945	10186.7	9295.85
938.6448	2081.9434	10197.25	9305.7
938.7812	2083.4916	10169.15	9275.9
938.9176	2085.039	10122.4	9226.75
939.054	2086.5857	10088	9191.2
939.1903	2088.1317	10114.15	9217.3
939.3267	2089.677	10059.95	9164.25
939.463	2091.2215	10017.1	9122.75
939.5992	2092.7652	9978.3	9078.4
939.7355	2094.3083	9975.75	9079.8
939.8717	2095.8506	9966.1	9073.55
940.0079	2097.3921	9951.45	9060.3
940.1441	2098.933	9928.75	9036.5
940.2802	2100.4731	9925.7	9034.15
940.4163	2102.0124	9892.7	8993.45
940.5524	2103.5511	9833.75	8940.35
940.6885	2105.089	9830.95	8936.95
940.8245	2106.6261	9805.7	8913.85
940.9606	2108.1626	9761.65	8868.95
941.0965	2109.6983	9760.2	8840.55
941.2325	2111.2332	9709.3	8814.8
941.3684	2112.7675	9672.1	8779.2
941.5044	2114.301	9668.55	8775.1
941.6403	2115.8337	9650.8	8756.8
941.7761	2117.3657	9635.55	8742.25
941.912	2118.897	9608.55	8713.4
942.0478	2120.4276	9578.7	8677.25
942.1835	2121.9575	9544.55	8649.1
942.3193	2123.4866	9551.3	8654.8
942.455	2125.0149	9508.1	8613.75
942.5907	2126.5426	9440.1	8553.5
942.7264	2128.0695	9419	8527.75
942.8621	2129.5956	9404.25	8518.2
942.9977	2131.1211	9403.95	8511.95
943.1333	2132.6458	9345.35	8454.1
943.2689	2134.1698	9336.8	8442.65
943.4044	2135.693	9318.55	8421.05
943.54	2137.2155	9300.5	8404.8
943.6755	2138.7373	9269.9	8379.05
943.8109	2140.2584	9224.8	8334.9
943.9464	2141.7787	9198.65	8306.4
944.0818	2143.2983	9174.4	8289.8
944.2172	2144.8171	9126.6	8242.85
944.3526	2146.3353	9115.3	8224.1
944.4879	2147.8527	9062.55	8171.75
944.6232	2149.3693	9082.05	8188.6
944.7585	2150.8853	9031.05	8137.45
944.8938	2152.4005	8997	8100.45
945.029	2153.9149	8987.35	8091.15
945.1642	2155.4287	9053.9	8044.35
945.2994	2156.9417	8966.05	8070.8
945.4346	2158.454	8922.55	8028.6
945.5697	2159.9655	8905.4	8017.05
945.7048	2161.4764	8853.15	7964.4
945.8399	2162.9865	8820.25	7928.35
945.9749	2164.4958	8799.05	7907.35
946.1099	2166.0045	8794.05	7901.2
946.2449	2167.5124	8776.85	7885
946.3799	2169.0195	8759.5	7868.15
946.5148	2170.526	8742.35	7847.9
946.6498	2172.0317	8724.85	7830.45
946.7846	2173.5367	8690.55	7798
946.9195	2175.0409	8645.1	7754
947.0543	2176.5445	8643.25	7752.1
947.1891	2178.0473	8621.65	7726.7
947.3239	2179.5494	8575.25	7677.55
947.4587	2181.0507	8569.1	7674.8
947.5934	2182.5513	8540.55	7649.05
947.7281	2184.0512	8524.8	7632.7
947.8628	2185.5504	8473.8	7580.05
947.9974	2187.0488	8468.7	7580.75
948.132	2188.5465	8440.45	7551.7
948.2666	2190.0435	8400.3	7508.05
948.4012	2191.5397	8369.45	7474.9
948.5357	2193.0353	8334.1	7439.4
948.6702	2194.5301	8319	7422.35
948.8047	2196.0241	8281.4	7384.3
948.9392	2197.5175	8251.7	7352.75
949.0736	2199.0101	8244.7	7344.3
949.208	2200.502	8201.95	7309.15
949.3424	2201.9931	8139.2	7248.1
949.4767	2203.4835	8118.85	7230.45
949.611	2204.9733	8113.9	7205.45
949.7453	2206.4622	8076.25	7189.15
949.8796	2207.9505	8062.85	7173.45
950.0138	2209.438	8050.85	7162.65
950.148	2210.9248	8012.05	7122.1
950.2822	2212.4109	7987.85	7096.35
950.4164	2213.8962	7982.95	7085.25
950.5505	2215.3809	7940.1	7041.15
950.6846	2216.8648	7910.95	7012
950.8186	2218.3479	7904.1	7000.1
950.9527	2219.8304	7874.5	6971.55
951.0867	2221.3121	7843.7	6942.75
951.2207	2222.7931	7824.15	6925.8
951.3546	2224.2733	7787.7	6892.4
951.4886	2225.7529	7772.35	6879.5
951.6225	2227.2317	7740	6847.15
951.7563	2228.7098	7718.65	6829.85
951.8902	2230.1872	7673.05	6783.7
952.024	2231.6638	7658.9	6771.55
952.1578	2233.1397	7638.45	6745.8
952.2916	2234.6149	7609.55	6719.15
952.4253	2236.0894	7610.5	6717.75
952.559	2237.5632	7606.05	6711
952.6927	2239.0362	7559.55	6668.5
952.8263	2240.5085	7504.4	6611.25
952.9599	2241.9801	7514.05	6620.55
953.0935	2243.4509	7486.25	6590.4
953.2271	2244.921	7462.85	6566.2
953.3606	2246.3904	7440.15	6541.35
953.4941	2247.8591	7395.55	6499.7
953.6276	2249.3271	7381.45	6487.35
953.7611	2250.7943	7375.3	6478.55
953.8945	2252.2608	7346.75	6450.6
954.0279	2253.7266	7324.3	6430.25
954.1612	2255.1917	7288.35	6394.75
954.2946	2256.656	7254.2	6361.15
954.4279	2258.1197	7240.1	6348.5
954.5612	2259.5826	7224.35	6332.75
954.6944	2261.0447	7235.45	6342.95
954.8276	2262.5062	7190.5	6291.75
954.9608	2263.9669	7184.2	6286.7
955.094	2265.4269	7156.8	6259.65
955.2271	2266.8862	7138.8	6245.6
955.3602	2268.3448	7144.7	6253.25
955.4933	2269.8026	7096.85	6206.4
955.6264	2271.2598	7076.9	6186.8
955.7594	2272.7162	7073.95	6181.75
955.8924	2274.1719	7059.4	6162.9
956.0253	2275.6268	7016.5	6120
956.1583	2277.0811	7014.9	6117.55
956.2912	2278.5346	6990.9	6098.75
956.4241	2279.9874	6975.5	6085.95
956.5569	2281.4395	6971	6078.7
956.6897	2282.8908	6948.4	6050.35
956.8225	2284.3414	6930.55	6034.95
956.9553	2285.7914	6896.2	6003.35
957.088	2287.2406	6891.2	5992.45
957.2207	2288.689	6890.85	5991.45
957.3534	2290.1368	6849.15	5949.25
957.486	2291.5838	6816.2	5913.75
957.6186	2293.0302	6796.2	5893.25
957.7512	2294.4758	6789.7	5892.5
957.8838	2295.9206	6758.4	5860.45
958.0163	2297.3648	6730.85	5838.15
958.1488	2298.8082	6744.85	5850.15
958.2813	2300.251	6715.2	5819.8
958.4137	2301.693	6698.6	5798.65
958.5461	2303.1343	6669.2	5769.75
958.6785	2304.5748	6660.1	5766.7
958.8108	2306.0147	6636.35	5744.25
958.9432	2307.4538	6604.05	5713.3
959.0754	2308.8922	6599.95	5713.6
959.2077	2310.3299	6578	5688.1
959.3399	2311.7669	6537.85	5646.45
959.4721	2313.2031	6539.35	5645.3
959.6043	2314.6387	6501.15	5604
959.7365	2316.0735	6478.1	5583.35
959.8686	2317.5076	6476.35	5580.7
960.0006	2318.941	6454	5559.4
960.1327	2320.3737	6454.6	5556.8
960.2647	2321.8056	6422.25	5522.7
960.3967	2323.2369	6390.15	5494.4
960.5287	2324.6674	6383.8	5486.65
960.6606	2326.0972	6372.05	5475.5
960.7925	2327.5263	6361.7	5466
960.9244	2328.9547	6338	5443.15
961.0562	2330.3823	6300.4	5403.95
961.1881	2331.8092	6309.25	5408.25
961.3198	2333.2355	6272.95	5373.7
961.4516	2334.661	6277.45	5376.5
961.5833	2336.0858	6266.85	5367.3
961.715	2337.5098	6228.5	5333.25
961.8467	2338.9332	6214.1	5318.55
961.9783	2340.3558	6188.2	5292.55
962.1099	2341.7778	6175.25	5284.55
962.2415	2343.199	6155	5260.05
962.373	2344.6195	6150.9	5257.75
962.5045	2346.0393	6113.1	5220.9
962.636	2347.4583	6126.4	5234.15
962.7675	2348.8767	6097.4	5200.8
962.8989	2350.2943	6098.25	5203
963.0303	2351.7113	6080.3	5181.35
963.1617	2353.1275	6037.7	5139.3
963.293	2354.543	6051.05	5144.55
963.4243	2355.9578	6035.65	5138.8
963.5556	2357.3718	5960.85	5068.6
963.6868	2358.7852	5942.6	5047.6
963.818	2360.1978	5936.4	5044.9
963.9492	2361.6098	5920.2	5028.05
964.0803	2363.021	5888.95	4991.5
964.2114	2364.4315	5885.85	4991.8
964.3425	2365.8413	5872.55	4977.3
964.4736	2367.2504	5853.05	4961.5
964.6046	2368.6587	5826.75	4935.55
964.7356	2370.0664	5825.45	4932.35
964.8666	2371.4733	5809.7	4916.3
964.9975	2372.8795	5788.45	4895.2
965.1284	2374.285	5763.95	4868.9
965.2593	2375.6899	5727.4	4834.85
965.3901	2377.0939	5682.9	4788.2
965.5209	2378.4973	5681.95	4788.25
965.6517	2379.9	5677.15	4784.4
965.7825	2381.3019	5647.3	4756.9
965.9132	2382.7032	5612.05	4721.4
966.0439	2384.1037	5628.1	4739.85
966.1745	2385.5035	5598.55	4709.05
966.3051	2386.9027	5591.55	4703
966.4357	2388.3011	5585.35	4691.3
966.5663	2389.6987	5567.3	4677.4
966.6968	2391.0957	5536.4	4643.6
966.8273	2392.492	5494.7	4604.25
966.9578	2393.8876	5491.3	4602.1
967.0882	2395.2824	5470.25	4579.95
967.2186	2396.6765	5436.2	4545.5
967.349	2398.07	5431.95	4539.85
967.4793	2399.4627	5432.5	4537.2
967.6097	2400.8547	5411.2	4517.45
967.7399	2402.246	5382.2	4482.85
967.8702	2403.6366	5364.4	4472.75
968.0004	2405.0265	5340.45	4449.2
968.1306	2406.4156	5338.15	4442.85
968.2607	2407.8041	5312.75	4419.05
968.3909	2409.1918	5299	4403.65
968.521	2410.5789	5261.05	4367.8
968.651	2411.9652	5267.8	4371.85
968.781	2413.3508	5263.85	4369.35
968.911	2414.7358	5218.65	4325.15
969.041	2416.12	5208.6	4315.75
969.1709	2417.5035	5200.15	4307.95
969.3008	2418.8863	5172.75	4276.8
969.4307	2420.2684	5156.15	4262.45
969.5606	2421.6497	5148.45	4255.05
969.6904	2423.0304	5128.05	4235.75
969.8201	2424.4104	5112.7	4219
969.9499	2425.7896	5064.65	4170.15
970.0796	2427.1682	5092.65	4199.4
970.2093	2428.546	5048.35	4155.9
970.3389	2429.9232	5048.9	4154.15
970.4685	2431.2996	5026.1	4133.35
970.5981	2432.6753	5013.1	4120.95
970.7277	2434.0503	5014.75	4118.85
970.8572	2435.4246	4988.25	4095.1
970.9867	2436.7982	4969.4	4075.6
971.1161	2438.1711	4960.65	4065.95
971.2456	2439.5433	4966.4	4070.5
971.375	2440.9148	4924.5	4026.75
971.5043	2442.2856	4915.8	4021.75
971.6336	2443.6557	4901.25	4008.4
971.7629	2445.025	4869.1	3974.5
971.8922	2446.3937	4886.95	3991.8
972.0214	2447.7617	4867.75	3970.9
972.1506	2449.1289	4852.15	3959.85
972.2798	2450.4955	4854.2	3957.8
972.4089	2451.8613	4823	3931.75
972.538	2453.2265	4815.65	3923.5
972.6671	2454.5909	4801.3	3909.05
972.7961	2455.9546	4797.85	3905.65
972.9251	2457.3177	4763.1	3872.25
973.0541	2458.68	4773.1	3879.3
973.1831	2460.0416	4775.3	3883.55
973.312	2461.4025	4738	3844.1
973.4408	2462.7627	4737.8	3835
973.5697	2464.1222	4721.6	3831.5
973.6985	2465.4811	4687.35	3795.7
973.8273	2466.8392	4691.5	3801.7
973.956	2468.1966	4687.55	3792.6
974.0847	2469.5533	4683.25	3788.45
974.2134	2470.9093	4686.45	3792.6
974.3421	2472.2645	4656.2	3760.85
974.4707	2473.6191	4629.5	3738.1
974.5993	2474.973	4620.5	3727.6
974.7278	2476.3262	4605.35	3711
974.8563	2477.6787	4599.85	3707.8
974.9848	2479.0305	4573.85	3679.65
975.1132	2480.3816	4569.65	3675.5
975.2417	2481.7319	4522.6	3631.5
975.37	2483.0816	4525.9	3632.45
975.4984	2484.4306	4527	3635.55
975.6267	2485.7789	4501.15	3612.3
975.755	2487.1264	4486.65	3593.8
975.8833	2488.4733	4452.1	3561.6
976.0115	2489.8195	4463.65	3556.45
976.1397	2491.165	4441.05	3546.25
976.2678	2492.5097	4429.05	3535.45
976.3959	2493.8538	4399.2	3508.65
976.524	2495.1972	4395.6	3503.05
976.6521	2496.5398	4380.4	3485.65
976.7801	2497.8818	4385.75	3490.8
976.9081	2499.2231	4377.5	3483.5
977.036	2500.5637	4357.45	3461.6
977.164	2501.9035	4351.15	3455.85
977.2918	2503.2427	4331.55	3434.35
977.4197	2504.5812	4306.4	3412.95
977.5475	2505.919	4304.1	3408.9
977.6753	2507.256	4293.4	3401.25
977.8031	2508.5924	4285.45	3391.9
977.9308	2509.9281	4261.5	3364.45
978.0585	2511.2631	4249	3356.1
978.1861	2512.5974	4239.45	3347.85
978.3137	2513.9309	4217	3326.55
978.4413	2515.2638	4231.05	3309.05
978.5689	2516.596	4218.15	3325.5
978.6964	2517.9275	4181.35	3286.35
978.8239	2519.2583	4175	3281.9
978.9513	2520.5884	4162.05	3268.8
979.0788	2521.9178	4150.45	3259.95
979.2062	2523.2465	4162.15	3273.1
979.3335	2524.5745	4123.15	3231.8
979.4608	2525.9018	4107.6	3214.55
979.5881	2527.2284	4102.8	3210.65
979.7154	2528.5543	4099.1	3208.95
979.8426	2529.8796	4080.35	3187.85
979.9698	2531.2041	4087.45	3194.05
980.0969	2532.5279	4067.05	3174.25
980.224	2533.851	4061.45	3167.75
980.3511	2535.1735	4049.35	3158.05
980.4781	2536.4952	4050.6	3159
980.6052	2537.8163	4018.35	3123.15
980.7321	2539.1366	4019.1	3126.85
980.8591	2540.4562	4006.55	3110.4
980.986	2541.7752	4015.4	3120.75
981.1129	2543.0935	3978.4	3083.85
981.2397	2544.411	3992.35	3097.35
981.3665	2545.7279	3987.4	3094.6
981.4933	2547.0441	3973.4	3080.25
981.62	2548.3596	3981.45	3086.25
981.7467	2549.6744	3972.55	3079.55
981.8734	2550.9885	3950.95	3051.2
982.0001	2552.3019	3935.1	3039.7
982.1267	2553.6146	3936.9	3043.85
982.2532	2554.9266	3928.1	3036.9
982.3798	2556.2379	3916.15	3023
982.5063	2557.5485	3897.75	3006.85
982.6327	2558.8585	3894.9	2994.65
982.7592	2560.1677	3884.85	2988.15
982.8856	2561.4762	3881.15	2986.45
983.0119	2562.7841	3877.35	2980.55
983.1383	2564.0913	3860.45	2965.45
983.2646	2565.3977	3853.45	2961.85
983.3908	2566.7035	3840.85	2946
983.517	2568.0086	3830.25	2935.3
983.6432	2569.313	3832	2935.85
983.7694	2570.6167	3810.4	2912.85
983.8955	2571.9197	3811.55	2918.4
984.0216	2573.222	3812.1	2915.1
984.1476	2574.5236	3795.65	2899.65
984.2737	2575.8246	3788.25	2890.7
984.3996	2577.1248	3789.1	2893.1
984.5256	2578.4244	3787.3	2895.15
984.6515	2579.7232	3781.25	2887.55
984.7774	2581.0214	3797.25	2872.5
984.9032	2582.3189	3764.65	2870.45
985.029	2583.6157	3758.75	2860.25
985.1548	2584.9118	3739.55	2844.65
985.2806	2586.2072	3735.35	2841.65
985.4063	2587.5019	3727.35	2833.85
985.5319	2588.7959	3729.75	2836.45
985.6576	2590.0893	3727.6	2831.65
985.7832	2591.3819	3723.6	2830.75
985.9087	2592.6739	3720.6	2826.75
986.0343	2593.9652	3704.7	2807.45
986.1597	2595.2557	3685.05	2790.6
986.2852	2596.5456	3686.15	2790.45
986.4106	2597.8348	3686.2	2794.95
986.536	2599.1234	3675.1	2782.65
986.6614	2600.4112	3659.45	2764.6
986.7867	2601.6983	3653.25	2757
986.912	2602.9848	3638	2742.7
987.0372	2604.2705	3629.6	2729.65
987.1624	2605.5556	3624.9	2728.9
987.2876	2606.84	3612.1	2717.7
987.4128	2608.1237	3589.15	2694.15
987.5379	2609.4067	3580.65	2688
987.6629	2610.689	3589.25	2686.1
987.788	2611.9707	3565	2666.9
987.913	2613.2516	3557.95	2660.4
988.0379	2614.5319	3542.8	2649.7
988.1629	2615.8115	3532	2637.5
988.2878	2617.0903	3521.55	2625.65
988.4126	2618.3685	3506.85	2610.2
988.5375	2619.6461	3515.6	2620.25
988.6622	2620.9229	3485.5	2592.2
988.787	2622.199	3476.55	2580.75
988.9117	2623.4745	3479.3	2584.9
989.0364	2624.7493	3466.5	2574.95
989.161	2626.0234	3445.3	2554.2
989.2857	2627.2968	3438.6	2546.7
989.4102	2628.5695	3435.9	2542.5
989.5348	2629.8415	3424.8	2531.5
989.6593	2631.1128	3416.2	2521.4
989.7837	2632.3835	3414.9	2522.7
989.9082	2633.6535	3386.4	2494.35
990.0326	2634.9228	3376.9	2483.95
990.1569	2636.1914	3377.65	2485.65
990.2812	2637.4593	3378.2	2479.55
990.4055	2638.7265	3368.45	2473.6
990.5298	2639.9931	3347.45	2454
990.654	2641.259	3346.1	2451.35
990.7782	2642.5242	3344.4	2450.5
990.9023	2643.7887	3332.95	2439.05
991.0264	2645.0525	3315.95	2422.05
991.1505	2646.3156	3334.05	2425.65
991.2745	2647.5781	3306.9	2413.6
991.3985	2648.8398	3278.1	2385.5
991.5225	2650.1009	3285.75	2384.45
991.6464	2651.3613	3268.1	2374.9
991.7703	2652.6211	3272.45	2378.55
991.8942	2653.8801	3249	2356.4
992.018	2655.1385	3247.2	2352.65
992.1418	2656.3961	3241.9	2349.5
992.2655	2657.6531	3249.2	2356.05
992.3892	2658.9094	3234.7	2342.6
992.5129	2660.1651	3231.75	2337.95
992.6366	2661.42	3228.45	2334.6
992.7602	2662.6743	3232.8	2337.75
992.8837	2663.9279	3218.5	2323.5
993.0073	2665.1808	3208.4	2313.85
993.1307	2666.433	3201.15	2308.65
993.2542	2667.6846	3203.25	2311.7
993.3776	2668.9354	3212.95	2315.4
993.501	2670.1856	3201.85	2308.05
993.6244	2671.4351	3190.5	2297.05
993.7477	2672.6839	3183	2290.4
993.8709	2673.9321	3179.65	2287.5
993.9942	2675.1795	3165.7	2271.75
994.1174	2676.4263	3157.75	2266.05
994.2405	2677.6724	3170.5	2280.15
994.3637	2678.9179	3153.65	2260.4
994.4868	2680.1626	3152.35	2259.2
994.6098	2681.4067	3146.85	2253.25
994.7328	2682.6501	3144.65	2250.9
994.8558	2683.8928	3128.55	2236.55
994.9788	2685.1348	3126.9	2234.8
995.1017	2686.3761	3105.2	2214.3
995.2245	2687.6168	3087.95	2196.15
995.3474	2688.8568	3087.75	2197.25
995.4702	2690.0961	3065.65	2174.25
995.5929	2691.3348	3074.45	2183.1
995.7156	2692.5727	3072.5	2180.55
995.8383	2693.81	3059.7	2168.15
995.961	2695.0466	3049.3	2157.55
996.0836	2696.2826	3038.05	2143.75
996.2062	2697.5178	3034.55	2139.4
996.3287	2698.7524	3020.6	2128.15
996.4512	2699.9863	3032.8	2137.95
996.5737	2701.2195	3013.1	2119.95
996.6961	2702.452	3009.6	2115.5
996.8185	2703.6839	3005.8	2114.65
996.9408	2704.9151	3024.1	2134.15
997.0631	2706.1456	2993.45	2099.35
997.1854	2707.3755	3002.4	2108.8
997.3077	2708.6046	3007.7	2111.45
997.4299	2709.8331	2995.15	2102.7
997.552	2711.0609	3006.95	2115.25
997.6742	2712.2881	2993.4	2102.65
997.7963	2713.5145	3017.65	2124.65
997.9183	2714.7403	3004.45	2113.45
998.0403	2715.9654	2999.5	2107.45
998.1623	2717.1899	3023.1	2115.55
998.2842	2718.4136	3002.8	2111.4
998.4062	2719.6367	3010.3	2120.55
998.528	2720.8591	3026.85	2129.6
998.6498	2722.0809	3015.9	2124.45
998.7716	2723.3019	3029.9	2133.4
998.8934	2724.5223	3024.6	2131.2
999.0151	2725.7421	3033.1	2141.4
999.1368	2726.9611	3012.75	2118.75
999.2584	2728.1795	3016.05	2118.9
999.38	2729.3972	2998.85	2108
999.5016	2730.6142	2974.05	2075.3
999.6231	2731.8306	2955.7	2061.8
999.7446	2733.0462	2955.9	2062.7
999.8661	2734.2612	2915	2019.55
999.9875	2735.4756	2908.45	2015.15
1000.1089	2736.6892	2873.9	1982.8
1000.2302	2737.9022	2850	1958.45
1000.3515	2739.1145	2849.6	1959.35
1000.4728	2740.3262	2821.55	1921.6
1000.594	2741.5372	2797.2	1906.15
1000.7152	2742.7475	2787.2	1893.8
1000.8363	2743.9571	2788.8	1896.75
1000.9575	2745.1661	2772.45	1877.5
1001.0785	2746.3744	2752.85	1859.5
1001.1996	2747.582	2746.85	1856.75
1001.3206	2748.7889	2727.55	1834.8
1001.4415	2749.9952	2711	1820.8
1001.5625	2751.2008	2707.2	1815.65
1001.6833	2752.4057	2704.95	1812.55
1001.8042	2753.61	2677.3	1786.75
1001.925	2754.8136	2670.1	1776.4
1002.0458	2756.0165	2663.5	1774.15
1002.1665	2757.2188	2661	1770.1
1002.2872	2758.4204	2666.9	1776.5
1002.4078	2759.6213	2642.55	1750.1
1002.5285	2760.8215	2647.8	1753.95
1002.649	2762.0211	2645.9	1754.35
1002.7696	2763.22	2637.3	1741.85
1002.8901	2764.4182	2627	1734.7
1003.0106	2765.6158	2632.85	1741.7
1003.131	2766.8127	2619.2	1731.2
1003.2514	2768.009	2602.05	1712.35
1003.3717	2769.2045	2605.95	1714.35
1003.492	2770.3994	2582.95	1691.85
1003.6123	2771.5936	2578.95	1688.3
1003.7325	2772.7872	2575.8	1687.05
1003.8527	2773.9801	2553.55	1660.65
1003.9729	2775.1723	2575	1666.95
1004.093	2776.3639	2547.7	1656.45
1004.2131	2777.5548	2557.5	1666.85
1004.3331	2778.745	2548.5	1658.5
1004.4531	2779.9346	2547.2	1658.15
1004.5731	2781.1235	2538.75	1646.25
1004.693	2782.3117	2526.85	1638.95
1004.8129	2783.4992	2528	1637.9
1004.9328	2784.6861	2525.95	1636.25
1005.0526	2785.8723	2537.05	1646.6
1005.1723	2787.0579	2528.05	1638.55
1005.2921	2788.2428	2544	1654.6
1005.4118	2789.427	2536.35	1646.1
1005.5314	2790.6106	2535.45	1647.2
1005.651	2791.7935	2562.9	1675.6
1005.7706	2792.9757	2564.85	1675.45
1005.8902	2794.1573	2555.15	1663.65
1006.0097	2795.3382	2564.5	1673.4
1006.1291	2796.5184	2581.05	1694.5
1006.2485	2797.698	2594.7	1703.55
1006.3679	2798.8769	2602.6	1714.55
1006.4873	2800.0551	2598.3	1708.75
1006.6066	2801.2327	2619.15	1728.25
1006.7258	2802.4096	2633.85	1744.35
1006.8451	2803.5859	2640.75	1750.05
1006.9642	2804.7615	2663.45	1774.35
1007.0834	2805.9364	2675.1	1787
1007.2025	2807.1106	2688.75	1797.95
1007.3216	2808.2842	2716.05	1826.65
1007.4406	2809.4572	2740.8	1851.35
1007.5596	2810.6294	2784.8	1894.8
1007.6785	2811.801	2821.5	1933.85
1007.7975	2812.972	2855.6	1967.6
1007.9163	2814.1423	2888.4	2000.4
1008.0352	2815.3119	2940.25	2051.1
1008.154	2816.4808	2967.05	2080.25
1008.2727	2817.6491	3004.3	2115
1008.3914	2818.8167	3055.65	2167.25
1008.5101	2819.9837	3094.1	2200.2
1008.6288	2821.15	3136.2	2247.3
1008.7474	2822.3157	3169.25	2280.55
1008.8659	2823.4807	3214.25	2326.8
1008.9844	2824.645	3255.7	2364.75
1009.1029	2825.8086	3285.55	2397.95
1009.2214	2826.9716	3322.55	2434.25
1009.3398	2828.134	3364.7	2476.75
1009.4581	2829.2957	3395.9	2507.75
1009.5764	2830.4567	3404.65	2517.95
1009.6947	2831.617	3420.3	2531.35
1009.813	2832.7767	3443.75	2557.7
1009.9312	2833.9358	3427.6	2539.45
1010.0493	2835.0941	3424.15	2534.05
1010.1675	2836.2519	3418.2	2529.8
1010.2855	2837.4089	3396.8	2507.55
1010.4036	2838.5653	3379.45	2493.1
1010.5216	2839.7211	3377.7	2491.55
1010.6396	2840.8761	3379.95	2490.3
1010.7575	2842.0306	3401.75	2513.3
1010.8754	2843.1843	3435.7	2546.85
1010.9932	2844.3374	3475.15	2586.6
1011.111	2845.4899	3538.5	2650.2
1011.2288	2846.6417	3589.65	2701.5
1011.3465	2847.7928	3661.25	2772.8
1011.4642	2848.9433	3744.85	2856.4
1011.5818	2850.0931	3814.7	2926.6
1011.6995	2851.2422	3895.4	3004.6
1011.817	2852.3907	3938.25	3051.05
1011.9345	2853.5385	4012.3	3122.95
1012.052	2854.6857	4058.55	3164.2
1012.1695	2855.8323	4102.55	3216.05
1012.2869	2856.9781	4141.35	3251.35
1012.4042	2858.1233	4189.45	3302.6
1012.5216	2859.2679	4221.35	3334
1012.6389	2860.4118	4280.75	3393.45
1012.7561	2861.555	4299.6	3406.45
1012.8733	2862.6976	4331.75	3440.85
1012.9905	2863.8395	4350.75	3465.1
1013.1076	2864.9808	4373.65	3485.95
1013.2247	2866.1214	4380.95	3493.2
1013.3417	2867.2614	4388.6	3500
1013.4587	2868.4007	4405.55	3517.6
1013.5757	2869.5393	4409	3518.95
1013.6926	2870.6773	4420.6	3529
1013.8095	2871.8146	4429.65	3540.35
1013.9263	2872.9513	4425.05	3533.55
1014.0431	2874.0874	4407.85	3518.65
1014.1599	2875.2227	4405.45	3516.9
1014.2766	2876.3574	4373.35	3485.95
1014.3933	2877.4915	4350.25	3463.9
1014.51	2878.6249	4309.7	3422.25
1014.6266	2879.7577	4297.2	3408
1014.7431	2880.8898	4281.45	3382.45
1014.8596	2882.0212	4263.15	3377.2
1014.9761	2883.152	4241.2	3353
1015.0925	2884.2821	4226.55	3341.3
1015.2089	2885.4116	4202.9	3315.4
1015.3253	2886.5405	4229.9	3341.95
1015.4416	2887.6686	4228.65	3336.2
1015.5579	2888.7962	4226.05	3340.05
1015.6741	2889.923	4224.55	3338.2
1015.7903	2891.0493	4239.3	3353.1
1015.9065	2892.1748	4238.75	3352.45
1016.0226	2893.2997	4240.25	3352.7
1016.1387	2894.424	4245.65	3361.35
1016.2547	2895.5476	4258.5	3372.35
1016.3707	2896.6706	4270.45	3382.5
1016.4866	2897.7929	4300.75	3414.2
1016.6025	2898.9145	4322.35	3435.35
1016.7184	2900.0355	4361.5	3474.85
1016.8342	2901.1559	4372.45	3484.95
1016.95	2902.2756	4410.95	3525.2
1017.0658	2903.3946	4436.8	3550.9
1017.1815	2904.513	4456.65	3566.2
1017.2971	2905.6308	4462.65	3574.85
1017.4127	2906.7479	4496.35	3607.75
1017.5283	2907.8643	4527.3	3640.15
1017.6439	2908.9801	4539.05	3653.15
1017.7594	2910.0953	4529.45	3643.9
1017.8748	2911.2098	4511.8	3623.2
1017.9902	2912.3236	4529.25	3635.2
1018.1056	2913.4368	4512.75	3624.45
1018.2209	2914.5494	4476.5	3590.7
1018.3362	2915.6613	4444.35	3552.05
1018.4515	2916.7725	4419.15	3529.2
1018.5667	2917.8831	4402.1	3511.9
1018.6819	2918.9931	4349	3461.5
1018.797	2920.1024	4320.75	3433.7
1018.9121	2921.211	4303.7	3419.4
1019.0271	2922.319	4296	3409.4
1019.1421	2923.4264	4261.2	3374.2
1019.2571	2924.5331	4244.35	3357.4
1019.372	2925.6391	4237.25	3349.8
1019.4869	2926.7445	4223.8	3339.55
1019.6017	2927.8493	4208.85	3321.35
1019.7165	2928.9534	4208.7	3321.7
1019.8313	2930.0569	4213.2	3324.75
1019.946	2931.1597	4188	3298.8
1020.0606	2932.2619	4182.45	3296
1020.1753	2933.3634	4169.35	3283.45
1020.2899	2934.4643	4158.1	3264.5
1020.4044	2935.5645	4131.2	3238.05
1020.5189	2936.6641	4098.75	3208.95
1020.6334	2937.763	4061.7	3175.6
1020.7478	2938.8613	4005.85	3117.95
1020.8622	2939.959	3956.9	3067.75
1020.9765	2941.056	3877.5	2991.9
1021.0908	2942.1523	3785.1	2897.75
1021.2051	2943.248	3708.8	2823
1021.3193	2944.3431	3618.45	2734.35
1021.4334	2945.4375	3521.9	2634.05
1021.5476	2946.5313	3418.2	2532.95
1021.6617	2947.6244	3318.5	2431.05
1021.7757	2948.7169	3219.65	2331.75
1021.8897	2949.8087	3128.15	2242.4
1022.0037	2950.8999	3047.85	2161
1022.1176	2951.9904	2963.35	2078.95
1022.2315	2953.0803	2888.05	1999.9
1022.3453	2954.1696	2825.8	1938.7
1022.4591	2955.2582	2777.55	1892.85
1022.5728	2956.3462	2723	1837.15
1022.6865	2957.4335	2682	1794.3
1022.8002	2958.5202	2667.5	1780.3
1022.9138	2959.6062	2622.9	1737.7
1023.0274	2960.6916	2599.95	1714.45
1023.141	2961.7764	2571.15	1685.25
1023.2545	2962.8605	2561.85	1675.5
1023.3679	2963.9439	2535.4	1648.45
1023.4813	2965.0267	2525	1638.9
1023.5947	2966.1089	2551	1642
1023.708	2967.1905	2510.25	1624.5
1023.8213	2968.2714	2514.85	1630.4
1023.9346	2969.3516	2497.4	1613.25
1024.0478	2970.4312	2514.7	1622.05
1024.1609	2971.5102	2495.65	1609.9
1024.274	2972.5885	2493.6	1607.75
1024.3871	2973.6662	2505.4	1614.65
1024.5002	2974.7432	2482.8	1598.85
1024.6132	2975.8196	2476.15	1592.45
1024.7261	2976.8954	2467.25	1580.65
1024.839	2977.9705	2453.7	1567.85
1024.9519	2979.045	2447	1562.9
1025.0647	2980.1188	2416.6	1530.9
1025.1775	2981.192	2400.35	1515.8
1025.2902	2982.2645	2373.3	1487.5
1025.4029	2983.3364	2357.85	1471.35
1025.5156	2984.4077	2327.45	1442.7
1025.6282	2985.4783	2298.95	1409.55
1025.7407	2986.5483	2268.4	1383.15
1025.8532	2987.6177	2230.85	1346.2
1025.9657	2988.6864	2195.55	1309.9
1026.0782	2989.7545	2169.75	1283.8
1026.1906	2990.8219	2132.2	1246.5
1026.3029	2991.8887	2100.8	1213.75
1026.4152	2992.9548	2063.2	1178.15
1026.5275	2994.0204	2046.75	1161.75
1026.6397	2995.0852	2004.85	1119.35
1026.7519	2996.1495	1982.8	1096
1026.864	2997.2131	1946.5	1061.2
1026.9761	2998.276	1929.3	1044.55
1027.0882	2999.3383	1920.2	1036.45
1027.2002	3000.4	1899.2	1011.8
1027.3122	3001.4611	1873.1	985.9
1027.4241	3002.5215	1862.45	978.15
1027.536	3003.5812	1847	962.9
1027.6478	3004.6404	1834.4	947.6
1027.7596	3005.6989	1829.65	942.6
1027.8714	3006.7567	1811.9	926.1
1027.9831	3007.8139	1827.35	922.3
1028.0947	3008.8705	1793.75	908.9
1028.2064	3009.9264	1800.75	900.3
1028.3179	3010.9818	1785.4	900.25
1028.4295	3012.0364	1778.2	893.35
1028.541	3013.0905	1777.7	891.55
1028.6524	3014.1439	1770.7	885.25
1028.7638	3015.1966	1766.2	880.8
1028.8752	3016.2487	1761.6	877.15
1028.9865	3017.3002	1758.65	865.8
1029.0978	3018.3511	1751.35	867.35
1029.209	3019.4013	1753.95	868.95
1029.3202	3020.4509	1758.75	873.95
1029.4314	3021.4998	1756.5	873.1
1029.5425	3022.5481	1751.65	866.5
1029.6535	3023.5958	1754.95	869.85
1029.7645	3024.6428	1757.9	872.75
1029.8755	3025.6892	1738.8	855.4
1029.9864	3026.735	1750.8	867.55
1030.0973	3027.7802	1749.85	864.75
1030.2082	3028.8247	1745.25	861.85
1030.319	3029.8685	1751.45	866.3
1030.4297	3030.9118	1763.1	877.65
1030.5404	3031.9544	1758.7	873.8
1030.6511	3032.9963	1753.6	868.15
1030.7617	3034.0376	1761.85	878.7
1030.8723	3035.0783	1769.65	884.75
1030.9829	3036.1184	1767	882.05
1031.0934	3037.1578	1765.9	882.95
1031.2038	3038.1966	1765.95	881.5
1031.3142	3039.2348	1759.25	875.7
1031.4246	3040.2723	1763.5	868.15
1031.5349	3041.3092	1756.3	871.05
1031.6452	3042.3455	1755.35	870.65
1031.7554	3043.3811	1753.05	868
1031.8656	3044.4161	1740.9	856
1031.9758	3045.4505	1735.7	853.9
1032.0859	3046.4842	1731.35	848.85
1032.1959	3047.5173	1724.6	840.55
1032.3059	3048.5498	1715.5	832.4
1032.4159	3049.5816	1708.85	826.3
1032.5258	3050.6128	1703.15	818.2
1032.6357	3051.6434	1689.25	803.6
1032.7455	3052.6734	1690.65	806.05
1032.8553	3053.7027	1675.35	789.95
1032.9651	3054.7314	1671.55	786.4
1033.0748	3055.7594	1668.65	786.4
1033.1845	3056.7868	1654.85	769
1033.2941	3057.8136	1653.85	770.6
1033.4037	3058.8398	1634.1	750.75
1033.5132	3059.8653	1636.6	753
1033.6227	3060.8902	1631.05	748.1
1033.7321	3061.9145	1626.3	742.6
1033.8415	3062.9381	1623.05	740.85
1033.9509	3063.9612	1627.35	727.35
1034.0602	3064.9835	1606.45	723.45
1034.1694	3066.0053	1599.1	711.15
1034.2787	3067.0264	1585.8	704.35
1034.3878	3068.0469	1581.15	697.1
1034.497	3069.0668	1578.35	691.65
1034.6061	3070.086	1563	681.5
1034.7151	3071.1046	1551.75	667.3
1034.8241	3072.1226	1545.7	660.8
1034.9331	3073.1399	1533.5	649.2
1035.042	3074.1567	1519.85	637.1
1035.1508	3075.1727	1521.25	634.1
1035.2597	3076.1882	1501.55	618.75
1035.3684	3077.203	1490.9	606.45
1035.4772	3078.2173	1479.8	595.95
1035.5859	3079.2308	1485.8	597.35
1035.6945	3080.2438	1476.55	592.95
1035.8031	3081.2561	1459.95	575.25
1035.9117	3082.2678	1456.4	574.5
1036.0202	3083.2789	1447.25	563.2
1036.1286	3084.2893	1439.25	556.15
1036.2371	3085.2991	1434.25	550.45
1036.3454	3086.3083	1426.75	539.3
1036.4538	3087.3169	1426.25	541.65
1036.562	3088.3248	1411.75	527.6
1036.6703	3089.3321	1408.15	522.55
1036.7785	3090.3388	1399.25	515.55
1036.8866	3091.3449	1392.45	509.3
1036.9948	3092.3503	1394.2	508.2
1037.1028	3093.3551	1380.55	499.9
1037.2108	3094.3593	1379.3	493.35
1037.3188	3095.3629	1376.5	493.75
1037.4267	3096.3658	1376.15	489.85
1037.5346	3097.3681	1367.7	485.75
1037.6425	3098.3698	1363.45	480.85
1037.7503	3099.3708	1370.2	479.7
1037.858	3100.3713	1351.85	469.9
1037.9657	3101.3711	1356.35	471.7
1038.0734	3102.3702	1481.35	464.55
1038.181	3103.3688	1345.3	459.65
1038.2886	3104.3667	1336.65	455.15
1038.3961	3105.364	1333.15	449.8
1038.5036	3106.3607	1343.3	459.05
1038.611	3107.3568	1328.05	445.85
1038.7184	3108.3522	1317	433.95
1038.8257	3109.347	1324.5	440.5
1038.933	3110.3412	1325.4	439.85
1039.0403	3111.3348	1320.85	435.45
1039.1475	3112.3277	1318.3	432.3
1039.2547	3113.32	1306	423.4
1039.3618	3114.3117	1312.3	429.35
1039.4689	3115.3028	1302.85	421.15
1039.5759	3116.2932	1300.3	414.1
1039.6829	3117.2831	1310.7	422.5
1039.7898	3118.2723	1301	418.75
1039.8967	3119.2608	1293.85	411.45
1040.0035	3120.2488	1293.4	408.85
1040.1103	3121.2361	1292.45	409.85
1040.2171	3122.2229	1293.15	407.85
1040.3238	3123.209	1288.6	405.1
1040.4305	3124.1944	1289.25	406.75
1040.5371	3125.1793	1286.65	402.45
1040.6437	3126.1635	1284	401.5
1040.7502	3127.1471	1274.9	393.7
1040.8567	3128.1301	1275.7	393.7
1040.9631	3129.1125	1267.45	386.5
1041.0695	3130.0942	1274.8	392
1041.1759	3131.0753	1274.25	384.25
1041.2822	3132.0558	1266.95	379.7
1041.3884	3133.0357	1264.8	382.15
1041.4946	3134.015	1264.15	380.35
1041.6008	3134.9936	1263.55	377.7
1041.7069	3135.9716	1278.5	377.45
1041.813	3136.949	1257.05	374.85
1041.919	3137.9258	1273.9	372.8
1042.025	3138.902	1256.5	367.25
1042.1309	3139.8775	1245.8	364.85
1042.2368	3140.8524	1249.7	366.75
1042.3427	3141.8267	1244.85	359.9
1042.4485	3142.8004	1245.5	363.95
1042.5542	3143.7735	1250.2	360.55
1042.6599	3144.7459	1243.7	358.65
1042.7656	3145.7178	1241.95	360.55
1042.8712	3146.689	1240.95	358.9
1042.9768	3147.6596	1234.3	350.3
1043.0823	3148.6295	1230	349.15
1043.1878	3149.5989	1230.15	347.7
1043.2932	3150.5676	1223.65	343.65
1043.3986	3151.5357	1219.75	339.45
1043.5039	3152.5032	1216.5	336.2
1043.6092	3153.4701	1219.75	337.7
1043.7145	3154.4364	1220.7	335.6
1043.8197	3155.402	1210.55	329.25
1043.9248	3156.367	1209.75	323.4
1044.03	3157.3315	1253.05	323.95
1044.135	3158.2952	1210.35	326.55
1044.24	3159.2584	1211.35	330.95
1044.345	3160.221	1204.15	320.9
1044.4499	3161.1829	1200.4	319.3
1044.5548	3162.1442	1199.95	319.25
1044.6596	3163.105	1197.15	314.15
1044.7644	3164.065	1194.1	312.15
1044.8692	3165.0245	1194.05	309.4
1044.9739	3165.9834	1190.45	309.65
1045.0785	3166.9416	1194.85	311.6
1045.1831	3167.8993	1189.05	305.65
1045.2877	3168.8563	1182.5	299.35
1045.3922	3169.8127	1185.5	304.5
1045.4966	3170.7684	1183.8	298.8
1045.6011	3171.7236	1185.4	302.05
1045.7054	3172.6782	1182.6	300.45
1045.8098	3173.6321	1181.25	297.1
1045.914	3174.5854	1175.65	288.6
1046.0183	3175.5381	1174.4	291.2
1046.1224	3176.4902	1175.65	292.5
1046.2266	3177.4417	1174	291.7
1046.3307	3178.3926	1172.3	290.35
1046.4347	3179.3428	1172.15	290.85
1046.5387	3180.2924	1172	292.2
1046.6427	3181.2415	1166.25	282.75
1046.7466	3182.1899	1168.3	283.1
1046.8504	3183.1377	1163.2	281.3
1046.9542	3184.0848	1170.25	284.75
1047.058	3185.0314	1160.25	276.45
1047.1617	3185.9773	1153.9	269.8
1047.2654	3186.9227	1159.1	274.5
1047.369	3187.8674	1155.15	272.35
1047.4726	3188.8115	1157	269.8
1047.5761	3189.755	1148.15	267.75
1047.6796	3190.6979	1153	271.75
1047.783	3191.6402	1151.95	271.8
1047.8864	3192.5818	1148.65	266.7
1047.9898	3193.5229	1152.85	264.05
1048.0931	3194.4633	1144.15	261.25
1048.1963	3195.4031	1144.85	262.4
1048.2995	3196.3423	1140.65	259.75
1048.4027	3197.2809	1142.3	259
1048.5058	3198.2189	1141.25	258.9
1048.6089	3199.1563	1144.2	256.05
1048.7119	3200.0931	1133.85	252.35
1048.8148	3201.0292	1136.95	257.4
1048.9178	3201.9648	1132.4	250.05
1049.0206	3202.8997	1134.5	248.85
1049.1235	3203.834	1127.3	245.7
1049.2262	3204.7677	1129.8	248.75
1049.329	3205.7008	1130.1	245.7
1049.4317	3206.6333	1125.1	244.05
1049.5343	3207.5652	1129.8	245.15
1049.6369	3208.4964	1123.7	240.7
1049.7394	3209.4271	1122.8	240.85
1049.8419	3210.3571	1127.35	247.3
1049.9444	3211.2865	1119.85	237.8
1050.0468	3212.2154	1121.1	238.8
1050.1491	3213.1436	1119.8	235.6
1050.2514	3214.0712	1125.5	238.65
1050.3537	3214.9982	1118.4	237.05
1050.4559	3215.9246	1111.75	229.4
1050.5581	3216.8503	1112.85	232.45
1050.6602	3217.7755	1111.8	229.25
1050.7623	3218.7001	1110.7	228.2
1050.8643	3219.624	1106.65	224.4
1050.9663	3220.5473	1109.65	227.3
1051.0682	3221.4701	1110.7	229.55
1051.1701	3222.3922	1107.3	223.6
1051.2719	3223.3137	1105.55	225.15
1051.3737	3224.2346	1103.6	221.45
1051.4754	3225.1549	1103.95	223.7
1051.5771	3226.0746	1102.45	219.85
1051.6788	3226.9937	1100.7	220
1051.7804	3227.9121	1098.55	216.8
1051.8819	3228.83	1099.1	218.9
1051.9834	3229.7473	1100.3	218.25
1052.0849	3230.6639	1094.5	213.55
1052.1863	3231.5799	1090.95	209.9
1052.2876	3232.4954	1096.7	213.5
1052.3889	3233.4102	1091.45	208.85
1052.4902	3234.3244	1088.4	205.45
1052.5914	3235.238	1089.3	207
1052.6926	3236.151	1118.45	210
1052.7937	3237.0634	1087.05	206.8
1052.8948	3237.9752	1085.7	205.3
1052.9958	3238.8864	1080.7	199.9
1053.0968	3239.797	1081.35	200.1
1053.1977	3240.7069	1084.95	203.65
1053.2986	3241.6163	1085.7	202.45
1053.3994	3242.5251	1076.85	196
1053.5002	3243.4332	1077.4	196.3
1053.6009	3244.3408	1078.35	195.3
1053.7016	3245.2477	1074.35	193.25
1053.8022	3246.154	1071.2	189.15
1053.9028	3247.0598	1077.75	196.15
1054.0034	3247.9649	1070.85	188.1
1054.1039	3248.8694	1073.95	193.15
1054.2043	3249.7733	1069.75	187.6
1054.3047	3250.6766	1065.55	186.35
1054.4051	3251.5793	1066.8	186.9
1054.5054	3252.4814	1069.9	189.55
1054.6056	3253.3829	1064.35	184.1
1054.7058	3254.2838	1063.85	184.2
1054.806	3255.1841	1061.75	180.3
1054.9061	3256.0838	1059.85	178.65
1055.0061	3256.9829	1055.75	176.05
1055.1062	3257.8814	1057.1	174.85
1055.2061	3258.7792	1060.05	177
1055.306	3259.6765	1053.55	171.6
1055.4059	3260.5731	1056.2	175.9
1055.5057	3261.4692	1049.2	169.4
1055.6055	3262.3647	1050.95	169
1055.7052	3263.2595	1042.6	162.05
1055.8049	3264.1538	1044.7	164.5
1055.9045	3265.0474	1042.3	160.65
1056.0041	3265.9404	1040.95	161.2
1056.1036	3266.8329	1038.25	156
1056.2031	3267.7247	1043.05	151.2
1056.3025	3268.616	1028.15	147.7
1056.4019	3269.5066	1030.6	149.15
1056.5013	3270.3966	1023.45	141.85
1056.6005	3271.286	1013.7	133.2
