Software Version:	3.9.2.0
Unit SN:	10000200
Spectrometer SN:	6960
Date:	3/26/2024 2:01:00 PM
Data Line Index:	25
Spectral Points:	2048
Integration time (ms):	125
Averages:	20
Delay (ms):	30000
Sequence Number:	1
Processing:	dark subtract
Laser Power (mW):	305
Laser Current (mA):	821
Laser Diode Temp (C):	25.1
Laser Case Temp (C):	27.4
System Temp (C):	27.4
Spectrometer Temp (C):	25.2
CCD Temp (C):	0.012
Secondary Temp (C):	20
Heatsink Temp (C):	22.758
CCDPCB Temp (C):	36.874
SecondaryPCB Temp (C):	34.539

Wavelength	RamanShift	Raw Counts	Dark Subtracted
787.061	30.1047	604.55	193.25
787.2016	32.3739	614.45	204.9
787.3422	34.6426	628.6	217.55
787.4828	36.9109	644.55	233.15
787.6235	39.1787	662.8	245.05
787.7642	41.4461	685.75	266
787.9049	43.7131	698.6	273.8
788.0456	45.9796	725.9	297.3
788.1863	48.2456	755.1	323.65
788.3271	50.5112	775	338.25
788.4679	52.7764	793.25	354.35
788.6087	55.0411	822.05	380.15
788.7496	57.3054	844.55	398.15
788.8904	59.5692	870.95	420.7
789.0313	61.8326	904.1	452.05
789.1722	64.0955	941.85	487.05
789.3132	66.3579	986.55	525.4
789.4541	68.6199	1033.7	567.6
789.5951	70.8815	1118.45	651.1
789.7361	73.1426	1286.15	815
789.8771	75.4032	1729.1	1253.45
790.0181	77.6634	2819.1	2336.65
790.1592	79.9231	5519.15	5026.9
790.3003	82.1824	11727.2	11217.55
790.4414	84.4412	24636	24096.95
790.5825	86.6995	47502.25	46913.8
790.7237	88.9574	59980.2	59355.7
790.8648	91.2148	64101.35	63446
791.006	93.4717	64674.2	64008.5
791.1472	95.7282	64961.3	64280
791.2885	97.9842	65053.85	64366.2
791.4297	100.2398	64995.8	64309.8
791.571	102.4949	64991.35	64298.65
791.7123	104.7495	64953.55	64259.95
791.8536	107.0036	64840.45	64147.85
791.9949	109.2573	64929.5	64237.05
792.1363	111.5105	64800.65	64104.05
792.2777	113.7632	64735	64036.8
792.4191	116.0154	64797.4	64088.45
792.5605	118.2672	64887	64182.5
792.7019	120.5185	64873.7	64167.7
792.8434	122.7693	64841.45	64136.05
792.9849	125.0197	64609.05	63898
793.1264	127.2696	64957.4	64246.25
793.2679	129.519	64872.55	64154.75
793.4094	131.7679	64983.6	64267.8
793.551	134.0163	64652.4	63932.35
793.6926	136.2642	64807.65	64076.75
793.8342	138.5117	64974.45	64243.65
793.9758	140.7587	64904.45	64172.25
794.1175	143.0052	64863.25	64130.2
794.2591	145.2512	64663.65	63939.6
794.4008	147.4967	64896.55	64166.7
794.5425	149.7417	64834.85	64100.15
794.6842	151.9863	64806.65	64069.45
794.826	154.2304	64699.8	63955.95
794.9677	156.4739	64727	63981.35
795.1095	158.717	64914.8	64166.4
795.2513	160.9596	64778.25	64029.45
795.3931	163.2017	64578.05	63823.6
795.535	165.4433	64763.25	64009.8
795.6768	167.6844	64617.85	63863.1
795.8187	169.925	64687.25	63928.95
795.9606	172.1651	64506.25	63748.9
796.1025	174.4047	64605.3	63844.8
796.2445	176.6439	64538.65	63774.75
796.3864	178.8825	64427.5	63662.35
796.5284	181.1206	64666.1	63891.75
796.6704	183.3582	64596.35	63818.95
796.8124	185.5954	64505.6	63730.35
796.9544	187.832	64505.75	63728.15
797.0965	190.0681	64347.55	63567.05
797.2386	192.3037	64591.95	63804.9
797.3806	194.5388	64852.65	64064.55
797.5228	196.7734	64193.35	63399.7
797.6649	199.0075	64821.5	64021.6
797.807	201.2411	64578.55	63776.8
797.9492	203.4742	64908.7	64110.2
798.0914	205.7068	64795.75	63995.7
798.2336	207.9389	64783.75	63979.3
798.3758	210.1704	64753.75	63949.7
798.518	212.4015	64950.8	64150
798.6603	214.632	64757.65	63951.65
798.8025	216.862	64990.3	64191.35
798.9448	219.0915	64827.95	64037.4
799.0871	221.3205	64847.75	64059.8
799.2294	223.549	65046.35	64259.6
799.3718	225.777	65024.85	64245.35
799.5141	228.0044	65099.9	64310.45
799.6565	230.2314	65036.75	64250.95
799.7989	232.4578	65067.15	64283.85
799.9413	234.6837	65098.95	64310.7
800.0837	236.909	65298.65	64506.4
800.2262	239.1339	64976.2	64155.6
800.3687	241.3582	65121.45	64315.2
800.5111	243.582	65120.9	64288.15
800.6536	245.8053	65094.05	64270.1
800.7961	248.0281	65110.85	64291.55
800.9387	250.2503	65133.8	64311.7
801.0812	252.472	65002.75	64175.15
801.2238	254.6932	65078.4	64249.6
801.3664	256.9139	65030.2	64205.65
801.509	259.134	65228.95	64395.2
801.6516	261.3536	65017	64186.65
801.7942	263.5727	65114	64277.2
801.9369	265.7912	65046.85	64215.2
802.0795	268.0092	65090.2	64257.75
802.2222	270.2267	65115	64283.25
802.3649	272.4436	64990.6	64157.4
802.5076	274.6601	65104.65	64264.45
802.6504	276.8759	65136	64302.2
802.7931	279.0913	65065.25	64226.2
802.9359	281.3061	65103.85	64266.65
803.0787	283.5204	65102.6	64259.95
803.2215	285.7341	65098.7	64254.8
803.3643	287.9473	65189.15	64326.15
803.5071	290.16	65125.95	64275.2
803.6499	292.3721	65168.85	64326.65
803.7928	294.5837	65110.1	64261.75
803.9357	296.7947	65046.75	64204.8
804.0786	299.0052	65202.2	64353.45
804.2215	301.2152	65139.05	64290.65
804.3644	303.4246	65174.6	64328.7
804.5074	305.6334	65163.5	64316.3
804.6503	307.8418	65027.55	64178.3
804.7933	310.0495	65027.2	64177.9
804.9363	312.2568	65015.35	64167.95
805.0793	314.4635	65013.8	64160.6
805.2223	316.6696	65080.6	64226.95
805.3653	318.8752	65123.95	64261.85
805.5084	321.0802	64878.9	64028.1
805.6514	323.2847	64992.8	64138
805.7945	325.4887	64970.2	64113.2
805.9376	327.692	64921.1	64061.1
806.0807	329.8949	64977.4	64120.35
806.2238	332.0972	64895.6	64032.6
806.367	334.2989	64938.75	64077.6
806.5101	336.5001	65022.6	64161.1
806.6533	338.7007	64759.85	63898.05
806.7965	340.9008	64920.8	64055.05
806.9397	343.1003	64941.35	64076.35
807.0829	345.2992	64995.05	64127.6
807.2261	347.4976	64857.4	63991.05
807.3693	349.6955	64927.2	64055.1
807.5126	351.8927	64837.2	63958.7
807.6559	354.0895	64947.95	64065.35
807.7991	356.2856	64932.05	64055.95
807.9424	358.4812	65009.85	64134.7
808.0857	360.6763	64808.75	63932.25
808.2291	362.8707	65005.75	64129.2
808.3724	365.0646	64893.85	64015.4
808.5158	367.258	64896.55	64018.3
808.6591	369.4508	64758.45	63877.45
808.8025	371.643	64979.5	64098.25
808.9459	373.8346	64885.1	63996.5
809.0893	376.0257	64897.6	64014
809.2327	378.2162	64847.1	63958.4
809.3762	380.4062	64593.6	63705
809.5196	382.5956	64825.4	63933
809.6631	384.7844	64783.1	63893.65
809.8066	386.9726	64868.55	63978.85
809.9501	389.1603	64845.5	63958.05
810.0936	391.3474	64691.95	63763.1
810.2371	393.5339	64815.9	63924.55
810.3806	395.7199	64528.25	63642.45
810.5241	397.9052	64591	63710.2
810.6677	400.09	64673.2	63793.3
810.8113	402.2743	64857.1	63977.1
810.9548	404.4579	64598.5	63721
811.0984	406.641	64633.45	63753.3
811.2421	408.8235	64749.95	63872.35
811.3857	411.0054	64816.9	63940.85
811.5293	413.1868	64866.25	63979.2
811.673	415.3675	64812.2	63926.15
811.8166	417.5477	64809.25	63928.4
811.9603	419.7273	64828.55	63941.9
812.104	421.9064	64799.45	63905.35
812.2477	424.0848	64806.25	63915
812.3914	426.2627	64920.1	64029.1
812.5351	428.4399	64696.3	63804.4
812.6788	430.6166	64406.7	63512.35
812.8226	432.7928	64675.65	63777.6
812.9663	434.9683	64463.95	63572.1
813.1101	437.1432	64427	63531.95
813.2539	439.3176	64624.7	63732.15
813.3977	441.4914	64281.55	63391.65
813.5415	443.6645	64338.05	63440.8
813.6853	445.8371	64369.9	63474.3
813.8291	448.0091	64239.4	63347.9
813.973	450.1806	64169.4	63276.25
814.1168	452.3514	64207.1	63313.85
814.2607	454.5216	64052.15	63148.45
814.4046	456.6913	64224	63327.85
814.5485	458.8603	64250.7	63354.9
814.6924	461.0288	64010.75	63122.5
814.8363	463.1967	64251.05	63362.15
814.9802	465.3639	64211.2	63317.65
815.1241	467.5306	63884.95	62989.95
815.2681	469.6967	64122.55	63225.75
815.412	471.8622	64267.8	63375.5
815.556	474.0271	64120.4	63227.1
815.7	476.1914	64161.75	63259.85
815.844	478.3551	64166.65	63269.7
815.988	480.5182	64422.2	63528.05
816.132	482.6807	64063.85	63173.65
816.276	484.8426	64107.15	63219
816.4201	487.0039	64380.6	63492.75
816.5641	489.1647	64417.1	63517.95
816.7082	491.3248	64150.1	63252.25
816.8522	493.4843	64509.65	63617.35
816.9963	495.6432	64508.3	63615.75
817.1404	497.8015	64152.85	63249.15
817.2845	499.9592	64363.95	63458.65
817.4286	502.1163	64327.6	63420.65
817.5727	504.2728	64266.35	63366.7
817.7168	506.4287	64195.55	63305.1
817.861	508.5839	64028.25	63138.05
818.0051	510.7386	64134	63235.35
818.1493	512.8927	64170.25	63267.8
818.2935	515.0461	64069.15	63166.7
818.4377	517.199	64225.15	63317.75
818.5818	519.3512	64056.9	63151.6
818.726	521.5029	64010.35	63099.85
818.8703	523.6539	64060.75	63156.15
819.0145	525.8043	63851.9	62943.55
819.1587	527.9541	64067.25	63162.85
819.303	530.1033	64051.65	63149.25
819.4472	532.2519	63940.2	63032.6
819.5915	534.3999	64115.35	63208.95
819.7357	536.5472	64239.7	63336.65
819.88	538.694	63962.5	63059.25
820.0243	540.8401	64191.8	63282.3
820.1686	542.9856	64267.8	63354.5
820.3129	545.1305	64404.75	63486.5
820.4572	547.2748	64124.75	63203
820.6016	549.4185	64068.8	63146.2
820.7459	551.5615	64231.15	63309.2
820.8902	553.704	64144	63224.8
821.0346	555.8458	64022.25	63106.5
821.1789	557.987	64070.95	63155.65
821.3233	560.1276	64129.55	63208.15
821.4677	562.2675	64001.8	63085.35
821.6121	564.4069	64052.85	63137.1
821.7565	566.5456	64186.05	63275.2
821.9009	568.6837	63944.7	63032.55
822.0453	570.8212	64029.9	63117.7
822.1897	572.958	63728.8	62819.5
822.3342	575.0942	63941.05	63029.15
822.4786	577.2299	63761.7	62857.05
822.6231	579.3648	63708.55	62809.05
822.7675	581.4992	63685.1	62791.4
822.912	583.6329	63708.8	62817.75
823.0565	585.766	63701.6	62804.75
823.201	587.8985	63787.9	62887.9
823.3454	590.0304	63511.75	62599.2
823.4899	592.1616	63728.45	62814.2
823.6345	594.2922	63628.8	62716.5
823.779	596.4222	63487.6	62566.8
823.9235	598.5515	63489.9	62573.75
824.068	600.6802	63538.4	62621
824.2126	602.8083	63336.45	62421
824.3571	604.9358	63320.55	62403.95
824.5017	607.0626	63481.9	62565.05
824.6462	609.1888	63232.95	62311.55
824.7908	611.3144	63389.55	62465.05
824.9354	613.4393	63264.4	62338.95
825.08	615.5636	63111.65	62190.15
825.2246	617.6873	63264.05	62341.7
825.3692	619.8103	63029.15	62107
825.5138	621.9327	63212.8	62289.65
825.6584	624.0544	63260.9	62345.05
825.803	626.1756	63152.25	62239.05
825.9477	628.2961	63107.15	62185.5
826.0923	630.4159	62990.8	62068.5
826.237	632.5351	62981.8	62057.8
826.3816	634.6537	63280.1	62358
826.5263	636.7716	62899.75	61977.85
826.6709	638.8889	63013	62084.3
826.8156	641.0056	62977.5	62050.5
826.9603	643.1216	63046.95	62119.3
827.105	645.237	63131.5	62207.25
827.2497	647.3518	62913.95	61997.9
827.3944	649.4659	62976.75	62062
827.5391	651.5793	62992.65	62074.9
827.6838	653.6922	63011.95	62089.25
827.8285	655.8043	62744.05	61821.95
827.9733	657.9159	63131.2	62211.4
828.118	660.0268	62432.2	61509.7
828.2627	662.137	62843.1	61925.85
828.4075	664.2466	62903.1	61973.4
828.5522	666.3556	62761.25	61834.6
828.697	668.4639	62824.7	61897.8
828.8418	670.5716	62694.8	61776.2
828.9865	672.6786	62825.5	61901.4
829.1313	674.785	62596	61669.7
829.2761	676.8907	62650.4	61727
829.4209	678.9958	62733.45	61814.7
829.5657	681.1002	62776.6	61852.9
829.7105	683.204	62559.8	61627.75
829.8553	685.3072	62428.15	61501.9
830.0001	687.4097	62471.15	61541.65
830.1449	689.5115	62388.55	61459.55
830.2898	691.6127	62598.65	61675.35
830.4346	693.7132	62367.1	61445.55
830.5794	695.8131	62357.3	61411.65
830.7243	697.9123	62430.85	61500.25
830.8691	700.0109	62476.3	61547.45
831.014	702.1089	62101.1	61174.25
831.1588	704.2061	62222.65	61296
831.3037	706.3028	62289	61356.8
831.4486	708.3987	62332.4	61405
831.5935	710.4941	62202.3	61278.5
831.7383	712.5887	62415.25	61489.95
831.8832	714.6827	62274.75	61346.25
832.0281	716.7761	62523.55	61600.05
832.173	718.8688	62571.9	61646.2
832.3179	720.9608	62400.8	61466.95
832.4628	723.0522	62417.2	61481.05
832.6077	725.1429	62152.1	61221.55
832.7527	727.233	62592.3	61667.05
832.8976	729.3224	61646.2	60718.8
833.0425	731.4112	61980.95	61051.25
833.1874	733.4993	61968.75	61037.25
833.3324	735.5867	61920.8	60989.3
833.4773	737.6735	61704.1	60775.8
833.6222	739.7596	61447.25	60517.75
833.7672	741.845	61404.4	60471
833.9122	743.9298	61757.1	60824.9
834.0571	746.014	61338.55	60408.9
834.2021	748.0974	61113.4	60178.8
834.347	750.1802	61611.15	60674.75
834.492	752.2624	60946.95	60010.45
834.637	754.3439	61053.85	60122.85
834.782	756.4247	61164.7	60220.1
834.9269	758.5048	60875.8	59942.85
835.0719	760.5843	61034.1	60100.45
835.2169	762.6631	61204.6	60268.9
835.3619	764.7413	61184.75	60251.4
835.5069	766.8188	61310.45	60376.85
835.6519	768.8956	61628.8	60693.6
835.7969	770.9718	61616.5	60687
835.9419	773.0473	61439.45	60508.85
836.0869	775.1221	61015.6	60083
836.232	777.1962	60931	59996.95
836.377	779.2697	60380.9	59445.45
836.522	781.3426	60720.1	59766.4
836.667	783.4147	60873.45	59939.05
836.8121	785.4862	60829.55	59896.85
836.9571	787.557	60431.75	59495.8
837.1021	789.6271	60747.9	59814.15
837.2472	791.6966	60228	59296.4
837.3922	793.7654	59598.55	58658.9
837.5373	795.8335	59572.5	58640.35
837.6823	797.901	59658.8	58724.55
837.8274	799.9678	59372.7	58436.95
837.9724	802.0339	59290.6	58353.65
838.1175	804.0993	59310.7	58363.5
838.2626	806.1641	59081.95	58143.35
838.4076	808.2282	58943	58009.35
838.5527	810.2916	58850.35	57915.6
838.6978	812.3544	59036.25	58105.25
838.8428	814.4164	58470.05	57538.9
838.9879	816.4778	58591.25	57653.1
839.133	818.5385	58595.9	57662.25
839.2781	820.5986	58547.3	57609.9
839.4232	822.658	58656.3	57721
839.5682	824.7166	58679.35	57745.05
839.7133	826.7747	58335.8	57396.5
839.8584	828.832	58560.2	57627.25
840.0035	830.8886	58797.95	57857.4
840.1486	832.9446	58813.4	57876.05
840.2937	834.9999	58089.8	57154.65
840.4388	837.0545	58403.45	57464.5
840.5839	839.1085	58567.5	57630.25
840.729	841.1618	58373.05	57430.95
840.8741	843.2143	57851.5	56915.5
841.0192	845.2662	57812.95	56874.3
841.1643	847.3175	57947.3	57009.4
841.3095	849.368	57315.35	56381.2
841.4546	851.4179	57711.15	56773.05
841.5997	853.467	57205.1	56267.15
841.7448	855.5155	57433	56496.05
841.8899	857.5633	57020.25	56082.9
842.0351	859.6105	56798.95	55859.9
842.1802	861.6569	56972.35	56031.55
842.3253	863.7027	56519.8	55577.45
842.4704	865.7478	56677.7	55741.45
842.6156	867.7922	56542.5	55602.2
842.7607	869.8359	56786.15	55846.5
842.9058	871.8789	56307.75	55370.05
843.0509	873.9212	56595.55	55620.35
843.1961	875.9629	56548.35	55609.05
843.3412	878.0039	56559.45	55619.7
843.4863	880.0441	56427.6	55489.05
843.6315	882.0837	56378.5	55443.55
843.7766	884.1226	56278	55342.9
843.9218	886.1609	56240.9	55305.65
844.0669	888.1984	56033	55097.4
844.212	890.2352	56333.2	55397.05
844.3572	892.2714	55817.7	54875.65
844.5023	894.3069	55948.55	55006.65
844.6475	896.3416	55752.45	54815.6
844.7926	898.3757	55667.6	54728.45
844.9377	900.4091	55235.1	54293.9
845.0829	902.4418	55674.4	54728.85
845.228	904.4739	55327.95	54388.45
845.3732	906.5052	55411.75	54472.6
845.5183	908.5358	55121.15	54180.9
845.6635	910.5658	54871.1	53932
845.8086	912.595	54740.85	53802.2
845.9538	914.6236	54293.75	53354.95
846.0989	916.6515	54835.75	53898.4
846.2441	918.6786	54098.25	53155.6
846.3892	920.7051	54229.45	53284.6
846.5344	922.7309	54201.6	53260.45
846.6795	924.756	54303.45	53362.9
846.8246	926.7804	54110.45	53170.05
846.9698	928.8041	53570.4	52631.3
847.1149	930.8272	53842.35	52901.45
847.2601	932.8495	53745.75	52804
847.4052	934.8711	53353.05	52414.45
847.5504	936.892	53151.55	52212.55
847.6955	938.9123	53077.4	52137.5
847.8407	940.9318	52790.5	51851.2
847.9858	942.9506	52665.65	51724.45
848.131	944.9688	52608.6	51668.4
848.2761	946.9862	52117.2	51176.55
848.4213	949.003	52070.55	51130.5
848.5664	951.019	51739	50801.1
848.7115	953.0344	51794.8	50854.3
848.8567	955.0491	51690.6	50752.05
849.0018	957.063	51839.95	50901.05
849.147	959.0763	51951.2	51006.65
849.2921	961.0888	51618.15	50677.65
849.4373	963.1007	51786.55	50854.1
849.5824	965.1119	51717.6	50785.7
849.7275	967.1223	51498.9	50568.75
849.8727	969.1321	51618.4	50688.8
850.0178	971.1412	51365.95	50434.15
850.1629	973.1495	51161.25	50227.65
850.3081	975.1572	51249.95	50273.4
850.4532	977.1641	51125.2	50186.5
850.5983	979.1704	50961.5	50018
850.7435	981.1759	50940.3	49999.05
850.8886	983.1808	50784.9	49850.3
851.0337	985.1849	50755.1	49806.05
851.1788	987.1884	50777.6	49838.7
851.324	989.1911	50930.45	49990.65
851.4691	991.1932	50573.9	49637.9
851.6142	993.1945	50570.05	49632.85
851.7593	995.1951	50513.8	49575.9
851.9045	997.1951	50221.05	49276.3
852.0496	999.1943	50023.25	49085.2
852.1947	1001.1928	49859.2	48919.75
852.3398	1003.1906	49797.65	48860.1
852.4849	1005.1877	49502.5	48562
852.63	1007.1841	49274.8	48336.05
852.7751	1009.1798	49106.35	48171.4
852.9202	1011.1748	48893.65	47956.65
853.0653	1013.1691	48723.8	47784.55
853.2104	1015.1627	48088.1	47154.65
853.3555	1017.1556	47914.45	46979.75
853.5006	1019.1477	47831.65	46897.35
853.6457	1021.1392	47378.45	46447.8
853.7908	1023.1299	47002.15	46072.5
853.9359	1025.12	47046.15	46119.05
854.081	1027.1093	46810.5	45893.95
854.2261	1029.0979	46766.55	45847.9
854.3712	1031.0859	46653.6	45732.95
854.5163	1033.0731	46420.75	45491.55
854.6613	1035.0596	46352.6	45420.35
854.8064	1037.0454	46050.35	45118.35
854.9515	1039.0304	45831.6	44898.2
855.0965	1041.0148	45382.55	44446.15
855.2416	1042.9985	45279.25	44343.75
855.3867	1044.9814	45304.95	44372
855.5317	1046.9636	44986.85	44052.65
855.6768	1048.9452	44837.65	43903.15
855.8219	1050.926	44784.85	43853
855.9669	1052.9061	44669.15	43733.25
856.112	1054.8855	44539.3	43607.75
856.257	1056.8642	44432.15	43495.75
856.4021	1058.8421	44376.25	43436.5
856.5471	1060.8194	44264.25	43326.25
856.6921	1062.7959	44128.35	43192.6
856.8372	1064.7717	44085.75	43151.3
856.9822	1066.7469	43995.95	43058.5
857.1272	1068.7213	43977.15	43044.45
857.2723	1070.695	43804.45	42869.35
857.4173	1072.6679	43510.1	42574.4
857.5623	1074.6402	43570.05	42638.05
857.7073	1076.6117	43457.65	42516.55
857.8523	1078.5826	43349.35	42413.5
857.9973	1080.5527	43189.25	42254.85
858.1423	1082.5221	43113.15	42178.1
858.2873	1084.4908	43133.45	42198.1
858.4323	1086.4587	43114.4	42179.1
858.5773	1088.426	43167.85	42231.15
858.7223	1090.3925	42989.4	42051.7
858.8673	1092.3584	42994.25	42059.15
859.0123	1094.3235	42628.2	41695.9
859.1573	1096.2879	42523.75	41589.15
859.3022	1098.2515	42407.75	41474.15
859.4472	1100.2145	42374.9	41440.1
859.5922	1102.1767	42288.5	41352.9
859.7371	1104.1382	42294.3	41363.1
859.8821	1106.099	42376.55	41441.95
860.027	1108.0591	42417.95	41489.9
860.172	1110.0185	42344.4	41410.3
860.3169	1111.9771	42416.7	41485.75
860.4619	1113.9351	42071.1	41136.5
860.6068	1115.8923	41749	40816.7
860.7517	1117.8488	41378.65	40445.05
860.8967	1119.8045	40975.1	40040
861.0416	1121.7596	40814.1	39877.9
861.1865	1123.7139	40623.75	39693.3
861.3314	1125.6675	40567	39633.05
861.4763	1127.6204	40609.1	39678.6
861.6212	1129.5726	40407.7	39471.5
861.7661	1131.524	40373.7	39440.75
861.911	1133.4748	40312.65	39377.6
862.0559	1135.4248	40146.7	39214.05
862.2008	1137.3741	40012.2	39077.45
862.3457	1139.3226	39869.75	38934.85
862.4905	1141.2705	39834.25	38901.4
862.6354	1143.2176	39560	38619.85
862.7803	1145.164	39484.15	38549.3
862.9251	1147.1097	39388.9	38454.4
863.07	1149.0546	39284.9	38350.45
863.2148	1150.9989	39236.3	38302.1
863.3597	1152.9424	39068.8	38133.5
863.5045	1154.8852	38825.7	37892.9
863.6493	1156.8272	38667.9	37735.4
863.7942	1158.7686	38617.9	37677.3
863.939	1160.7092	38441.8	37508
864.0838	1162.6491	38235.35	37298.8
864.2286	1164.5883	38340.5	37406.85
864.3734	1166.5267	38263	37329.2
864.5182	1168.4644	38297.4	37368.3
864.663	1170.4014	38370.55	37436.15
864.8078	1172.3377	38588.2	37657.05
864.9526	1174.2732	38643.9	37715.75
865.0974	1176.2081	38825.3	37898.15
865.2421	1178.1421	38954.65	38021.25
865.3869	1180.0755	39105.65	38173.95
865.5317	1182.0082	39021.45	38090.15
865.6764	1183.9401	39003.15	38074.95
865.8212	1185.8713	38792.65	37868.95
865.9659	1187.8017	38509.25	37586.2
866.1106	1189.7315	38271.2	37351.3
866.2554	1191.6605	37871.8	36952.4
866.4001	1193.5888	37538.4	36614.7
866.5448	1195.5163	37377.35	36453.9
866.6895	1197.4432	37135	36207.75
866.8342	1199.3693	37034.6	36107.6
866.9789	1201.2947	36861.15	35927.9
867.1236	1203.2193	36718.7	35786.7
867.2683	1205.1432	36692.3	35762.2
867.413	1207.0664	36621.5	35693.85
867.5576	1208.9889	36518.55	35587.4
867.7023	1210.9106	36399.25	35467.75
867.847	1212.8316	36329.2	35402.45
867.9916	1214.7519	36249.1	35309.35
868.1363	1216.6715	36115.3	35184.7
868.2809	1218.5903	36089.35	35160.65
868.4255	1220.5084	35988.05	35057.6
868.5701	1222.4257	35966.65	35037.7
868.7148	1224.3424	35733	34807.05
868.8594	1226.2583	35731.35	34802.15
869.004	1228.1735	35708.65	34779.1
869.1486	1230.0879	35655.35	34725.75
869.2932	1232.0016	35656	34727.4
869.4377	1233.9146	35560	34632.6
869.5823	1235.8269	35384.45	34456.5
869.7269	1237.7384	35299.5	34370.8
869.8715	1239.6492	34970.4	34043.45
870.016	1241.5592	34857.45	33926.55
870.1606	1243.4686	34728.1	33798.45
870.3051	1245.3772	34655.5	33727
870.4496	1247.285	34533.3	33603.05
870.5941	1249.1922	34427	33498.5
870.7387	1251.0986	34357.55	33430.45
870.8832	1253.0042	34204.4	33277.1
871.0277	1254.9092	34200.2	33275.5
871.1722	1256.8134	34156.65	33230.35
871.3167	1258.7169	34265.7	33339.3
871.4611	1260.6196	34280.95	33357.15
871.6056	1262.5216	34415.9	33484.25
871.7501	1264.4229	34427.1	33501.35
871.8945	1266.3234	34540.65	33612.95
872.039	1268.2232	34497.3	33567.35
872.1834	1270.1223	34467.65	33537.7
872.3278	1272.0207	34429.3	33501.75
872.4723	1273.9183	34256.3	33324.6
872.6167	1275.8151	34079.1	33150.45
872.7611	1277.7113	33991.95	33066.5
872.9055	1279.6067	33822.4	32897.2
873.0499	1281.5014	33693.5	32764.9
873.1943	1283.3953	33610.45	32678.35
873.3386	1285.2885	33665.45	32738.5
873.483	1287.181	33652.55	32725.05
873.6274	1289.0727	33712.7	32785.75
873.7717	1290.9637	33680.55	32754.35
873.9161	1292.854	33775.4	32849
874.0604	1294.7435	33731.9	32804.9
874.2047	1296.6323	33830.45	32904.45
874.349	1298.5204	33893.4	32966.3
874.4933	1300.4077	33930.1	33002.35
874.6376	1302.2943	33925.25	32999.5
874.7819	1304.1802	33876.6	32951.65
874.9262	1306.0653	33649.4	32721.4
875.0705	1307.9497	33437.85	32510.25
875.2147	1309.8333	33208.7	32282.05
875.359	1311.7162	33138.9	32210.25
875.5032	1313.5984	33107.65	32178.7
875.6475	1315.4798	32987.65	32060.8
875.7917	1317.3605	33062.4	32135.15
875.9359	1319.2405	33077.55	32151.2
876.0801	1321.1197	32998.6	32071.25
876.2243	1322.9982	32804.2	31873.25
876.3685	1324.876	32736.4	31812.4
876.5127	1326.753	32534.9	31610.4
876.6569	1328.6293	32506.75	31577.85
876.801	1330.5048	32521.55	31590.15
876.9452	1332.3796	32310.65	31386.2
877.0893	1334.2537	32296.1	31346.05
877.2335	1336.127	32120.65	31195.45
877.3776	1337.9996	32041.3	31115.3
877.5217	1339.8714	32017.65	31092.75
877.6658	1341.7426	31923.45	30952.55
877.8099	1343.6129	31856.95	30929.65
877.954	1345.4826	31765.35	30840.8
878.0981	1347.3515	31733.25	30804.4
878.2422	1349.2196	31632.5	30705.2
878.3862	1351.087	31611.7	30684.9
878.5303	1352.9537	31570.35	30644.9
878.6743	1354.8197	31618.75	30689.8
878.8184	1356.6849	31769.55	30841.4
878.9624	1358.5493	31729.1	30802.25
879.1064	1360.4131	31763.45	30840.75
879.2504	1362.276	31633.1	30708
879.3944	1364.1383	31483.8	30560.2
879.5384	1365.9998	31229.65	30295.95
879.6823	1367.8606	30921.35	29994.65
879.8263	1369.7206	30640.25	29715.15
879.9702	1371.5799	30344	29417.2
880.1142	1373.4384	30110	29184.7
880.2581	1375.2962	29964.7	29040.8
880.402	1377.1533	29656.55	28731.45
880.5459	1379.0096	29265.2	28341.4
880.6898	1380.8652	28944.25	28023.9
880.8337	1382.7201	28688.95	27765.95
880.9776	1384.5742	28397.7	27472.3
881.1215	1386.4275	28157	27231.55
881.2653	1388.2802	27983.7	27062.95
881.4092	1390.132	27805.8	26881.35
881.553	1391.9832	27760.1	26833.35
881.6968	1393.8336	27527.8	26603.55
881.8406	1395.6832	27459.5	26532.4
881.9844	1397.5322	27331.1	26407.45
882.1282	1399.3803	27217.55	26287.7
882.272	1401.2278	27047.4	26122.25
882.4158	1403.0745	26997.5	26073.5
882.5595	1404.9204	26874.55	25954
882.7033	1406.7656	26890.15	25964.4
882.847	1408.6101	26753.55	25831.1
882.9908	1410.4538	26702.5	25776.55
883.1345	1412.2968	26638.95	25717.85
883.2782	1414.139	26630.2	25705.95
883.4219	1415.9805	26687.3	25762.15
883.5656	1417.8213	26606.7	25664.95
883.7092	1419.6613	26585.55	25663.3
883.8529	1421.5006	26691.85	25769.25
883.9965	1423.3391	26811.85	25890.75
884.1402	1425.1769	27001.4	26077.75
884.2838	1427.0139	27357.9	26431.8
884.4274	1428.8502	27703.25	26780.75
884.571	1430.6858	28078.15	27154.7
884.7146	1432.5206	28276.35	27353.55
884.8582	1434.3547	28468.4	27545.05
885.0018	1436.188	28507.45	27586.5
885.1453	1438.0206	28362.2	27439.35
885.2889	1439.8524	28132.95	27209.95
885.4324	1441.6835	28080.5	27155.5
885.5759	1443.5139	27901	26978.4
885.7194	1445.3435	27778.35	26856.7
885.8629	1447.1724	27705.85	26787.15
886.0064	1449.0005	27581.4	26660.8
886.1499	1450.8279	27486.45	26564.75
886.2933	1452.6545	27411.35	26491.6
886.4368	1454.4804	27429.65	26511.45
886.5802	1456.3056	27385.25	26459.25
886.7237	1458.13	27257.1	26338.45
886.8671	1459.9536	27076.1	26158.25
887.0105	1461.7766	26794	25871.8
887.1539	1463.5987	26457.05	25536.45
887.2972	1465.4202	26103.9	25183.4
887.4406	1467.2409	25719.75	24799.75
887.584	1469.0608	25504.9	24584.3
887.7273	1470.88	25228.8	24307.1
887.8706	1472.6984	25015.9	24094.3
888.0139	1474.5161	24763.15	23840.1
888.1572	1476.3331	24609.6	23690.5
888.3005	1478.1493	24480.6	23557.9
888.4438	1479.9648	24351.6	23431
888.5871	1481.7795	24260.95	23339.15
888.7303	1483.5935	24218	23297.1
888.8736	1485.4067	24111.95	23193.55
889.0168	1487.2192	24050.8	23130.7
889.16	1489.031	23980.2	23057.55
889.3032	1490.842	23863.45	22942.95
889.4464	1492.6522	23832.7	22915.25
889.5896	1494.4618	23734	22812.65
889.7327	1496.2705	23666.25	22749
889.8759	1498.0785	23588.8	22668.1
890.019	1499.8858	23567.75	22648.55
890.1622	1501.6924	23452.75	22534.7
890.3053	1503.4981	23436.95	22515.6
890.4484	1505.3032	23396.45	22475.55
890.5914	1507.1075	23347.9	22427.45
890.7345	1508.911	23235.6	22315.05
890.8776	1510.7138	23169.8	22249.45
891.0206	1512.5159	23090.9	22170.6
891.1637	1514.3172	22961.55	22041.1
891.3067	1516.1178	22890.6	21972.25
891.4497	1517.9176	22888.9	21968.5
891.5927	1519.7166	22741.3	21824
891.7357	1521.515	22655	21729.7
891.8786	1523.3126	22606.45	21687.2
892.0216	1525.1094	22564.9	21644.65
892.1645	1526.9055	22463.7	21548.15
892.3074	1528.7008	22353.6	21434.35
892.4503	1530.4954	22242.45	21321
892.5932	1532.2893	22191.95	21277.7
892.7361	1534.0824	22059.4	21139.75
892.879	1535.8747	22119.35	21202.7
893.0218	1537.6663	22008.85	21097.65
893.1647	1539.4572	21914.7	20995.3
893.3075	1541.2473	21919.7	21003.85
893.4503	1543.0367	21782.5	20868.7
893.5931	1544.8253	21763.45	20845.05
893.7359	1546.6132	21713.2	20794.6
893.8787	1548.4003	21607.65	20682.05
894.0214	1550.1867	21587.55	20662.15
894.1642	1551.9723	21560.1	20646.2
894.3069	1553.7572	21564.55	20650.95
894.4496	1555.5414	21505.75	20587.8
894.5923	1557.3247	21533.45	20619.6
894.735	1559.1074	21552.75	20645.7
894.8777	1560.8893	21568.55	20658.95
895.0204	1562.6705	21581.5	20670.45
895.163	1564.4509	21579	20669.2
895.3056	1566.2305	21580.85	20672.8
895.4482	1568.0094	21628.85	20725.35
895.5908	1569.7876	21658.4	20751.2
895.7334	1571.565	21629.8	20719.15
895.876	1573.3417	21624.5	20712.45
896.0186	1575.1176	21558.9	20646.7
896.1611	1576.8928	21477.55	20570.05
896.3036	1578.6672	21349.9	20447.05
896.4461	1580.4409	21232.15	20329.6
896.5886	1582.2138	21128.15	20220.25
896.7311	1583.986	20973.5	20068.45
896.8736	1585.7575	20935.65	20026.7
897.0161	1587.5282	20847.55	19942.2
897.1585	1589.2981	20833.35	19930.6
897.3009	1591.0673	20695.25	19792.85
897.4433	1592.8358	20684.85	19782.05
897.5857	1594.6035	20647.9	19739.95
897.7281	1596.3704	20598.6	19691
897.8705	1598.1366	20548.2	19643.9
898.0128	1599.9021	20598.65	19693.05
898.1551	1601.6668	20558.15	19652.55
898.2975	1603.4308	20563.75	19658.1
898.4398	1605.194	20645.75	19735.6
898.5821	1606.9564	20684.75	19783.55
898.7243	1608.7182	20789	19888.3
898.8666	1610.4791	20851.4	19956.15
899.0088	1612.2394	20936.45	20041.35
899.1511	1613.9988	21025.6	20130.55
899.2933	1615.7576	21190.6	20290.1
899.4355	1617.5156	21328.55	20419
899.5776	1619.2728	21454.65	20546.45
899.7198	1621.0293	21506.55	20600.45
899.862	1622.785	21449.5	20546.5
900.0041	1624.54	21281.75	20380.55
900.1462	1626.2942	21158.1	20256.15
900.2883	1628.0477	20838.05	19934.7
900.4304	1629.8005	20636.25	19734.05
900.5725	1631.5525	20413.25	19512.75
900.7145	1633.3037	20196.2	19295.7
900.8566	1635.0542	20071.85	19171.95
900.9986	1636.804	19921.6	19021.25
901.1406	1638.553	19877.85	18924.5
901.2826	1640.3013	19756.25	18854
901.4245	1642.0488	19663.1	18761.05
901.5665	1643.7955	19668.75	18773.5
901.7085	1645.5416	19674.75	18775.05
901.8504	1647.2868	19708.8	18806.8
901.9923	1649.0313	19695.95	18792.25
902.1342	1650.7751	19807.05	18900.15
902.2761	1652.5181	19894.15	18994.9
902.4179	1654.2604	20024.5	19124.35
902.5598	1656.0019	20192.65	19293.85
902.7016	1657.7427	20365.6	19465.95
902.8434	1659.4828	20594.95	19693
902.9852	1661.222	20716	19814
903.127	1662.9606	20656.7	19754.5
903.2687	1664.6984	20502.15	19598.45
903.4105	1666.4354	20180.35	19277.15
903.5522	1668.1717	19707.6	18803.5
903.6939	1669.9072	19237.1	18333.8
903.8356	1671.642	18868.35	17961.35
903.9773	1673.3761	18568.55	17666.1
904.119	1675.1094	18304.8	17405.9
904.2606	1676.8419	18104	17201.7
904.4022	1678.5737	17894.25	16994.15
904.5439	1680.3048	17751.2	16846.5
904.6855	1682.0351	17598.2	16694.4
904.827	1683.7646	17514.45	16608.75
904.9686	1685.4934	17406.4	16506.9
905.1101	1687.2215	17301.9	16400.1
905.2517	1688.9488	17200.15	16299.8
905.3932	1690.6754	17118.15	16219.45
905.5347	1692.4012	17119.3	16218.85
905.6761	1694.1263	17019.05	16118.8
905.8176	1695.8506	16908.45	16008.65
905.9591	1697.5742	16856.65	15957.1
906.1005	1699.297	16810.05	15912.3
906.2419	1701.0191	16714.8	15818.65
906.3833	1702.7404	16650.4	15751.6
906.5246	1704.461	16566.1	15665.4
906.666	1706.1808	16517.8	15618.9
906.8073	1707.8999	16432.3	15533.9
906.9487	1709.6182	16370.25	15474.65
907.09	1711.3358	16343.55	15449.2
907.2313	1713.0527	16264	15371.05
907.3725	1714.7688	16215.4	15314.2
907.5138	1716.4841	16127.8	15229.5
907.655	1718.1987	16108.65	15206.5
907.7962	1719.9126	16058.2	15164.85
907.9374	1721.6257	15984.2	15088.95
908.0786	1723.338	15966.5	15071.15
908.2198	1725.0496	15888.85	14992
908.3609	1726.7605	15852.05	14954.55
908.502	1728.4706	15760.1	14862.3
908.6431	1730.18	15668.95	14771.85
908.7842	1731.8886	15669.8	14775.3
908.9253	1733.5964	15633.15	14717.45
909.0664	1735.3036	15580.3	14681.45
909.2074	1737.0099	15551.3	14658
909.3484	1738.7156	15519.7	14625
909.4894	1740.4204	15450.8	14550.25
909.6304	1742.1246	15377.95	14479.6
909.7714	1743.8279	15374.8	14478.9
909.9123	1745.5306	15344.9	14449.5
910.0532	1747.2325	15257.35	14364.35
910.1941	1748.9336	15241.3	14347.2
910.335	1750.634	15171.1	14271.3
910.4759	1752.3336	15120.1	14225.15
910.6168	1754.0325	15107.05	14213.05
910.7576	1755.7307	15072.2	14180.85
910.8984	1757.4281	15037.6	14144.3
911.0392	1759.1247	15025.8	14120.35
911.18	1760.8206	14992.45	14091.2
911.3208	1762.5158	14983.85	14082.75
911.4615	1764.2102	14895.5	13999.95
911.6022	1765.9039	14830.55	13935.5
911.7429	1767.5968	14817.35	13927.5
911.8836	1769.289	14794.5	13902.05
912.0243	1770.9804	14746.75	13850.5
912.1649	1772.6711	14731.75	13832.55
912.3056	1774.361	14684.55	13788.1
912.4462	1776.0502	14655.55	13757.4
912.5868	1777.7386	14612.5	13717.05
912.7274	1779.4263	14571.95	13678.5
912.8679	1781.1132	14520.65	13627.8
913.0084	1782.7994	14497.05	13606.8
913.149	1784.4849	14474.95	13584.35
913.2895	1786.1696	14446.4	13547.5
913.4299	1787.8535	14424.05	13532.05
913.5704	1789.5367	14344.1	13452.85
913.7108	1791.2192	14348.65	13455.95
913.8513	1792.9009	14267.8	13345.85
913.9917	1794.5818	14230.5	13333.85
914.132	1796.2621	14218.85	13325.35
914.2724	1797.9415	14151.2	13253.85
914.4128	1799.6202	14125.45	13231.2
914.5531	1801.2982	14109.5	13213.25
914.6934	1802.9755	14092.1	13193.75
914.8337	1804.6519	14085.7	13191.5
914.9739	1806.3277	14006.85	13112.5
915.1142	1808.0027	13932.8	13043.15
915.2544	1809.6769	13900.35	13010.1
915.3946	1811.3504	13887.75	12994.75
915.5348	1813.0231	13841.85	12951.45
915.675	1814.6951	13839.05	12947.3
915.8151	1816.3664	13855.1	12959.35
915.9553	1818.0369	13800.35	12907.65
916.0954	1819.7067	13743	12849.15
916.2355	1821.3757	13722.85	12827.7
916.3755	1823.044	13749.2	12853.35
916.5156	1824.7115	13690.35	12794.3
916.6556	1826.3783	13605.95	12713.05
916.7956	1828.0443	13590.75	12701.3
916.9356	1829.7096	13548.15	12655.4
917.0756	1831.3741	13535.15	12637.85
917.2155	1833.0379	13494.35	12601.35
917.3555	1834.701	13470	12577.85
917.4954	1836.3633	13410.35	12519.7
917.6353	1838.0248	13412.85	12521.05
917.7751	1839.6856	13381.15	12489
917.915	1841.3457	13350.8	12457.85
918.0548	1843.005	13348.3	12454.7
918.1946	1844.6636	13319.8	12425.2
918.3344	1846.3214	13242	12348.7
918.4742	1847.9785	13234.35	12344
918.6139	1849.6349	13226.2	12330
918.7537	1851.2904	13209.55	12307.5
918.8934	1852.9453	13162.75	12268.2
919.0331	1854.5994	13142.25	12246.2
919.1727	1856.2528	13121.75	12224.05
919.3124	1857.9054	13112.5	12218.75
919.452	1859.5572	13073.1	12181.85
919.5916	1861.2083	13052.8	12160.85
919.7312	1862.8587	13026.35	12131.5
919.8708	1864.5084	12993.25	12097.25
920.0103	1866.1572	12966.05	12069.8
920.1498	1867.8054	12906.05	12009.8
920.2893	1869.4528	12877.3	11984.2
920.4288	1871.0994	12833.25	11940.45
920.5683	1872.7453	12809.8	11915.95
920.7077	1874.3905	12832.15	11929.95
920.8471	1876.0349	12772.15	11876.65
920.9865	1877.6786	12751.8	11856.35
921.1259	1879.3215	12756.05	11862.45
921.2653	1880.9637	12715.45	11820.35
921.4046	1882.6051	12713.95	11820.7
921.5439	1884.2458	12654.5	11760.6
921.6832	1885.8858	12595.05	11700.55
921.8225	1887.525	12560.75	11666.2
921.9617	1889.1634	12529.15	11637.5
922.101	1890.8011	12461.45	11567.8
922.2402	1892.4381	12460.95	11567.3
922.3794	1894.0743	12453.85	11561.6
922.5185	1895.7098	12417.9	11525.4
922.6577	1897.3446	12384.05	11490.75
922.7968	1898.9786	12336.4	11439.75
922.9359	1900.6118	12326.05	11434.55
923.075	1902.2443	12282.75	11388.45
923.214	1903.8761	12239.9	11348.6
923.3531	1905.5071	12203.45	11309.6
923.4921	1907.1374	12174.4	11280.7
923.6311	1908.7669	12151.05	11260.5
923.77	1910.3957	12111.65	11219.25
923.909	1912.0237	12046.7	11155.25
924.0479	1913.651	12005.6	11111.2
924.1868	1915.2776	11997.7	11104.35
924.3257	1916.9034	11938.2	11046.4
924.4646	1918.5285	11899.15	11008.7
924.6034	1920.1528	11828.4	10933.85
924.7422	1921.7764	11814.95	10922.5
924.881	1923.3992	11798.1	10907.5
925.0198	1925.0213	11731.75	10837.75
925.1586	1926.6427	11688.55	10799
925.2973	1928.2633	11739.35	10777.85
925.436	1929.8832	11631.2	10739.05
925.5747	1931.5023	11568.65	10677.65
925.7134	1933.1207	11557.9	10665.9
925.852	1934.7383	11543.95	10651.35
925.9906	1936.3552	11485.95	10596.6
926.1292	1937.9714	11449.65	10555.4
926.2678	1939.5868	11424.7	10530.35
926.4064	1941.2015	11376.65	10483.35
926.5449	1942.8154	11348.75	10455.95
926.6834	1944.4286	11291	10397.7
926.8219	1946.041	11258.85	10347.15
926.9604	1947.6528	11195.1	10297.85
927.0988	1949.2637	11211.05	10321.1
927.2372	1950.8739	11150.95	10259.6
927.3756	1952.4834	11105.1	10214.45
927.514	1954.0921	11087.5	10197.4
927.6523	1955.7001	11034.85	10140.9
927.7907	1957.3074	11006.2	10117.25
927.929	1958.9139	10977.4	10090.95
928.0673	1960.5197	10963.25	10075.95
928.2055	1962.1247	10889.25	10000.7
928.3438	1963.729	10871.15	9982.95
928.482	1965.3325	10849.25	9938.6
928.6202	1966.9353	10777.8	9889.25
928.7584	1968.5374	10781.9	9890.9
928.8965	1970.1387	10735.75	9847.35
929.0346	1971.7393	10676.6	9786.8
929.1727	1973.3392	10662.35	9773.05
929.3108	1974.9383	10587.8	9701
929.4489	1976.5366	10555.45	9667.7
929.5869	1978.1342	10545.05	9656.75
929.7249	1979.7311	10525.7	9636
929.8629	1981.3273	10509.05	9620.7
930.0009	1982.9227	10473.5	9583.1
930.1388	1984.5173	10389.8	9503.4
930.2767	1986.1112	10392.75	9507.25
930.4146	1987.7044	10367.45	9483.35
930.5525	1989.2968	10325.45	9436.7
930.6904	1990.8885	10307.55	9419.1
930.8282	1992.4795	10296.85	9408.4
930.966	1994.0697	10256	9372
931.1038	1995.6592	10226.15	9338.45
931.2415	1997.2479	10193.3	9307.6
931.3793	1998.8359	10167.85	9282.45
931.517	2000.4232	10115	9231.05
931.6547	2002.0097	10093.2	9210.4
931.7923	2003.5955	10045.75	9162.55
931.93	2005.1805	10048.7	9161.8
932.0676	2006.7648	10007.6	9123.7
932.2052	2008.3484	9986.6	9102.85
932.3427	2009.9312	10000.55	9114.85
932.4803	2011.5133	9939.6	9059.85
932.6178	2013.0946	9906.95	9023.9
932.7553	2014.6752	9889.15	9007.25
932.8928	2016.2551	9885.95	9002.5
933.0302	2017.8342	9852.65	8967.7
933.1676	2019.4126	9794.8	8911.6
933.305	2020.9902	9763.15	8880.8
933.4424	2022.5672	9740.45	8854.75
933.5798	2024.1433	9733.65	8844.05
933.7171	2025.7188	9670	8789.3
933.8544	2027.2935	9663.9	8780.5
933.9917	2028.8674	9620.8	8738.8
934.129	2030.4406	9589	8709.5
934.2662	2032.0131	9553.95	8673.7
934.4034	2033.5849	9522.4	8636.7
934.5406	2035.1559	9525.05	8643.5
934.6778	2036.7261	9509.4	8626.2
934.8149	2038.2957	9487.05	8601.35
934.952	2039.8645	9476.85	8591.35
935.0891	2041.4325	9469.45	8581.2
935.2262	2042.9998	9415.4	8530.65
935.3632	2044.5664	9407.6	8521.95
935.5002	2046.1323	9370.8	8487.15
935.6372	2047.6974	9329.1	8446.9
935.7742	2049.2617	9309.35	8427.9
935.9111	2050.8254	9283.9	8398.25
936.048	2052.3883	9293.5	8408.45
936.1849	2053.9504	9275.5	8389.6
936.3218	2055.5118	9226.25	8339.95
936.4586	2057.0725	9187.25	8301.55
936.5955	2058.6325	9182.75	8300.65
936.7323	2060.1917	9154.35	8270.35
936.869	2061.7502	9114.75	8231.3
937.0058	2063.3079	9070.3	8188.75
937.1425	2064.8649	9065.35	8178.7
937.2792	2066.4212	9042.95	8158.3
937.4159	2067.9767	9007.65	8123.85
937.5525	2069.5315	8983.6	8099.25
937.6891	2071.0856	8924	8040.85
937.8257	2072.6389	8896.05	8011.35
937.9623	2074.1915	8870.8	7989.15
938.0989	2075.7433	8820.9	7935.15
938.2354	2077.2945	8801.05	7921.4
938.3719	2078.8448	8770.75	7886.65
938.5084	2080.3945	8757.15	7873.3
938.6448	2081.9434	8755.2	7870.3
938.7812	2083.4916	8727.3	7840.3
938.9176	2085.039	8709.6	7820.85
939.054	2086.5857	8678.7	7787.45
939.1903	2088.1317	8670.75	7781.6
939.3267	2089.677	8658.5	7769.15
939.463	2091.2215	8634.45	7744.3
939.5992	2092.7652	8598.55	7710.35
939.7355	2094.3083	8585.85	7696.6
939.8717	2095.8506	8569.65	7684.25
940.0079	2097.3921	8557	7672.05
940.1441	2098.933	8531.7	7645.85
940.2802	2100.4731	8528.5	7642.65
940.4163	2102.0124	8497.75	7601.5
940.5524	2103.5511	8446.05	7560.35
940.6885	2105.089	8456.5	7570.75
940.8245	2106.6261	8432.35	7546.65
940.9606	2108.1626	8405.2	7517.75
941.0965	2109.6983	8410.2	7498.1
941.2325	2111.2332	8361.45	7474.25
941.3684	2112.7675	8335.25	7448.3
941.5044	2114.301	8319	7429.25
941.6403	2115.8337	8289.45	7401.8
941.7761	2117.3657	8271.1	7384.45
941.912	2118.897	8269.8	7383.75
942.0478	2120.4276	8262.2	7370.9
942.1835	2121.9575	8205.7	7314.75
942.3193	2123.4866	8208.2	7318.5
942.455	2125.0149	8179.95	7291.65
942.5907	2126.5426	8144.25	7258.5
942.7264	2128.0695	8122.15	7236.4
942.8621	2129.5956	8092.45	7209.9
942.9977	2131.1211	8086.9	7198.1
943.1333	2132.6458	8080.7	7196.7
943.2689	2134.1698	8042.45	7155.55
943.4044	2135.693	8042	7152.45
943.54	2137.2155	8008.15	7117.95
943.6755	2138.7373	7998.45	7113.35
943.8109	2140.2584	7958.15	7072.8
943.9464	2141.7787	7934.75	7045.6
944.0818	2143.2983	7911.6	7029.35
944.2172	2144.8171	7872.3	6992.45
944.3526	2146.3353	7867.55	6982.4
944.4879	2147.8527	7841.55	6959.3
944.6232	2149.3693	7839.85	6953.9
944.7585	2150.8853	7807.7	6921.95
944.8938	2152.4005	7766.45	6879.4
945.029	2153.9149	7749.8	6863
945.1642	2155.4287	7793.25	6797.95
945.2994	2156.9417	7746.65	6856.35
945.4346	2158.454	7696.45	6809.3
945.5697	2159.9655	7671.5	6787.8
945.7048	2161.4764	7657.75	6772.45
945.8399	2162.9865	7653.5	6770.25
945.9749	2164.4958	7641.25	6755.6
946.1099	2166.0045	7608.6	6721.65
946.2449	2167.5124	7594.6	6708.75
946.3799	2169.0195	7576.65	6692.35
946.5148	2170.526	7564.35	6675.9
946.6498	2172.0317	7530.1	6643.15
946.7846	2173.5367	7508.05	6623.3
946.9195	2175.0409	7482.7	6600.5
947.0543	2176.5445	7496	6611.35
947.1891	2178.0473	7464.65	6577.6
947.3239	2179.5494	7441.4	6551.55
947.4587	2181.0507	7414.8	6528.55
947.5934	2182.5513	7386.65	6500.8
947.7281	2184.0512	7362.6	6474.35
947.8628	2185.5504	7355.85	6469.4
947.9974	2187.0488	7315.3	6430.95
948.132	2188.5465	7297	6413.85
948.2666	2190.0435	7266.95	6382.45
948.4012	2191.5397	7238.95	6353.95
948.5357	2193.0353	7222.25	6336.3
948.6702	2194.5301	7200.6	6312.35
948.8047	2196.0241	7191	6303.95
948.9392	2197.5175	7161.25	6272.75
949.0736	2199.0101	7140.3	6248.65
949.208	2200.502	7103.1	6216.55
949.3424	2201.9931	7093.8	6208.65
949.4767	2203.4835	7047.5	6163
949.611	2204.9733	7045.6	6146.4
949.7453	2206.4622	7045.05	6160.2
949.8796	2207.9505	6987.15	6099.75
950.0138	2209.438	6978.65	6098.6
950.148	2210.9248	6961.5	6076.1
950.2822	2212.4109	6931.3	6046.1
950.4164	2213.8962	6896.9	6007.5
950.5505	2215.3809	6883.7	5995.05
950.6846	2216.8648	6873.85	5983.65
950.8186	2218.3479	6851.1	5956.9
950.9527	2219.8304	6843.2	5953.05
951.0867	2221.3121	6797.05	5903.7
951.2207	2222.7931	6781.65	5895.2
951.3546	2224.2733	6748.2	5859.35
951.4886	2225.7529	6756.4	5870.6
951.6225	2227.2317	6703.5	5814.95
951.7563	2228.7098	6720.05	5837.7
951.8902	2230.1872	6692.6	5809.25
952.024	2231.6638	6683.3	5799.85
952.1578	2233.1397	6644.35	5757.6
952.2916	2234.6149	6612.25	5729.5
952.4253	2236.0894	6613.4	5728.25
952.559	2237.5632	6603.85	5716.25
952.6927	2239.0362	6578.35	5690.95
952.8263	2240.5085	6558.45	5672.5
952.9599	2241.9801	6548.7	5661.3
953.0935	2243.4509	6522.8	5634.65
953.2271	2244.921	6492.25	5605.45
953.3606	2246.3904	6459.1	5571.95
953.4941	2247.8591	6463.3	5577.15
953.6276	2249.3271	6435	5547.95
953.7611	2250.7943	6413.85	5525.7
953.8945	2252.2608	6369.5	5481.15
954.0279	2253.7266	6385.75	5498.95
954.1612	2255.1917	6341.25	5453.65
954.2946	2256.656	6326.2	5438.95
954.4279	2258.1197	6320.3	5436.05
954.5612	2259.5826	6309.8	5421.5
954.6944	2261.0447	6297.8	5411.15
954.8276	2262.5062	6264.4	5374.8
954.9608	2263.9669	6256.6	5366.9
955.094	2265.4269	6246.95	5360.95
955.2271	2266.8862	6235.05	5350.25
955.3602	2268.3448	6197.05	5310.95
955.4933	2269.8026	6222.45	5337.35
955.6264	2271.2598	6184.3	5299.4
955.7594	2272.7162	6167.5	5282.75
955.8924	2274.1719	6171.1	5283.4
956.0253	2275.6268	6124.45	5236.55
956.1583	2277.0811	6108	5220.1
956.2912	2278.5346	6135.25	5247.95
956.4241	2279.9874	6100.2	5212.85
956.5569	2281.4395	6075.65	5193.1
956.6897	2282.8908	6083.75	5192.95
956.8225	2284.3414	6056.9	5169
956.9553	2285.7914	6026.65	5141.55
957.088	2287.2406	6017.75	5130.15
957.2207	2288.689	5990.4	5102.65
957.3534	2290.1368	5980.2	5091.65
957.486	2291.5838	5967.7	5076.25
957.6186	2293.0302	5936.65	5045.95
957.7512	2294.4758	5924.6	5037.05
957.8838	2295.9206	5908.6	5017.8
958.0163	2297.3648	5893.75	5008.15
958.1488	2298.8082	5892.3	5004.2
958.2813	2300.251	5858.3	4970.9
958.4137	2301.693	5840.3	4950.25
958.5461	2303.1343	5843.6	4953.95
958.6785	2304.5748	5827.85	4943
958.8108	2306.0147	5796.55	4911.25
958.9432	2307.4538	5777.05	4892.7
959.0754	2308.8922	5770.2	4887.05
959.2077	2310.3299	5760.3	4874.1
959.3399	2311.7669	5736.05	4851.65
959.4721	2313.2031	5698.95	4812.8
959.6043	2314.6387	5698.55	4811.55
959.7365	2316.0735	5673.65	4787.8
959.8686	2317.5076	5686.1	4800.05
960.0006	2318.941	5667.1	4781.75
960.1327	2320.3737	5644.4	4755.5
960.2647	2321.8056	5635.55	4743.2
960.3967	2323.2369	5614.2	4726.55
960.5287	2324.6674	5608.95	4720.2
960.6606	2326.0972	5555.4	4667.05
960.7925	2327.5263	5551.7	4664.15
960.9244	2328.9547	5554.55	4667.4
961.0562	2330.3823	5541.7	4653.45
961.1881	2331.8092	5547.15	4655.4
961.3198	2333.2355	5498.55	4610.75
961.4516	2334.661	5506.5	4616.6
961.5833	2336.0858	5493.25	4604.6
961.715	2337.5098	5467.55	4580.25
961.8467	2338.9332	5457.95	4570.75
961.9783	2340.3558	5429.6	4541
962.1099	2341.7778	5427.25	4542
962.2415	2343.199	5402.95	4515.55
962.373	2344.6195	5399.45	4512.65
962.5045	2346.0393	5382.3	4496.85
962.636	2347.4583	5358.85	4472.9
962.7675	2348.8767	5370.35	4482.95
962.8989	2350.2943	5357.6	4466.1
963.0303	2351.7113	5366.95	4475.6
963.1617	2353.1275	5343.15	4453.7
963.293	2354.543	5323.7	4424.8
963.4243	2355.9578	5298.1	4409.15
963.5556	2357.3718	5263.9	4377
963.6868	2358.7852	5240.85	4353.7
963.818	2360.1978	5214.1	4327.05
963.9492	2361.6098	5194.8	4306.95
964.0803	2363.021	5214.45	4323.65
964.2114	2364.4315	5184.85	4296.05
964.3425	2365.8413	5175.65	4287.35
964.4736	2367.2504	5150.9	4265.75
964.6046	2368.6587	5127.6	4242.55
964.7356	2370.0664	5096.7	4211.5
964.8666	2371.4733	5104.75	4218.75
964.9975	2372.8795	5075.15	4189.2
965.1284	2374.285	5080.35	4192.3
965.2593	2375.6899	5054.8	4169.85
965.3901	2377.0939	5022.35	4135.05
965.5209	2378.4973	5000.7	4114.8
965.6517	2379.9	4999.4	4110.45
965.7825	2381.3019	4987.9	4100.7
965.9132	2382.7032	4973.05	4087.15
966.0439	2384.1037	4962.5	4080.15
966.1745	2385.5035	4939.1	4055.85
966.3051	2386.9027	4913.25	4030.75
966.4357	2388.3011	4916.45	4029.8
966.5663	2389.6987	4905	4020.15
966.6968	2391.0957	4904.05	4018.95
966.8273	2392.492	4861.5	3976.75
966.9578	2393.8876	4836.15	3948.45
967.0882	2395.2824	4843.85	3958.65
967.2186	2396.6765	4819.5	3931.9
967.349	2398.07	4791.8	3906.35
967.4793	2399.4627	4790.15	3900.05
967.6097	2400.8547	4781.05	3894.05
967.7399	2402.246	4775.25	3880.7
967.8702	2403.6366	4741.25	3855.65
968.0004	2405.0265	4734.25	3848.85
968.1306	2406.4156	4696.65	3806
968.2607	2407.8041	4681.55	3790.55
968.3909	2409.1918	4692.2	3802.15
968.521	2410.5789	4668.8	3779.25
968.651	2411.9652	4649.3	3757.8
968.781	2413.3508	4633.5	3746.05
968.911	2414.7358	4630.2	3744.25
969.041	2416.12	4611.05	3725.05
969.1709	2417.5035	4592.55	3706.25
969.3008	2418.8863	4602.1	3715.1
969.4307	2420.2684	4576.85	3687.85
969.5606	2421.6497	4560.75	3671.7
969.6904	2423.0304	4535.95	3649.9
969.8201	2424.4104	4525.8	3637.3
969.9499	2425.7896	4506.6	3620.55
970.0796	2427.1682	4501.95	3615.8
970.2093	2428.546	4495.8	3608.25
970.3389	2429.9232	4487.1	3600.75
970.4685	2431.2996	4484.35	3596.6
970.5981	2432.6753	4457.15	3570.7
970.7277	2434.0503	4468.05	3581.45
970.8572	2435.4246	4423.75	3535.2
970.9867	2436.7982	4418.8	3529.65
971.1161	2438.1711	4422.55	3536.5
971.2456	2439.5433	4398.65	3511.4
971.375	2440.9148	4385.55	3492.75
971.5043	2442.2856	4358.8	3471.35
971.6336	2443.6557	4346.45	3460.3
971.7629	2445.025	4334.8	3446.85
971.8922	2446.3937	4336.9	3448.75
972.0214	2447.7617	4334.5	3447.2
972.1506	2449.1289	4321.8	3435.2
972.2798	2450.4955	4300.2	3409.45
972.4089	2451.8613	4284.6	3399.3
972.538	2453.2265	4282.2	3395.25
972.6671	2454.5909	4280.35	3393.35
972.7961	2455.9546	4257.05	3370.75
972.9251	2457.3177	4242.05	3356.6
973.0541	2458.68	4228.9	3341.65
973.1831	2460.0416	4225.6	3338.3
973.312	2461.4025	4223.45	3334.8
973.4408	2462.7627	4227.45	3330.05
973.5697	2464.1222	4201.75	3316.6
973.6985	2465.4811	4205.9	3320.3
973.8273	2466.8392	4186.3	3300.25
973.956	2468.1966	4177.75	3289.85
974.0847	2469.5533	4164.7	3277.05
974.2134	2470.9093	4170.6	3285.05
974.3421	2472.2645	4129.9	3243.1
974.4707	2473.6191	4138.25	3253.05
974.5993	2474.973	4104.5	3220.9
974.7278	2476.3262	4122.05	3232.3
974.8563	2477.6787	4097.45	3212.25
974.9848	2479.0305	4071.55	3187.4
975.1132	2480.3816	4069.8	3180.85
975.2417	2481.7319	4059.1	3173.65
975.37	2483.0816	4023.25	3135.8
975.4984	2484.4306	4029.8	3141.9
975.6267	2485.7789	4005.55	3121.75
975.755	2487.1264	4012.25	3126.45
975.8833	2488.4733	3981.35	3097.8
976.0115	2489.8195	3980.2	3087.45
976.1397	2491.165	3956.9	3069.5
976.2678	2492.5097	3941.75	3055.85
976.3959	2493.8538	3943.6	3057.95
976.524	2495.1972	3922.65	3037.1
976.6521	2496.5398	3917.4	3029.15
976.7801	2497.8818	3922.95	3035.75
976.9081	2499.2231	3893.3	3007.45
977.036	2500.5637	3875.75	2988.1
977.164	2501.9035	3875.9	2987.95
977.2918	2503.2427	3870.6	2978.85
977.4197	2504.5812	3857.8	2970.2
977.5475	2505.919	3844.15	2955.85
977.6753	2507.256	3840.4	2954.4
977.8031	2508.5924	3834.7	2948.85
977.9308	2509.9281	3813.15	2923.05
978.0585	2511.2631	3796	2909.85
978.1861	2512.5974	3779.65	2893.85
978.3137	2513.9309	3772.2	2885.55
978.4413	2515.2638	3779.3	2870.9
978.5689	2516.596	3761.85	2875.8
978.6964	2517.9275	3731.35	2841.95
978.8239	2519.2583	3727.65	2840.85
978.9513	2520.5884	3729.6	2840.15
979.0788	2521.9178	3709.5	2823.3
979.2062	2523.2465	3695.7	2809.35
979.3335	2524.5745	3679.65	2794.45
979.4608	2525.9018	3680.85	2794.7
979.5881	2527.2284	3671.9	2786.75
979.7154	2528.5543	3662	2776.4
979.8426	2529.8796	3651.4	2765.25
979.9698	2531.2041	3641.9	2755.8
980.0969	2532.5279	3639.8	2756.35
980.224	2533.851	3633.15	2747.25
980.3511	2535.1735	3634.35	2749.15
980.4781	2536.4952	3620	2734.4
980.6052	2537.8163	3613.9	2727.55
980.7321	2539.1366	3604.6	2718.8
980.8591	2540.4562	3592.5	2703.35
980.986	2541.7752	3591.9	2706.15
981.1129	2543.0935	3588.6	2701.3
981.2397	2544.411	3577.45	2689.65
981.3665	2545.7279	3572.5	2684.95
981.4933	2547.0441	3567.5	2680.25
981.62	2548.3596	3563.65	2672.2
981.7467	2549.6744	3565.5	2679.9
981.8734	2550.9885	3550	2654.8
982.0001	2552.3019	3523.25	2637.55
982.1267	2553.6146	3529	2640.5
982.2532	2554.9266	3529.3	2639.75
982.3798	2556.2379	3522.25	2633.8
982.5063	2557.5485	3519.95	2634.15
982.6327	2558.8585	3502.25	2607.95
982.7592	2560.1677	3491.3	2599.5
982.8856	2561.4762	3501.5	2611.95
983.0119	2562.7841	3485.35	2595.45
983.1383	2564.0913	3463.85	2577.75
983.2646	2565.3977	3460	2574.8
983.3908	2566.7035	3449.05	2562.15
983.517	2568.0086	3445.35	2556.1
983.6432	2569.313	3443.7	2556.1
983.7694	2570.6167	3443.6	2555.1
983.8955	2571.9197	3430.1	2542.6
984.0216	2573.222	3419.45	2528.55
984.1476	2574.5236	3418.65	2530.4
984.2737	2575.8246	3407.15	2517.2
984.3996	2577.1248	3411.25	2521
984.5256	2578.4244	3405.95	2519.85
984.6515	2579.7232	3411.95	2525.5
984.7774	2581.0214	3410.85	2496.15
984.9032	2582.3189	3382.8	2497.85
985.029	2583.6157	3368.95	2479.15
985.1548	2584.9118	3369.85	2484.95
985.2806	2586.2072	3362.3	2477.6
985.4063	2587.5019	3372.35	2485.1
985.5319	2588.7959	3354.5	2465.75
985.6576	2590.0893	3349.85	2461.05
985.7832	2591.3819	3352.3	2465.2
985.9087	2592.6739	3324.15	2438.25
986.0343	2593.9652	3324.4	2435.6
986.1597	2595.2557	3313.2	2427.6
986.2852	2596.5456	3321.5	2431.4
986.4106	2597.8348	3296.85	2410.65
986.536	2599.1234	3289.95	2405.15
986.6614	2600.4112	3275.85	2389.75
986.7867	2601.6983	3276.6	2386.35
986.912	2602.9848	3271.05	2382.6
987.0372	2604.2705	3251.2	2357.75
987.1624	2605.5556	3259.75	2372.05
987.2876	2606.84	3249.8	2365.4
987.4128	2608.1237	3236.75	2347.8
987.5379	2609.4067	3223.45	2336
987.6629	2610.689	3222.6	2325.8
987.788	2611.9707	3207.5	2314.05
987.913	2613.2516	3198.8	2307.5
988.0379	2614.5319	3181.35	2295.1
988.1629	2615.8115	3187.05	2300.75
988.2878	2617.0903	3164.65	2275.8
988.4126	2618.3685	3164.65	2278.3
988.5375	2619.6461	3154.8	2266.6
988.6622	2620.9229	3135.85	2248.8
988.787	2622.199	3141.75	2255.5
988.9117	2623.4745	3137.85	2249.1
989.0364	2624.7493	3123.3	2236.7
989.161	2626.0234	3118.65	2234.5
989.2857	2627.2968	3098.5	2213.05
989.4102	2628.5695	3108.2	2220.5
989.5348	2629.8415	3077.25	2189.6
989.6593	2631.1128	3066.15	2177.05
989.7837	2632.3835	3062.75	2174.8
989.9082	2633.6535	3048.85	2162.9
990.0326	2634.9228	3053.25	2168.25
990.1569	2636.1914	3040.6	2155.9
990.2812	2637.4593	3046.1	2157.5
990.4055	2638.7265	3032.7	2144.85
990.5298	2639.9931	3023.45	2136.2
990.654	2641.259	3017.4	2129.55
990.7782	2642.5242	3007.3	2117.95
990.9023	2643.7887	2999.75	2112
991.0264	2645.0525	2996.85	2109.7
991.1505	2646.3156	3004.15	2101.55
991.2745	2647.5781	2986.55	2100
991.3985	2648.8398	2967.45	2080.65
991.5225	2650.1009	2992.75	2080.85
991.6464	2651.3613	2974.3	2085.3
991.7703	2652.6211	2961	2075
991.8942	2653.8801	2946.95	2062.5
992.018	2655.1385	2938	2048.6
992.1418	2656.3961	2928.7	2041.15
992.2655	2657.6531	2940.95	2053.65
992.3892	2658.9094	2927.25	2039.95
992.5129	2660.1651	2919.4	2032.5
992.6366	2661.42	2922.6	2036.7
992.7602	2662.6743	2912.4	2024.9
992.8837	2663.9279	2909.2	2023.4
993.0073	2665.1808	2899.9	2011.9
993.1307	2666.433	2906.1	2019.65
993.2542	2667.6846	2899.8	2013.95
993.3776	2668.9354	2894.8	2003.45
993.501	2670.1856	2877.8	1990.95
993.6244	2671.4351	2884.05	1997.05
993.7477	2672.6839	2873.1	1986.9
993.8709	2673.9321	2870.55	1986.45
993.9942	2675.1795	2863.8	1974.8
994.1174	2676.4263	2859.65	1974.5
994.2405	2677.6724	2858.75	1975.6
994.3637	2678.9179	2855.85	1968.7
994.4868	2680.1626	2843.2	1957.55
994.6098	2681.4067	2832.65	1944.9
994.7328	2682.6501	2838.5	1951.85
994.8558	2683.8928	2835.35	1949.05
994.9788	2685.1348	2826.35	1939.15
995.1017	2686.3761	2815.1	1929.05
995.2245	2687.6168	2820.95	1935.8
995.3474	2688.8568	2806.55	1921.4
995.4702	2690.0961	2790.2	1904
995.5929	2691.3348	2779.5	1893.9
995.7156	2692.5727	2774.8	1887.5
995.8383	2693.81	2759.85	1874.55
995.961	2695.0466	2761.55	1876.5
996.0836	2696.2826	2778.15	1890.45
996.2062	2697.5178	2761.1	1873.95
996.3287	2698.7524	2747.6	1861
996.4512	2699.9863	2729.95	1842.35
996.5737	2701.2195	2726.1	1842.05
996.6961	2702.452	2735	1848.2
996.8185	2703.6839	2737.95	1852.35
996.9408	2704.9151	2731.85	1844.6
997.0631	2706.1456	2720.2	1833.9
997.1854	2707.3755	2730.3	1844.35
997.3077	2708.6046	2719	1831.7
997.4299	2709.8331	2717.35	1832.15
997.552	2711.0609	2715.3	1832.45
997.6742	2712.2881	2719.9	1835.7
997.7963	2713.5145	2733.65	1844.95
997.9183	2714.7403	2723.4	1837.6
998.0403	2715.9654	2728.45	1841.1
998.1623	2717.1899	2743.95	1843.7
998.2842	2718.4136	2734.7	1849.35
998.4062	2719.6367	2732.5	1847.15
998.528	2720.8591	2741.6	1849.05
998.6498	2722.0809	2724.9	1838.4
998.7716	2723.3019	2744.5	1855.3
998.8934	2724.5223	2735.95	1849.3
999.0151	2725.7421	2743.9	1857.3
999.1368	2726.9611	2740.3	1851.8
999.2584	2728.1795	2729.05	1838.4
999.38	2729.3972	2710.75	1826.2
999.5016	2730.6142	2720.9	1826.55
999.6231	2731.8306	2684.35	1797.75
999.7446	2733.0462	2679.75	1792.7
999.8661	2734.2612	2649.8	1758.4
999.9875	2735.4756	2641.85	1755.25
1000.1089	2736.6892	2622.2	1735.65
1000.2302	2737.9022	2597.35	1710.85
1000.3515	2739.1145	2584.15	1698.2
1000.4728	2740.3262	2576.95	1683.85
1000.594	2741.5372	2543.05	1658.85
1000.7152	2742.7475	2542.2	1655.1
1000.8363	2743.9571	2523.95	1636.15
1000.9575	2745.1661	2520.6	1630.6
1001.0785	2746.3744	2512.7	1627.2
1001.1996	2747.582	2495.25	1611.2
1001.3206	2748.7889	2487.1	1600.85
1001.4415	2749.9952	2475.65	1589.55
1001.5625	2751.2008	2467.55	1579.7
1001.6833	2752.4057	2454.8	1566.65
1001.8042	2753.61	2452.05	1567.7
1001.925	2754.8136	2451.65	1565.45
1002.0458	2756.0165	2425.55	1541
1002.1665	2757.2188	2431.85	1549.85
1002.2872	2758.4204	2420.7	1536.85
1002.4078	2759.6213	2418.85	1532.7
1002.5285	2760.8215	2411.3	1522.15
1002.649	2762.0211	2410.4	1522.55
1002.7696	2763.22	2407.45	1517.35
1002.8901	2764.4182	2399.85	1513.55
1003.0106	2765.6158	2392.65	1509.2
1003.131	2766.8127	2374.1	1488.85
1003.2514	2768.009	2365.25	1481.85
1003.3717	2769.2045	2366.2	1481.05
1003.492	2770.3994	2368.8	1479.5
1003.6123	2771.5936	2368.75	1483.25
1003.7325	2772.7872	2354	1470.25
1003.8527	2773.9801	2350.1	1461.4
1003.9729	2775.1723	2359.85	1459.4
1004.093	2776.3639	2338.65	1456.25
1004.2131	2777.5548	2338.1	1451.55
1004.3331	2778.745	2332	1445.4
1004.4531	2779.9346	2329.15	1445.65
1004.5731	2781.1235	2327.7	1442.15
1004.693	2782.3117	2314.7	1429.7
1004.8129	2783.4992	2317.2	1432.25
1004.9328	2784.6861	2323.6	1438.25
1005.0526	2785.8723	2319.35	1434.1
1005.1723	2787.0579	2318.45	1433.25
1005.2921	2788.2428	2325.5	1439.9
1005.4118	2789.427	2311.85	1430.65
1005.5314	2790.6106	2316.4	1431.25
1005.651	2791.7935	2330.3	1444
1005.7706	2792.9757	2321.55	1437.5
1005.8902	2794.1573	2331.4	1445.45
1006.0097	2795.3382	2329.95	1447.25
1006.1291	2796.5184	2336.6	1455.05
1006.2485	2797.698	2338.95	1451.8
1006.3679	2798.8769	2347.7	1464.2
1006.4873	2800.0551	2361.3	1477.4
1006.6066	2801.2327	2369.3	1481.7
1006.7258	2802.4096	2366.65	1485.55
1006.8451	2803.5859	2381.85	1497.75
1006.9642	2804.7615	2398.25	1515.2
1007.0834	2805.9364	2405	1520.7
1007.2025	2807.1106	2430.25	1545.45
1007.3216	2808.2842	2441.2	1556.8
1007.4406	2809.4572	2466.25	1582.1
1007.5596	2810.6294	2490.05	1605.35
1007.6785	2811.801	2521.95	1639.5
1007.7975	2812.972	2551.1	1667.6
1007.9163	2814.1423	2577.85	1693.9
1008.0352	2815.3119	2613.35	1730.7
1008.154	2816.4808	2650.45	1769.55
1008.2727	2817.6491	2679.45	1796.4
1008.3914	2818.8167	2699.95	1817.25
1008.5101	2819.9837	2753.4	1865.85
1008.6288	2821.15	2782.8	1898.25
1008.7474	2822.3157	2817.95	1934.55
1008.8659	2823.4807	2849.7	1966.3
1008.9844	2824.645	2895.7	2011.35
1009.1029	2825.8086	2934.3	2051.25
1009.2214	2826.9716	2965.9	2084.6
1009.3398	2828.134	2995.9	2114.15
1009.4581	2829.2957	3025.6	2141.95
1009.5764	2830.4567	3043.95	2162.4
1009.6947	2831.617	3048.4	2163.5
1009.813	2832.7767	3059.8	2176.4
1009.9312	2833.9358	3053.4	2169.95
1010.0493	2835.0941	3046.6	2159.7
1010.1675	2836.2519	3041.35	2159.35
1010.2855	2837.4089	3021.15	2136.15
1010.4036	2838.5653	3016.75	2133.55
1010.5216	2839.7211	3007.85	2125.2
1010.6396	2840.8761	3007.25	2124.45
1010.7575	2842.0306	3010.25	2127.85
1010.8754	2843.1843	3033.3	2151.1
1010.9932	2844.3374	3069.9	2187.9
1011.111	2845.4899	3117.35	2234.2
1011.2288	2846.6417	3162.8	2280.1
1011.3465	2847.7928	3214.7	2331.35
1011.4642	2848.9433	3278.45	2393.8
1011.5818	2850.0931	3330.2	2448.3
1011.6995	2851.2422	3377.3	2492
1011.817	2852.3907	3437.05	2553.85
1011.9345	2853.5385	3486	2599.2
1012.052	2854.6857	3534.25	2641.7
1012.1695	2855.8323	3558.85	2676.1
1012.2869	2856.9781	3589.05	2706.3
1012.4042	2858.1233	3637.05	2754.35
1012.5216	2859.2679	3665	2781.5
1012.6389	2860.4118	3704.4	2821.35
1012.7561	2861.555	3719.8	2831.7
1012.8733	2862.6976	3760.95	2876.45
1012.9905	2863.8395	3777.45	2895.15
1013.1076	2864.9808	3784	2898.85
1013.2247	2866.1214	3808.55	2927.85
1013.3417	2867.2614	3810.65	2926.9
1013.4587	2868.4007	3828.2	2941.25
1013.5757	2869.5393	3821.9	2937.9
1013.6926	2870.6773	3828.15	2941.2
1013.8095	2871.8146	3834.65	2947.8
1013.9263	2872.9513	3847.75	2960.35
1014.0431	2874.0874	3832.9	2951.4
1014.1599	2875.2227	3829.5	2947.9
1014.2766	2876.3574	3804.2	2920.5
1014.3933	2877.4915	3777.6	2894.95
1014.51	2878.6249	3747.15	2863.85
1014.6266	2879.7577	3719.65	2835.55
1014.7431	2880.8898	3716.5	2822
1014.8596	2882.0212	3696.35	2813.5
1014.9761	2883.152	3688.05	2805.55
1015.0925	2884.2821	3666.45	2785
1015.2089	2885.4116	3652.35	2772.5
1015.3253	2886.5405	3654.25	2770.45
1015.4416	2887.6686	3675.15	2788.7
1015.5579	2888.7962	3656.8	2774.5
1015.6741	2889.923	3671.2	2789.1
1015.7903	2891.0493	3674.1	2792.75
1015.9065	2892.1748	3680.6	2797.45
1016.0226	2893.2997	3677.05	2791.95
1016.1387	2894.424	3685.6	2803.6
1016.2547	2895.5476	3698.4	2817.7
1016.3707	2896.6706	3705.2	2823.3
1016.4866	2897.7929	3725.75	2842.8
1016.6025	2898.9145	3733.2	2849.85
1016.7184	2900.0355	3761.05	2879.1
1016.8342	2901.1559	3779.7	2896.5
1016.95	2902.2756	3816.5	2933.8
1017.0658	2903.3946	3831.2	2948.15
1017.1815	2904.513	3866.65	2984.2
1017.2971	2905.6308	3860.7	2978.6
1017.4127	2906.7479	3876.25	2993.95
1017.5283	2907.8643	3892.75	3010.55
1017.6439	2908.9801	3895.6	3014.15
1017.7594	2910.0953	3923.05	3039.5
1017.8748	2911.2098	3908.35	3022.55
1017.9902	2912.3236	3913.6	3023.4
1018.1056	2913.4368	3888.95	3003.15
1018.2209	2914.5494	3861.35	2977.7
1018.3362	2915.6613	3844.45	2957.55
1018.4515	2916.7725	3833.65	2949.6
1018.5667	2917.8831	3797.55	2916.25
1018.6819	2918.9931	3750.7	2865.4
1018.797	2920.1024	3746.4	2863
1018.9121	2921.211	3727.4	2846
1019.0271	2922.319	3713.45	2831.45
1019.1421	2923.4264	3691.25	2807.4
1019.2571	2924.5331	3674.55	2793.4
1019.372	2925.6391	3655.2	2773.1
1019.4869	2926.7445	3660.15	2780.2
1019.6017	2927.8493	3654.75	2770.85
1019.7165	2928.9534	3646.35	2764.8
1019.8313	2930.0569	3655.7	2770.55
1019.946	2931.1597	3641.8	2756.05
1020.0606	2932.2619	3621.55	2738
1020.1753	2933.3634	3612.25	2729.3
1020.2899	2934.4643	3617.75	2727.7
1020.4044	2935.5645	3592.35	2703.3
1020.5189	2936.6641	3576.05	2688.35
1020.6334	2937.763	3536.7	2654.75
1020.7478	2938.8613	3516.65	2632.8
1020.8622	2939.959	3450.9	2564.1
1020.9765	2941.056	3405	2522.85
1021.0908	2942.1523	3327.85	2444.7
1021.2051	2943.248	3276.5	2393.75
1021.3193	2944.3431	3201.65	2320.9
1021.4334	2945.4375	3124.9	2244.1
1021.5476	2946.5313	3029.2	2149.8
1021.6617	2947.6244	2947.45	2064.4
1021.7757	2948.7169	2873.75	1991.35
1021.8897	2949.8087	2801.4	1919.75
1022.0037	2950.8999	2721.55	1840.1
1022.1176	2951.9904	2648.05	1765.3
1022.2315	2953.0803	2591.5	1708.2
1022.3453	2954.1696	2549.45	1667.7
1022.4591	2955.2582	2507.45	1627.55
1022.5728	2956.3462	2446	1564.7
1022.6865	2957.4335	2431.45	1549.25
1022.8002	2958.5202	2395.85	1510.9
1022.9138	2959.6062	2372.2	1490.2
1023.0274	2960.6916	2349.9	1466.2
1023.141	2961.7764	2314.95	1432.25
1023.2545	2962.8605	2317.1	1435.8
1023.3679	2963.9439	2306.5	1425.05
1023.4813	2965.0267	2285.45	1402.9
1023.5947	2966.1089	2300.6	1393.95
1023.708	2967.1905	2271.5	1390.8
1023.8213	2968.2714	2278.15	1395.4
1023.9346	2969.3516	2269.9	1389.9
1024.0478	2970.4312	2268.8	1380.9
1024.1609	2971.5102	2268.25	1388
1024.274	2972.5885	2260.4	1379.85
1024.3871	2973.6662	2271.1	1385.1
1024.5002	2974.7432	2257.15	1375.35
1024.6132	2975.8196	2253.8	1371.55
1024.7261	2976.8954	2240.35	1359.95
1024.839	2977.9705	2223.2	1342.15
1024.9519	2979.045	2217.3	1336.7
1025.0647	2980.1188	2202.5	1321
1025.1775	2981.192	2189.35	1310
1025.2902	2982.2645	2170.95	1290.45
1025.4029	2983.3364	2148.35	1266.7
1025.5156	2984.4077	2125.8	1246.05
1025.6282	2985.4783	2111.75	1225.55
1025.7407	2986.5483	2078.5	1199.85
1025.8532	2987.6177	2055.1	1174.55
1025.9657	2988.6864	2019.45	1137.9
1026.0782	2989.7545	1999	1116.65
1026.1906	2990.8219	1962.55	1083.5
1026.3029	2991.8887	1935.6	1053.5
1026.4152	2992.9548	1901.5	1019.85
1026.5275	2994.0204	1880.95	1002.35
1026.6397	2995.0852	1852.95	972.55
1026.7519	2996.1495	1838.8	956.95
1026.864	2997.2131	1813.7	931.25
1026.9761	2998.276	1795.6	913.85
1027.0882	2999.3383	1782.75	899.05
1027.2002	3000.4	1758.6	875.45
1027.3122	3001.4611	1744.85	862.2
1027.4241	3002.5215	1740.7	859.9
1027.536	3003.5812	1721.8	841.7
1027.6478	3004.6404	1702.8	819.65
1027.7596	3005.6989	1698.1	815.4
1027.8714	3006.7567	1680.95	797.65
1027.9831	3007.8139	1682.45	784.75
1028.0947	3008.8705	1664.95	785.05
1028.2064	3009.9264	1681.6	785.7
1028.3179	3010.9818	1655.3	775.05
1028.4295	3012.0364	1651.6	768.6
1028.541	3013.0905	1643.45	764.6
1028.6524	3014.1439	1642.4	761.9
1028.7638	3015.1966	1640.55	758.7
1028.8752	3016.2487	1642.45	761.15
1028.9865	3017.3002	1634.7	747.1
1029.0978	3018.3511	1627.2	747.25
1029.209	3019.4013	1632.6	751.25
1029.3202	3020.4509	1627.95	748.5
1029.4314	3021.4998	1627.5	745.8
1029.5425	3022.5481	1617.2	735.9
1029.6535	3023.5958	1608.95	727.4
1029.7645	3024.6428	1614	732.75
1029.8755	3025.6892	1623.65	744.9
1029.9864	3026.735	1618.85	739.8
1030.0973	3027.7802	1620.45	737.7
1030.2082	3028.8247	1613	732.2
1030.319	3029.8685	1609.65	724.6
1030.4297	3030.9118	1616.4	736.2
1030.5404	3031.9544	1615.1	734.1
1030.6511	3032.9963	1614.9	732.1
1030.7617	3034.0376	1617	735.7
1030.8723	3035.0783	1622.7	740.05
1030.9829	3036.1184	1616.5	734.5
1031.0934	3037.1578	1618.45	739.65
1031.2038	3038.1966	1621.2	738.6
1031.3142	3039.2348	1617.05	736.35
1031.4246	3040.2723	1627.45	736.85
1031.5349	3041.3092	1621.4	739.6
1031.6452	3042.3455	1615.05	733.75
1031.7554	3043.3811	1609.65	727.5
1031.8656	3044.4161	1602.05	719.55
1031.9758	3045.4505	1597.35	718.9
1032.0859	3046.4842	1599.9	718.75
1032.1959	3047.5173	1592.45	714.1
1032.3059	3048.5498	1593.4	711.7
1032.4159	3049.5816	1579.6	698.7
1032.5258	3050.6128	1572.2	689.65
1032.6357	3051.6434	1570.65	688.55
1032.7455	3052.6734	1560.35	678.1
1032.8553	3053.7027	1561.05	680.45
1032.9651	3054.7314	1548.35	667.95
1033.0748	3055.7594	1544.95	665.7
1033.1845	3056.7868	1545.9	663.3
1033.2941	3057.8136	1532.2	652.1
1033.4037	3058.8398	1529.25	650.2
1033.5132	3059.8653	1520.2	639.85
1033.6227	3060.8902	1522.85	642.35
1033.7321	3061.9145	1512.95	632.05
1033.8415	3062.9381	1509.55	628.6
1033.9509	3063.9612	1515.95	621.65
1034.0602	3064.9835	1497.25	615.35
1034.1694	3066.0053	1496.8	613.8
1034.2787	3067.0264	1484.35	604.35
1034.3878	3068.0469	1484.5	600.7
1034.497	3069.0668	1477.95	592.45
1034.6061	3070.086	1465.75	585.95
1034.7151	3071.1046	1467.95	588.05
1034.8241	3072.1226	1449.85	569.4
1034.9331	3073.1399	1450.5	570.25
1035.042	3074.1567	1434.25	554.4
1035.1508	3075.1727	1431.45	551.8
1035.2597	3076.1882	1418.95	537
1035.3684	3077.203	1418.65	537.4
1035.4772	3078.2173	1409.2	526.9
1035.5859	3079.2308	1401.15	516.2
1035.6945	3080.2438	1402.7	519.15
1035.8031	3081.2561	1390.1	510.3
1035.9117	3082.2678	1384.75	504.8
1036.0202	3083.2789	1374.95	494.8
1036.1286	3084.2893	1366.25	485.8
1036.2371	3085.2991	1368.85	487.5
1036.3454	3086.3083	1363.9	480.5
1036.4538	3087.3169	1355.15	473.4
1036.562	3088.3248	1354.45	472.8
1036.6703	3089.3321	1344.7	461.9
1036.7785	3090.3388	1338.5	457.25
1036.8866	3091.3449	1337.55	455.6
1036.9948	3092.3503	1334.6	452.05
1037.1028	3093.3551	1324.2	446.45
1037.2108	3094.3593	1325.3	445.15
1037.3188	3095.3629	1315.8	438.05
1037.4267	3096.3658	1315.7	434.35
1037.5346	3097.3681	1314.2	434.55
1037.6425	3098.3698	1314.95	432.8
1037.7503	3099.3708	1315.5	428.7
1037.858	3100.3713	1300.7	422.5
1037.9657	3101.3711	1294.2	410.9
1038.0734	3102.3702	1431.45	419.85
1038.181	3103.3688	1297.5	414.7
1038.2886	3104.3667	1292.55	415.05
1038.3961	3105.364	1287.55	406.55
1038.5036	3106.3607	1283.85	403.35
1038.611	3107.3568	1281.2	399.15
1038.7184	3108.3522	1275.55	397.9
1038.8257	3109.347	1276.8	394.35
1038.933	3110.3412	1271.55	386.5
1039.0403	3111.3348	1272	392.1
1039.1475	3112.3277	1266.15	385.15
1039.2547	3113.32	1260.5	382.45
1039.3618	3114.3117	1263.85	382.2
1039.4689	3115.3028	1259.95	380.05
1039.5759	3116.2932	1256.05	376.15
1039.6829	3117.2831	1253.85	366.4
1039.7898	3118.2723	1250	371.3
1039.8967	3119.2608	1239.85	358.7
1040.0035	3120.2488	1244.75	365.4
1040.1103	3121.2361	1249.1	366.85
1040.2171	3122.2229	1238.95	360.4
1040.3238	3123.209	1242.15	359.1
1040.4305	3124.1944	1241.15	361.15
1040.5371	3125.1793	1234.45	352.75
1040.6437	3126.1635	1230.7	351.25
1040.7502	3127.1471	1231.5	351.5
1040.8567	3128.1301	1227.1	346.5
1040.9631	3129.1125	1226.25	347.1
1041.0695	3130.0942	1224.55	343.7
1041.1759	3131.0753	1231.05	344.35
1041.2822	3132.0558	1221.15	338.5
1041.3884	3133.0357	1214.6	335.45
1041.4946	3134.015	1223.95	343
1041.6008	3134.9936	1217.6	337.5
1041.7069	3135.9716	1233.7	331.85
1041.813	3136.949	1214.55	335.85
1041.919	3137.9258	1226.5	325.85
1042.025	3138.902	1207.4	322.25
1042.1309	3139.8775	1207.85	328.55
1042.2368	3140.8524	1201.45	321.2
1042.3427	3141.8267	1202.05	318.75
1042.4485	3142.8004	1203.5	323.8
1042.5542	3143.7735	1202.35	315.4
1042.6599	3144.7459	1201.5	319.2
1042.7656	3145.7178	1193.15	312.65
1042.8712	3146.689	1193.75	315.45
1042.9768	3147.6596	1192.05	310.3
1043.0823	3148.6295	1191.3	311.2
1043.1878	3149.5989	1188.35	308.4
1043.2932	3150.5676	1187.05	307.7
1043.3986	3151.5357	1176.6	299.1
1043.5039	3152.5032	1180.35	300.15
1043.6092	3153.4701	1180.3	301.95
1043.7145	3154.4364	1183.6	301.65
1043.8197	3155.402	1178.8	299.55
1043.9248	3156.367	1176.2	292.65
1044.03	3157.3315	1207.05	291.45
1044.135	3158.2952	1173.8	292.6
1044.24	3159.2584	1165.35	287.9
1044.345	3160.221	1164.25	283.55
1044.4499	3161.1829	1167.55	286.4
1044.5548	3162.1442	1161.75	281.6
1044.6596	3163.105	1161.25	282.3
1044.7644	3164.065	1159.85	279.95
1044.8692	3165.0245	1158.4	275.3
1044.9739	3165.9834	1154.85	276.25
1045.0785	3166.9416	1160.95	281.65
1045.1831	3167.8993	1158.45	278.7
1045.2877	3168.8563	1156.15	277.6
1045.3922	3169.8127	1147.15	267.25
1045.4966	3170.7684	1147.7	267.95
1045.6011	3171.7236	1153.1	272.1
1045.7054	3172.6782	1143.7	263.5
1045.8098	3173.6321	1144.25	262.6
1045.914	3174.5854	1150.1	266.25
1046.0183	3175.5381	1139.45	260.2
1046.1224	3176.4902	1137.25	258.75
1046.2266	3177.4417	1146.1	267.5
1046.3307	3178.3926	1131.45	251.25
1046.4347	3179.3428	1133.55	257.85
1046.5387	3180.2924	1136.5	259
1046.6427	3181.2415	1135.9	255.3
1046.7466	3182.1899	1135.05	254.1
1046.8504	3183.1377	1130.05	251.35
1046.9542	3184.0848	1132.45	248.8
1047.058	3185.0314	1127.45	246.8
1047.1617	3185.9773	1129.95	250.45
1047.2654	3186.9227	1126.3	244.35
1047.369	3187.8674	1128.5	249.25
1047.4726	3188.8115	1123.7	240.15
1047.5761	3189.755	1121.35	243.75
1047.6796	3190.6979	1115.9	237.4
1047.783	3191.6402	1118.4	236.6
1047.8864	3192.5818	1118	237.8
1047.9898	3193.5229	1121.45	235.6
1048.0931	3194.4633	1116.8	236.85
1048.1963	3195.4031	1111.15	230.95
1048.2995	3196.3423	1111.5	232.75
1048.4027	3197.2809	1106.75	225.45
1048.5058	3198.2189	1107.15	227.4
1048.6089	3199.1563	1115.35	228.35
1048.7119	3200.0931	1111.85	232.7
1048.8148	3201.0292	1108.05	228.65
1048.9178	3201.9648	1110.8	231.65
1049.0206	3202.8997	1107.25	224
1049.1235	3203.834	1100.6	219.85
1049.2262	3204.7677	1099.75	221
1049.329	3205.7008	1103.7	222.45
1049.4317	3206.6333	1096.65	221.05
1049.5343	3207.5652	1097.95	217.15
1049.6369	3208.4964	1092.95	213.8
1049.7394	3209.4271	1095.8	216.25
1049.8419	3210.3571	1093.35	216
1049.9444	3211.2865	1095.05	215.05
1050.0468	3212.2154	1095.95	215
1050.1491	3213.1436	1089.85	206.3
1050.2514	3214.0712	1104.45	217.6
1050.3537	3214.9982	1088.25	209.7
1050.4559	3215.9246	1080.5	199.9
1050.5581	3216.8503	1090.6	210.3
1050.6602	3217.7755	1085.3	205.85
1050.7623	3218.7001	1084.9	206.75
1050.8643	3219.624	1087.6	208.6
1050.9663	3220.5473	1085.45	204.55
1051.0682	3221.4701	1081.5	200.85
1051.1701	3222.3922	1080.75	200.95
1051.2719	3223.3137	1078	198
1051.3737	3224.2346	1080.15	199.75
1051.4754	3225.1549	1078.7	200.95
1051.5771	3226.0746	1074.5	195.75
1051.6788	3226.9937	1075.35	195.5
1051.7804	3227.9121	1073.2	195.1
1051.8819	3228.83	1076.65	198.1
1051.9834	3229.7473	1076.95	197
1052.0849	3230.6639	1072.2	191.7
1052.1863	3231.5799	1066.35	188.3
1052.2876	3232.4954	1068.75	187.7
1052.3889	3233.4102	1061.15	185.3
1052.4902	3234.3244	1065.15	183.55
1052.5914	3235.238	1065.65	185.95
1052.6926	3236.151	1089.55	184.3
1052.7937	3237.0634	1059.9	183.6
1052.8948	3237.9752	1059.75	180.95
1052.9958	3238.8864	1058.05	178.85
1053.0968	3239.797	1062.5	184.2
1053.1977	3240.7069	1059.5	179.55
1053.2986	3241.6163	1059.8	179.5
1053.3994	3242.5251	1056.3	177.5
1053.5002	3243.4332	1058.25	180.65
1053.6009	3244.3408	1056.25	176.85
1053.7016	3245.2477	1049.85	171.25
1053.8022	3246.154	1056.3	176.7
1053.9028	3247.0598	1053.65	172.2
1054.0034	3247.9649	1050.6	173.25
1054.1039	3248.8694	1050	170.25
1054.2043	3249.7733	1047.65	168.15
1054.3047	3250.6766	1047.25	166.1
1054.4051	3251.5793	1049.05	169.95
1054.5054	3252.4814	1043.2	164
1054.6056	3253.3829	1043.55	164.7
1054.7058	3254.2838	1044.1	163.15
1054.806	3255.1841	1037.45	160.15
1054.9061	3256.0838	1038.35	159.55
1055.0061	3256.9829	1034.3	157.65
1055.1062	3257.8814	1041.15	160.15
1055.2061	3258.7792	1035.75	153.8
1055.306	3259.6765	1036.7	156.9
1055.4059	3260.5731	1034	154.85
1055.5057	3261.4692	1031.05	151.1
1055.6055	3262.3647	1032.25	153.55
1055.7052	3263.2595	1029.85	150.8
1055.8049	3264.1538	1024.8	144.3
1055.9045	3265.0474	1024.7	143.15
1056.0041	3265.9404	1020.6	141.25
1056.1036	3266.8329	1017.65	139.75
1056.2031	3267.7247	1025.15	137.3
1056.3025	3268.616	1013.5	136.65
1056.4019	3269.5066	1004.7	125.25
1056.5013	3270.3966	1007.55	126
1056.6005	3271.286	1002.75	126.1
