Software Version:	3.9.2.0
Unit SN:	10000200
Spectrometer SN:	6960
Date:	3/26/2024 12:54:56 PM
Data Line Index:	25
Spectral Points:	2048
Integration time (ms):	125
Averages:	20
Delay (ms):	30000
Sequence Number:	1
Processing:	dark subtract
Laser Power (mW):	300
Laser Current (mA):	814
Laser Diode Temp (C):	25
Laser Case Temp (C):	24.9
System Temp (C):	24.9
Spectrometer Temp (C):	22.9
CCD Temp (C):	0.002
Secondary Temp (C):	20.01
Heatsink Temp (C):	21.267
CCDPCB Temp (C):	35.34
SecondaryPCB Temp (C):	28.604

Wavelength	RamanShift	Raw Counts	Dark Subtracted
787.061	30.1047	436.2	21.25
787.2016	32.3739	437.75	26.1
787.3422	34.6426	441.5	28.85
787.4828	36.9109	443.7	30.6
787.6235	39.1787	447.5	27.35
787.7642	41.4461	457.2	34.5
787.9049	43.7131	460.9	34.1
788.0456	45.9796	462.45	32.7
788.1863	48.2456	471.05	39.15
788.3271	50.5112	478.6	40.2
788.4679	52.7764	484.6	45
788.6087	55.0411	489.25	46.65
788.7496	57.3054	495.3	47.3
788.8904	59.5692	500.75	50.5
789.0313	61.8326	508.5	56.85
789.1722	64.0955	518.7	61.65
789.3132	66.3579	525.2	63.3
789.4541	68.6199	538.65	74.7
789.5951	70.8815	553	88
789.7361	73.1426	587.45	117.55
789.8771	75.4032	672.45	196.1
790.0181	77.6634	871.15	392.2
790.1592	79.9231	1343.85	859.55
790.3003	82.1824	2336.55	1848.5
790.4414	84.4412	4027.15	3535.8
790.5825	86.6995	6349.2	5854.05
790.7237	88.9574	8661.95	8163.5
790.8648	91.2148	10335.25	9833.45
791.006	93.4717	11232.05	10725.05
791.1472	95.7282	11596.05	11086.25
791.2885	97.9842	11701.8	11188.75
791.4297	100.2398	11728.5	11213.4
791.571	102.4949	11694.05	11177.55
791.7123	104.7495	11659.45	11137.55
791.8536	107.0036	11569.1	11046.15
791.9949	109.2573	11498.1	10980.3
792.1363	111.5105	11471.1	10946.75
792.2777	113.7632	11351.75	10827.8
792.4191	116.0154	11278.65	10745.9
792.5605	118.2672	11204.55	10675.8
792.7019	120.5185	11079.7	10551.2
792.8434	122.7693	10996.85	10462.15
792.9849	125.0197	10918.55	10383.65
793.1264	127.2696	10833.05	10294.45
793.2679	129.519	10815.2	10273.4
793.4094	131.7679	10737.65	10195.75
793.551	134.0163	10727.7	10180.35
793.6926	136.2642	10709.15	10155.3
793.8342	138.5117	10684.65	10129.7
793.9758	140.7587	10678.2	10123.5
794.1175	143.0052	10653.2	10094.7
794.2591	145.2512	10600.8	10044.05
794.4008	147.4967	10522.45	9964.55
794.5425	149.7417	10461.95	9898.45
794.6842	151.9863	10404.9	9838.95
794.826	154.2304	10365.9	9796.4
794.9677	156.4739	10316.7	9742.4
795.1095	158.717	10318.7	9743.7
795.2513	160.9596	10334.8	9755.45
795.3931	163.2017	10356.15	9775.75
795.535	165.4433	10350.7	9765.8
795.6768	167.6844	10362.05	9777.1
795.8187	169.925	10322.45	9734.6
795.9606	172.1651	10237.1	9645.9
796.1025	174.4047	10171.6	9576.7
796.2445	176.6439	10113.45	9515.9
796.3864	178.8825	10096.3	9493.35
796.5284	181.1206	10061.6	9455.8
796.6704	183.3582	10021.8	9411.4
796.8124	185.5954	10008.45	9398.05
796.9544	187.832	9983.1	9370.1
797.0965	190.0681	9999.1	9384.25
797.2386	192.3037	9996.3	9377.45
797.3806	194.5388	10006.15	9383.25
797.5228	196.7734	10000.95	9376
797.6649	199.0075	10052.8	9423.45
797.807	201.2411	10066.3	9433.35
797.9492	203.4742	10110.4	9481.15
798.0914	205.7068	10120.8	9489.05
798.2336	207.9389	10184.7	9552.85
798.3758	210.1704	10175.5	9538.95
798.518	212.4015	10156.1	9515.35
798.6603	214.632	10147.7	9509.65
798.8025	216.862	10186.15	9557.9
798.9448	219.0915	10128.95	9504.85
799.0871	221.3205	10157.6	9535.9
799.2294	223.549	10177.45	9556.35
799.3718	225.777	10180.5	9564.35
799.5141	228.0044	10177.25	9554.55
799.6565	230.2314	10176.4	9557.25
799.7989	232.4578	10158.45	9536.15
799.9413	234.6837	10140.2	9511.4
800.0837	236.909	10125.25	9495.9
800.2262	239.1339	10125.65	9470.75
800.3687	241.3582	10097.95	9457.35
800.5111	243.582	10116.5	9446.9
800.6536	245.8053	10141.05	9484.25
800.7961	248.0281	10108.45	9455
800.9387	250.2503	10112.85	9452
801.0812	252.472	10107.35	9442.05
801.2238	254.6932	10147.15	9482.15
801.3664	256.9139	10114.25	9447.35
801.509	259.134	10096.8	9425.35
801.6516	261.3536	10132.15	9460.3
801.7942	263.5727	10159.05	9487.05
801.9369	265.7912	10182.85	9511.35
802.0795	268.0092	10236.8	9564.9
802.2222	270.2267	10325.1	9650.1
802.3649	272.4436	10358.15	9682.55
802.5076	274.6601	10386.65	9701.45
802.6504	276.8759	10392.65	9714.45
802.7931	279.0913	10417.45	9734.7
802.9359	281.3061	10456.2	9772.6
803.0787	283.5204	10463.1	9778.35
803.2215	285.7341	10508.8	9822.1
803.3643	287.9473	10563.5	9866.25
803.5071	290.16	10527.6	9830.35
803.6499	292.3721	10497.1	9807.2
803.7928	294.5837	10412.8	9723.05
803.9357	296.7947	10377.85	9688.15
804.0786	299.0052	10336	9643.9
804.2215	301.2152	10290.05	9596.25
804.3644	303.4246	10308.7	9617.75
804.5074	305.6334	10261.5	9569.45
804.6503	307.8418	10275.85	9580.8
804.7933	310.0495	10256.9	9561.1
804.9363	312.2568	10204	9509.9
805.0793	314.4635	10114.05	9416.8
805.2223	316.6696	10074.95	9373.85
805.3653	318.8752	9995.75	9287.4
805.5084	321.0802	9941.6	9241.45
805.6514	323.2847	9928.3	9227
805.7945	325.4887	9909.65	9206.1
805.9376	327.692	9920.8	9218.25
806.0807	329.8949	9952	9246.35
806.2238	332.0972	10005.45	9296.2
806.367	334.2989	10103.35	9392.15
806.5101	336.5001	10074.55	9361.4
806.6533	338.7007	10045.85	9332.95
806.7965	340.9008	10016.1	9301.75
806.9397	343.1003	9951.2	9235.15
807.0829	345.2992	9858.65	9140.65
807.2261	347.4976	9802.3	9082.8
807.3693	349.6955	9773.1	9048.75
807.5126	351.8927	9748.15	9024.25
807.6559	354.0895	9722	8987.1
807.7991	356.2856	9702.95	8977.2
807.9424	358.4812	9661.85	8937
808.0857	360.6763	9687.6	8958.55
808.2291	362.8707	9652.7	8924.1
808.3724	365.0646	9656.3	8924.55
808.5158	367.258	9648.5	8917.25
808.6591	369.4508	9654.8	8917.95
808.8025	371.643	9694.75	8959.85
808.9459	373.8346	9705.6	8967.05
809.0893	376.0257	9779.35	9034.3
809.2327	378.2162	9816.65	9075.3
809.3762	380.4062	9845.35	9099.15
809.5196	382.5956	9778.75	9030.65
809.6631	384.7844	9726.95	8980.35
809.8066	386.9726	9637	8886.65
809.9501	389.1603	9576.85	8829.35
810.0936	391.3474	9588.05	8799.9
810.2371	393.5339	9555	8809.4
810.3806	395.7199	9515.9	8775.4
810.5241	397.9052	9551	8811.2
810.6677	400.09	9567.05	8828.9
810.8113	402.2743	9601.65	8864.5
810.9548	404.4579	9641.45	8902
811.0984	406.641	9724.3	8984
811.2421	408.8235	9749.25	9005.55
811.3857	411.0054	9836.75	9093.7
811.5293	413.1868	9927.4	9181.1
811.673	415.3675	10036	9288.4
811.8166	417.5477	10069.1	9319.35
811.9603	419.7273	10023.45	9269.85
812.104	421.9064	9874.75	9115.6
812.2477	424.0848	9743.55	8988.4
812.3914	426.2627	9621.95	8862.35
812.5351	428.4399	9548.65	8789.6
812.6788	430.6166	9496.25	8731.85
812.8226	432.7928	9423.55	8659.15
812.9663	434.9683	9336.35	8571.65
813.1101	437.1432	9271.3	8505.55
813.2539	439.3176	9244.2	8477.95
813.3977	441.4914	9224.7	8455.7
813.5415	443.6645	9229.1	8458
813.6853	445.8371	9209.25	8440
813.8291	448.0091	9166.9	8397
813.973	450.1806	9150.55	8379.5
814.1168	452.3514	9134.25	8360.6
814.2607	454.5216	9122.05	8340.85
814.4046	456.6913	9106.15	8331.6
814.5485	458.8603	9120.9	8345.8
814.6924	461.0288	9130.5	8356.8
814.8363	463.1967	9103.9	8329.1
814.9802	465.3639	9118.4	8342.9
815.1241	467.5306	9085.65	8307.6
815.2681	469.6967	9093	8313.7
815.412	471.8622	9051.95	8273.5
815.556	474.0271	9040.75	8262.15
815.7	476.1914	9008.5	8227.1
815.844	478.3551	9041.6	8260.05
815.988	480.5182	9043.9	8261.7
816.132	482.6807	9044.9	8261.6
816.276	484.8426	9062.85	8280.8
816.4201	487.0039	9120.9	8339.6
816.5641	489.1647	9202.8	8418.95
816.7082	491.3248	9261	8478.45
816.8522	493.4843	9247.5	8462.85
816.9963	495.6432	9260.75	8476
817.1404	497.8015	9208.8	8421.5
817.2845	499.9592	9180.6	8395.45
817.4286	502.1163	9108.65	8321.15
817.5727	504.2728	9034.55	8247.05
817.7168	506.4287	9017.65	8228.55
817.861	508.5839	8967.25	8178.75
818.0051	510.7386	8998.35	8210.7
818.1493	512.8927	8998.55	8208.3
818.2935	515.0461	8990.1	8200.7
818.4377	517.199	9000	8208.75
818.5818	519.3512	9008.25	8217.65
818.726	521.5029	9109.55	8311.5
818.8703	523.6539	9173.15	8380.4
819.0145	525.8043	9232	8436.45
819.1587	527.9541	9172.55	8376.05
819.303	530.1033	9073	8277.6
819.4472	532.2519	9007.7	8212.25
819.5915	534.3999	8984.55	8187.25
819.7357	536.5472	8967.7	8168.95
819.88	538.694	8959.8	8162.9
820.0243	540.8401	8973.1	8173.4
820.1686	542.9856	8991.1	8191.6
820.3129	545.1305	9012.8	8209.95
820.4572	547.2748	9050.8	8248.8
820.6016	549.4185	9069.2	8265.2
820.7459	551.5615	9040.1	8235.55
820.8902	553.704	9061.25	8257.15
821.0346	555.8458	9047.35	8243.8
821.1789	557.987	9076.85	8276.1
821.3233	560.1276	9143.5	8337.95
821.4677	562.2675	9223.9	8422.85
821.6121	564.4069	9290.95	8488.55
821.7565	566.5456	9362.6	8558.3
821.9009	568.6837	9347.85	8542.7
822.0453	570.8212	9215.3	8411.05
822.1897	572.958	9109.75	8303.4
822.3342	575.0942	9019.15	8216.1
822.4786	577.2299	8945.95	8138.35
822.6231	579.3648	8898.05	8092.3
822.7675	581.4992	8869.5	8062.4
822.912	583.6329	8841.5	8034
823.0565	585.766	8867.45	8058.15
823.201	587.8985	8906.1	8098.55
823.3454	590.0304	8956.75	8136.1
823.4899	592.1616	8980.8	8167.25
823.6345	594.2922	9019.4	8207.9
823.779	596.4222	8959.2	8147.1
823.9235	598.5515	8884.25	8070.65
824.068	600.6802	8810.5	7996.3
824.2126	602.8083	8714.2	7901.35
824.3571	604.9358	8686.7	7872.35
824.5017	607.0626	8690.4	7875.8
824.6462	609.1888	8674.35	7858.6
824.7908	611.3144	8693.2	7875.75
824.9354	613.4393	8708.1	7890.8
825.08	615.5636	8765.8	7949.15
825.2246	617.6873	8836.75	8020.8
825.3692	619.8103	8902.2	8084.65
825.5138	621.9327	8895.15	8074.55
825.6584	624.0544	8871.9	8055.65
825.803	626.1756	8828.6	8011.65
825.9477	628.2961	8713.05	7895.05
826.0923	630.4159	8693.4	7873.9
826.237	632.5351	8653.8	7832.3
826.3816	634.6537	8628.4	7808.65
826.5263	636.7716	8636.05	7813.65
826.6709	638.8889	8622.6	7800.65
826.8156	641.0056	8678.35	7858.1
826.9603	643.1216	8650.5	7827.25
827.105	645.237	8685.25	7861.35
827.2497	647.3518	8652.8	7829.5
827.3944	649.4659	8617.8	7794.9
827.5391	651.5793	8568.9	7743.5
827.6838	653.6922	8537.8	7713.5
827.8285	655.8043	8540.85	7715.6
827.9733	657.9159	8517.6	7691.25
828.118	660.0268	8478.8	7651.15
828.2627	662.137	8448.65	7622.45
828.4075	664.2466	8460	7629.3
828.5522	666.3556	8449.85	7621
828.697	668.4639	8431.45	7600.65
828.8418	670.5716	8444.75	7617.15
828.9865	672.6786	8440.05	7610.5
829.1313	674.785	8398.6	7568.35
829.2761	676.8907	8380.8	7550.1
829.4209	678.9958	8376.7	7546.95
829.5657	681.1002	8370	7539.3
829.7105	683.204	8373.15	7538.6
829.8553	685.3072	8367.4	7535.8
830.0001	687.4097	8349.3	7520.25
830.1449	689.5115	8340.1	7505.55
830.2898	691.6127	8362	7531.35
830.4346	693.7132	8324.2	7491.45
830.5794	695.8131	8339.6	7492.5
830.7243	697.9123	8319.9	7484.7
830.8691	700.0109	8323.25	7488.3
831.014	702.1089	8330.5	7497.55
831.1588	704.2061	8344.55	7509.75
831.3037	706.3028	8383.9	7546.55
831.4486	708.3987	8386.75	7550.55
831.5935	710.4941	8410.2	7574.9
831.7383	712.5887	8418.55	7582.7
831.8832	714.6827	8402.45	7561.3
832.0281	716.7761	8390.3	7551.85
832.173	718.8688	8391.8	7553.75
832.3179	720.9608	8352.9	7511.1
832.4628	723.0522	8369.55	7530.4
832.6077	725.1429	8368.45	7531.15
832.7527	727.233	8417.95	7580.6
832.8976	729.3224	8468.8	7631.25
833.0425	731.4112	8529.55	7688.5
833.1874	733.4993	8572.75	7728.75
833.3324	735.5867	8531.1	7689.95
833.4773	737.6735	8423.8	7582.15
833.6222	739.7596	8343.95	7501.85
833.7672	741.845	8286.55	7446.1
833.9122	743.9298	8265.95	7421.5
834.0571	746.014	8267.2	7425.7
834.2021	748.0974	8290.5	7446.25
834.347	750.1802	8265.85	7421.1
834.492	752.2624	8240.75	7397.35
834.637	754.3439	8203.15	7357.9
834.782	756.4247	8170.25	7316.8
834.9269	758.5048	8133.6	7289.5
835.0719	760.5843	8152.35	7307.6
835.2169	762.6631	8136.25	7292.3
835.3619	764.7413	8209.8	7364.5
835.5069	766.8188	8283.8	7439.5
835.6519	768.8956	8352.15	7505.45
835.7969	770.9718	8447.25	7600.4
835.9419	773.0473	8410	7564.8
836.0869	775.1221	8341.5	7495.8
836.232	777.1962	8305.6	7459.35
836.377	779.2697	8336.15	7489.1
836.522	781.3426	8465.05	7600.55
836.667	783.4147	8544.2	7694.9
836.8121	785.4862	8591.8	7744.85
836.9571	787.557	8466.8	7620.35
837.1021	789.6271	8311.65	7464.45
837.2472	791.6966	8157.35	7308.7
837.3922	793.7654	7996.75	7147.3
837.5373	795.8335	7930.5	7082.85
837.6823	797.901	7840.05	6992.55
837.8274	799.9678	7809.7	6958.4
837.9724	802.0339	7784.7	6936.7
838.1175	804.0993	7795.4	6934.6
838.2626	806.1641	7778.95	6929.95
838.4076	808.2282	7735.2	6887.2
838.5527	810.2916	7729.05	6877.55
838.6978	812.3544	7704.7	6856.15
838.8428	814.4164	7664.7	6815.4
838.9879	816.4778	7665.85	6814.05
839.133	818.5385	7673.6	6824.25
839.2781	820.5986	7716.5	6866.25
839.4232	822.658	7744.55	6891.75
839.5682	824.7166	7831.15	6979.25
839.7133	826.7747	7913.75	7063.6
839.8584	828.832	7994.35	7143.05
840.0035	830.8886	8050.35	7199.25
840.1486	832.9446	8075.65	7222.85
840.2937	834.9999	8036.05	7184.75
840.4388	837.0545	8003.5	7149.9
840.5839	839.1085	7870.65	7018.15
840.729	841.1618	7758.7	6902.4
840.8741	843.2143	7669.7	6816.45
841.0192	845.2662	7591	6737.1
841.1643	847.3175	7559.4	6706.4
841.3095	849.368	7522	6668.7
841.4546	851.4179	7521.35	6666.45
841.5997	853.467	7484.6	6631.2
841.7448	855.5155	7485.5	6629.2
841.8899	857.5633	7492.7	6638.25
842.0351	859.6105	7456.45	6601.35
842.1802	861.6569	7482.35	6627.8
842.3253	863.7027	7411.05	6553.75
842.4704	865.7478	7385.2	6528.65
842.6156	867.7922	7354.05	6498.25
842.7607	869.8359	7322.55	6464
842.9058	871.8789	7333.55	6476.25
843.0509	873.9212	7333.4	6444.75
843.1961	875.9629	7294.75	6439.9
843.3412	878.0039	7325.8	6467.4
843.4863	880.0441	7331	6473.9
843.6315	882.0837	7322.3	6463.8
843.7766	884.1226	7366.8	6506.65
843.9218	886.1609	7381.55	6526.85
844.0669	888.1984	7438.25	6582.05
844.212	890.2352	7514.75	6656.3
844.3572	892.2714	7502.65	6640.95
844.5023	894.3069	7472.7	6613.55
844.6475	896.3416	7376.6	6517.05
844.7926	898.3757	7313.15	6454.1
844.9377	900.4091	7262.7	6403.15
845.0829	902.4418	7241.75	6377.7
845.228	904.4739	7247.15	6387.05
845.3732	906.5052	7276.25	6415.8
845.5183	908.5358	7285.25	6426.85
845.6635	910.5658	7251	6390.65
845.8086	912.595	7185.45	6325.3
845.9538	914.6236	7117.3	6257.25
846.0989	916.6515	7075.35	6216.3
846.2441	918.6786	7027.7	6166.45
846.3892	920.7051	7036.1	6174.45
846.5344	922.7309	7029	6167.95
846.6795	924.756	6971.7	6111.4
846.8246	926.7804	6983.75	6119.85
846.9698	928.8041	6949.65	6086.15
847.1149	930.8272	6978.25	6114.2
847.2601	932.8495	6941.9	6078.55
847.4052	934.8711	6953.3	6089.9
847.5504	936.892	6933.05	6070.2
847.6955	938.9123	6923.65	6059.6
847.8407	940.9318	6973.95	6111.35
847.9858	942.9506	6983.25	6119.3
848.131	944.9688	6940.3	6076.6
848.2761	946.9862	6902.35	6040.25
848.4213	949.003	6858.6	5995
848.5664	951.019	6797.15	5932.8
848.7115	953.0344	6764.8	5901.95
848.8567	955.0491	6743.7	5878.2
849.0018	957.063	6732.6	5866.95
849.147	959.0763	6732.35	5861
849.2921	961.0888	6683.2	5815.65
849.4373	963.1007	6680.9	5815.2
849.5824	965.1119	6659.25	5794.9
849.7275	967.1223	6643.65	5777.5
849.8727	969.1321	6610.55	5746.4
850.0178	971.1412	6595.65	5730.9
850.1629	973.1495	6582.95	5719.8
850.3081	975.1572	6616.1	5703.9
850.4532	977.1641	6563.45	5699.45
850.5983	979.1704	6530.5	5663.55
850.7435	981.1759	6527.2	5658.35
850.8886	983.1808	6520.95	5652.85
851.0337	985.1849	6475.85	5598
851.1788	987.1884	6454.7	5587.4
851.324	989.1911	6440.35	5571.1
851.4691	991.1932	6441.3	5573.3
851.6142	993.1945	6443.7	5576.8
851.7593	995.1951	6399.75	5532.95
851.9045	997.1951	6406.9	5533.8
852.0496	999.1943	6367.1	5502.2
852.1947	1001.1928	6353.05	5485.6
852.3398	1003.1906	6324.35	5459.1
852.4849	1005.1877	6349.25	5480.1
852.63	1007.1841	6367.2	5498.1
852.7751	1009.1798	6351.5	5482
852.9202	1011.1748	6325.7	5456.4
853.0653	1013.1691	6291.55	5423.4
853.2104	1015.1627	6234.85	5363.95
853.3555	1017.1556	6161.45	5293.15
853.5006	1019.1477	6132.6	5263.45
853.6457	1021.1392	6068.3	5202.05
853.7908	1023.1299	6041.6	5171.45
853.9359	1025.12	6017.2	5147.5
854.081	1027.1093	6018.2	5150.15
854.2261	1029.0979	6012.8	5147.4
854.3712	1031.0859	6002.4	5133.65
854.5163	1033.0731	6025.05	5155.1
854.6613	1035.0596	5999.8	5129.95
854.8064	1037.0454	5972.35	5100.5
854.9515	1039.0304	5964	5092.25
855.0965	1041.0148	5927.45	5060.45
855.2416	1042.9985	5873.4	5001.9
855.3867	1044.9814	5843.1	4972.9
855.5317	1046.9636	5815.65	4942.5
855.6768	1048.9452	5792.6	4923.05
855.8219	1050.926	5805.65	4937.75
855.9669	1052.9061	5809.2	4939.85
856.112	1054.8855	5808.15	4936.7
856.257	1056.8642	5787.95	4916.05
856.4021	1058.8421	5804.05	4928.6
856.5471	1060.8194	5787.95	4915.65
856.6921	1062.7959	5756	4883.75
856.8372	1064.7717	5755.45	4882.65
856.9822	1066.7469	5738.5	4865.6
857.1272	1068.7213	5731.4	4858.1
857.2723	1070.695	5719.95	4849.4
857.4173	1072.6679	5739.5	4865.8
857.5623	1074.6402	5744.8	4872.4
857.7073	1076.6117	5773.4	4897.75
857.8523	1078.5826	5742.35	4870.05
857.9973	1080.5527	5683.95	4807.25
858.1423	1082.5221	5641.35	4768.3
858.2873	1084.4908	5572.95	4699.35
858.4323	1086.4587	5542.7	4671.05
858.5773	1088.426	5521.7	4646.35
858.7223	1090.3925	5484.7	4607.15
858.8673	1092.3584	5482.9	4610.9
859.0123	1094.3235	5477.9	4605.85
859.1573	1096.2879	5479.45	4605.65
859.3022	1098.2515	5490.95	4617.1
859.4472	1100.2145	5501.4	4628.8
859.5922	1102.1767	5527.2	4652.4
859.7371	1104.1382	5579.95	4707.3
859.8821	1106.099	5604.5	4728.5
860.027	1108.0591	5691	4818.2
860.172	1110.0185	5721.65	4846.75
860.3169	1111.9771	5771.35	4898.4
860.4619	1113.9351	5798.3	4924.35
860.6068	1115.8923	5860.15	4985.5
860.7517	1117.8488	5928.85	5051.5
860.8967	1119.8045	5886.6	5011.9
861.0416	1121.7596	5792.1	4917.55
861.1865	1123.7139	5606.05	4732.5
861.3314	1125.6675	5485.65	4611.95
861.4763	1127.6204	5468.35	4596.25
861.6212	1129.5726	5488.65	4610.75
861.7661	1131.524	5514.2	4639.15
861.911	1133.4748	5458.95	4585.2
862.0559	1135.4248	5374.45	4500.25
862.2008	1137.3741	5277.35	4403.25
862.3457	1139.3226	5219.85	4342.25
862.4905	1141.2705	5213.1	4337.4
862.6354	1143.2176	5189.55	4309.2
862.7803	1145.164	5219.8	4342
862.9251	1147.1097	5214.7	4339.2
863.07	1149.0546	5174.65	4295.55
863.2148	1150.9989	5137.55	4260.6
863.3597	1152.9424	5106.85	4230.6
863.5045	1154.8852	5063.05	4188.1
863.6493	1156.8272	5065.55	4190.2
863.7942	1158.7686	5053.55	4172.1
863.939	1160.7092	5032.6	4155.3
864.0838	1162.6491	5019.15	4140.85
864.2286	1164.5883	5036.45	4160.9
864.3734	1166.5267	5033.45	4154.7
864.5182	1168.4644	5062.25	4185.45
864.663	1170.4014	5095.65	4212.4
864.8078	1172.3377	5122.5	4246.5
864.9526	1174.2732	5172.4	4294.95
865.0974	1176.2081	5258	4381.6
865.2421	1178.1421	5393.25	4511.75
865.3869	1180.0755	5565	4690.55
865.5317	1182.0082	5676.25	4797.05
865.6764	1183.9401	5706.25	4827.65
865.8212	1185.8713	5577.65	4701.55
865.9659	1187.8017	5424.95	4547.35
866.1106	1189.7315	5245.4	4370.25
866.2554	1191.6605	5128.4	4222.7
866.4001	1193.5888	5019	4142.65
866.5448	1195.5163	4967.45	4091.2
866.6895	1197.4432	4927.7	4048.45
866.8342	1199.3693	4895.8	4018.3
866.9789	1201.2947	4869.1	3986.05
867.1236	1203.2193	4827.95	3949.55
867.2683	1205.1432	4818.75	3939.6
867.413	1207.0664	4802	3923.2
867.5576	1208.9889	4780.2	3899.1
867.7023	1210.9106	4760.75	3882.85
867.847	1212.8316	4757.35	3880.75
867.9916	1214.7519	4756.15	3868.9
868.1363	1216.6715	4747.5	3870.05
868.2809	1218.5903	4769.6	3892.15
868.4255	1220.5084	4782.45	3905.55
868.5701	1222.4257	4790.35	3910.55
868.7148	1224.3424	4772.65	3895.5
868.8594	1226.2583	4776.55	3891.25
869.004	1228.1735	4811.9	3932.7
869.1486	1230.0879	4838.75	3960.05
869.2932	1232.0016	4879.15	4000.1
869.4377	1233.9146	4898.05	4015.75
869.5823	1235.8269	4921.95	4045.25
869.7269	1237.7384	4927.25	4048
869.8715	1239.6492	4900.6	4021.8
870.016	1241.5592	4894.5	4011.3
870.1606	1243.4686	4927.1	4049
870.3051	1245.3772	4998.2	4117.4
870.4496	1247.285	5091.6	4212.45
870.5941	1249.1922	5205.55	4326.35
870.7387	1251.0986	5291.25	4412.2
870.8832	1253.0042	5360.85	4480.2
871.0277	1254.9092	5440.9	4560.5
871.1722	1256.8134	5566	4687.35
871.3167	1258.7169	5706.05	4826.65
871.4611	1260.6196	5798.5	4920
871.6056	1262.5216	5871.35	4990.05
871.7501	1264.4229	5886.8	5009.65
871.8945	1266.3234	5855.05	4973.95
872.039	1268.2232	5767	4884.15
872.1834	1270.1223	5671.25	4789.15
872.3278	1272.0207	5620.95	4739.6
872.4723	1273.9183	5568.5	4681
872.6167	1275.8151	5545.85	4667.65
872.7611	1277.7113	5569.9	4689.25
872.9055	1279.6067	5662.9	4782.8
873.0499	1281.5014	5811.35	4929.45
873.1943	1283.3953	6062.2	5179.5
873.3386	1285.2885	6329.65	5449.5
873.483	1287.181	6585.35	5704.3
873.6274	1289.0727	6709.55	5829.55
873.7717	1290.9637	6651.15	5769.65
873.9161	1292.854	6518.75	5639.05
874.0604	1294.7435	6275.45	5393.65
874.2047	1296.6323	6087.65	5206.7
874.349	1298.5204	5895	5011.45
874.4933	1300.4077	5751.9	4871.05
874.6376	1302.2943	5664.35	4784.35
874.7819	1304.1802	5614.4	4733
874.9262	1306.0653	5563.45	4680.9
875.0705	1307.9497	5508.65	4626.1
875.2147	1309.8333	5473.15	4592.5
875.359	1311.7162	5441.95	4559.2
875.5032	1313.5984	5412.2	4527.55
875.6475	1315.4798	5398.45	4498.5
875.7917	1317.3605	5398	4510.3
875.9359	1319.2405	5394.3	4509.85
876.0801	1321.1197	5419.65	4537.5
876.2243	1322.9982	5384.55	4497.25
876.3685	1324.876	5338.35	4456.75
876.5127	1326.753	5246.4	4364.1
876.6569	1328.6293	5098.75	4216.1
876.801	1330.5048	4969.7	4086.7
876.9452	1332.3796	4844.95	3963.5
877.0893	1334.2537	4732.25	3825.95
877.2335	1336.127	4643.1	3760.2
877.3776	1337.9996	4579.1	3696.65
877.5217	1339.8714	4554.35	3673.75
877.6658	1341.7426	4563.7	3640.35
877.8099	1343.6129	4475.85	3594.55
877.954	1345.4826	4450.05	3568
878.0981	1347.3515	4436.8	3552.9
878.2422	1349.2196	4407.9	3523.65
878.3862	1351.087	4401.1	3520.35
878.5303	1352.9537	4389.1	3505.65
878.6743	1354.8197	4382.25	3500.3
878.8184	1356.6849	4370	3486.1
878.9624	1358.5493	4390.6	3509.05
879.1064	1360.4131	4404.4	3522.85
879.2504	1362.276	4432.65	3550.5
879.3944	1364.1383	4487.55	3607.75
879.5384	1365.9998	4511.95	3624.35
879.6823	1367.8606	4490.75	3607.25
879.8263	1369.7206	4466.55	3584.6
879.9702	1371.5799	4485	3599.8
880.1142	1373.4384	4482.05	3598.95
880.2581	1375.2962	4439.5	3555.8
880.402	1377.1533	4367.35	3484.65
880.5459	1379.0096	4301	3416.55
880.6898	1380.8652	4245.4	3364.15
880.8337	1382.7201	4198.95	3316.3
880.9776	1384.5742	4133.85	3250.25
881.1215	1386.4275	4093.65	3210.3
881.2653	1388.2802	4057.45	3175.15
881.4092	1390.132	4042.7	3160.65
881.553	1391.9832	4024.45	3140.05
881.6968	1393.8336	3997.8	3114.45
881.8406	1395.6832	3996	3111.35
881.9844	1397.5322	3965.05	3082.95
882.1282	1399.3803	3959	3070.6
882.272	1401.2278	3924.25	3041.8
882.4158	1403.0745	3912.95	3028.9
882.5595	1404.9204	3882.55	3000.95
882.7033	1406.7656	3876.4	2992.8
882.847	1408.6101	3865.05	2980.85
882.9908	1410.4538	3841.35	2957.95
883.1345	1412.2968	3846.25	2961.9
883.2782	1414.139	3825.8	2940.9
883.4219	1415.9805	3830.75	2947.4
883.5656	1417.8213	3856.95	2950.5
883.7092	1419.6613	3836.75	2952.05
883.8529	1421.5006	3880.9	2996.05
883.9965	1423.3391	3908.6	3022.55
884.1402	1425.1769	3969.35	3084.8
884.2838	1427.0139	4060.4	3176.05
884.4274	1428.8502	4177.3	3292.05
884.571	1430.6858	4241.65	3356.6
884.7146	1432.5206	4296.8	3412.65
884.8582	1434.3547	4287.8	3400.95
885.0018	1436.188	4255	3371.05
885.1453	1438.0206	4242.7	3357.35
885.2889	1439.8524	4220.5	3337.45
885.4324	1441.6835	4191.5	3305.15
885.5759	1443.5139	4203.1	3316.8
885.7194	1445.3435	4213.35	3329.05
885.8629	1447.1724	4216.25	3332.4
886.0064	1449.0005	4208.45	3322.9
886.1499	1450.8279	4187.5	3301.65
886.2933	1452.6545	4175.4	3292.25
886.4368	1454.4804	4172.7	3290.2
886.5802	1456.3056	4146.3	3254.25
886.7237	1458.13	4121.9	3237.7
886.8671	1459.9536	4108.6	3223.8
887.0105	1461.7766	4061.2	3177.2
887.1539	1463.5987	3993.45	3106.15
887.2972	1465.4202	3937.85	3052.75
887.4406	1467.2409	3881	2996
887.584	1469.0608	3843.4	2958.95
887.7273	1470.88	3793.9	2909.15
887.8706	1472.6984	3747.6	2864.4
888.0139	1474.5161	3709.15	2821.3
888.1572	1476.3331	3666.8	2782.6
888.3005	1478.1493	3662.6	2777.85
888.4438	1479.9648	3639.2	2753.5
888.5871	1481.7795	3640.25	2756.85
888.7303	1483.5935	3633.15	2748.35
888.8736	1485.4067	3638.9	2754.6
889.0168	1487.2192	3635.7	2751.35
889.16	1489.031	3636.6	2747.5
889.3032	1490.842	3638.5	2752.55
889.4464	1492.6522	3624.35	2739.55
889.5896	1494.4618	3604.65	2718.2
889.7327	1496.2705	3597.05	2714.25
889.8759	1498.0785	3588.3	2701.8
890.019	1499.8858	3584.5	2698.35
890.1622	1501.6924	3579.45	2695.45
890.3053	1503.4981	3564.65	2681.05
890.4484	1505.3032	3547	2662.2
890.5914	1507.1075	3536.6	2650.55
890.7345	1508.911	3539.95	2653.65
890.8776	1510.7138	3523.5	2639.8
891.0206	1512.5159	3509.75	2625
891.1637	1514.3172	3489.15	2603.75
891.3067	1516.1178	3466.95	2583.3
891.4497	1517.9176	3468.85	2580.75
891.5927	1519.7166	3449.15	2566.5
891.7357	1521.515	3428.3	2539.05
891.8786	1523.3126	3417.6	2531.45
892.0216	1525.1094	3404.9	2517.95
892.1645	1526.9055	3402.65	2519.25
892.3074	1528.7008	3384.25	2499.45
892.4503	1530.4954	3379.7	2486.65
892.5932	1532.2893	3353.9	2471.2
892.7361	1534.0824	3354.95	2463.8
892.879	1535.8747	3336.55	2449.4
893.0218	1537.6663	3338.45	2452.55
893.1647	1539.4572	3322.75	2435.6
893.3075	1541.2473	3316.75	2429.8
893.4503	1543.0367	3311.2	2426.9
893.5931	1544.8253	3306	2416.85
893.7359	1546.6132	3298.85	2410.75
893.8787	1548.4003	3298.2	2401.9
894.0214	1550.1867	3328.15	2436.6
894.1642	1551.9723	3313.55	2423.15
894.3069	1553.7572	3321.1	2435.65
894.4496	1555.5414	3333.2	2444.8
894.5923	1557.3247	3356.7	2471.4
894.735	1559.1074	3384.6	2501.2
894.8777	1560.8893	3434.6	2549.45
895.0204	1562.6705	3490.2	2602.95
895.163	1564.4509	3515.25	2627.6
895.3056	1566.2305	3548.4	2662.25
895.4482	1568.0094	3557.8	2673.55
895.5908	1569.7876	3563.85	2679.15
895.7334	1571.565	3541.4	2654.05
895.876	1573.3417	3533.45	2649.4
896.0186	1575.1176	3547.2	2662.75
896.1611	1576.8928	3553.7	2666.75
896.3036	1578.6672	3579.75	2694.35
896.4461	1580.4409	3612.8	2727.85
896.5886	1582.2138	3649.7	2759.35
896.7311	1583.986	3704.5	2819.4
896.8736	1585.7575	3772.25	2888.3
897.0161	1587.5282	3812.15	2927.4
897.1585	1589.2981	3852.25	2966.5
897.3009	1591.0673	3875.25	2986.6
897.4433	1592.8358	3863.6	2978.1
897.5857	1594.6035	3871.35	2984.65
897.7281	1596.3704	3838.3	2951.5
897.8705	1598.1366	3807.2	2921.65
898.0128	1599.9021	3770.65	2883.85
898.1551	1601.6668	3722.85	2836.05
898.2975	1603.4308	3659.3	2773.6
898.4398	1605.194	3659.1	2767.85
898.5821	1606.9564	3672.6	2786.7
898.7243	1608.7182	3724.95	2834.55
898.8666	1610.4791	3820.45	2934.55
899.0088	1612.2394	3960.95	3074.35
899.1511	1613.9988	4103.95	3216.9
899.2933	1615.7576	4275.5	3390.1
899.4355	1617.5156	4366.85	3474.75
899.5776	1619.2728	4360.85	3475.3
899.7198	1621.0293	4248	3364.05
899.862	1622.785	4090.1	3202.75
900.0041	1624.54	3919.7	3034.4
900.1462	1626.2942	3732.4	2844.35
900.2883	1628.0477	3549.95	2658.6
900.4304	1629.8005	3428.8	2537.6
900.5725	1631.5525	3315.55	2428.3
900.7145	1633.3037	3219.4	2332.65
900.8566	1635.0542	3164.2	2278.65
900.9986	1636.804	3111.75	2224.7
901.1406	1638.553	3101.85	2166.65
901.2826	1640.3013	3038.2	2150.7
901.4245	1642.0488	2974.85	2085.75
901.5665	1643.7955	2966.85	2081.7
901.7085	1645.5416	2942.9	2057.3
901.8504	1647.2868	2917.3	2032.4
901.9923	1649.0313	2913.55	2027.3
902.1342	1650.7751	2906.75	2018.05
902.2761	1652.5181	2892.3	2006.15
902.4179	1654.2604	2888.2	1999.5
902.5598	1656.0019	2879.7	1994.35
902.7016	1657.7427	2884.15	1997.7
902.8434	1659.4828	2892.95	2007.4
902.9852	1661.222	2925.35	2037.6
903.127	1662.9606	2967.35	2081.8
903.2687	1664.6984	3021.9	2136.6
903.4105	1666.4354	3054.75	2167.75
903.5522	1668.1717	3045.7	2159.65
903.6939	1669.9072	3019.9	2134.85
903.8356	1671.642	2940.45	2050.3
903.9773	1673.3761	2876.85	1990.4
904.119	1675.1094	2816.4	1929.05
904.2606	1676.8419	2765.8	1878
904.4022	1678.5737	2724.3	1838.3
904.5439	1680.3048	2726.45	1840.95
904.6855	1682.0351	2708.95	1822.55
904.827	1683.7646	2683.85	1796.15
904.9686	1685.4934	2690.25	1804.55
905.1101	1687.2215	2672.45	1784.85
905.2517	1688.9488	2653.1	1765.25
905.3932	1690.6754	2634.45	1748.9
905.5347	1692.4012	2630.75	1745.05
905.6761	1694.1263	2627.85	1741.2
905.8176	1695.8506	2628.65	1740.7
905.9591	1697.5742	2615.5	1728.65
906.1005	1699.297	2598.95	1712.75
906.2419	1701.0191	2590.45	1705.1
906.3833	1702.7404	2570.4	1684.25
906.5246	1704.461	2567.7	1679.7
906.666	1706.1808	2562.15	1675.2
906.8073	1707.8999	2561.45	1674.4
906.9487	1709.6182	2558.65	1671.2
907.09	1711.3358	2532.25	1643.05
907.2313	1713.0527	2532.9	1648.1
907.3725	1714.7688	2528.9	1636.25
907.5138	1716.4841	2524.45	1635.85
907.655	1718.1987	2519.85	1626.55
907.7962	1719.9126	2507.5	1620.5
907.9374	1721.6257	2510	1620
908.0786	1723.338	2495.95	1607.7
908.2198	1725.0496	2500.7	1613.8
908.3609	1726.7605	2485.35	1598.4
908.502	1728.4706	2484.25	1595.7
908.6431	1730.18	2469.25	1578.25
908.7842	1731.8886	2466.45	1578
908.9253	1733.5964	2474.8	1583.8
909.0664	1735.3036	2461.8	1572.95
909.2074	1737.0099	2464.1	1577.65
909.3484	1738.7156	2461.7	1574.95
909.4894	1740.4204	2457.6	1568.3
909.6304	1742.1246	2452.15	1564.65
909.7714	1743.8279	2440.8	1551.8
909.9123	1745.5306	2439.9	1550.85
910.0532	1747.2325	2425.95	1540.3
910.1941	1748.9336	2429.85	1543.35
910.335	1750.634	2424.6	1536.15
910.4759	1752.3336	2429.75	1542.4
910.6168	1754.0325	2415.85	1530.15
910.7576	1755.7307	2414.05	1525.9
910.8984	1757.4281	2414.6	1530
911.0392	1759.1247	2415.25	1519.7
911.18	1760.8206	2419.5	1526.25
911.3208	1762.5158	2411.8	1521.4
911.4615	1764.2102	2397.15	1509.85
911.6022	1765.9039	2398.6	1511.3
911.7429	1767.5968	2381.45	1494.15
911.8836	1769.289	2393.65	1505.25
912.0243	1770.9804	2380.35	1492.7
912.1649	1772.6711	2387.25	1501.95
912.3056	1774.361	2372.05	1483
912.4462	1776.0502	2381.8	1491.85
912.5868	1777.7386	2372.95	1482.6
912.7274	1779.4263	2361.95	1474.55
912.8679	1781.1132	2354.85	1466.4
913.0084	1782.7994	2354.65	1467.15
913.149	1784.4849	2358.8	1471.4
913.2895	1786.1696	2345.15	1452.5
913.4299	1787.8535	2346.15	1457.75
913.5704	1789.5367	2342.05	1454.05
913.7108	1791.2192	2333.8	1447.55
913.8513	1792.9009	2340.3	1437.25
913.9917	1794.5818	2331.15	1443.25
914.132	1796.2621	2326.3	1439.9
914.2724	1797.9415	2324.85	1438.7
914.4128	1799.6202	2313.85	1427.2
914.5531	1801.2982	2293.25	1405.25
914.6934	1802.9755	2303	1413.75
914.8337	1804.6519	2316.25	1427.65
914.9739	1806.3277	2304.9	1419.35
915.1142	1808.0027	2287.9	1400.6
915.2544	1809.6769	2303.35	1415.95
915.3946	1811.3504	2281.15	1392.95
915.5348	1813.0231	2279.35	1391.6
915.675	1814.6951	2274.95	1387.85
915.8151	1816.3664	2284.35	1395.35
915.9553	1818.0369	2272.35	1386.2
916.0954	1819.7067	2260.95	1374.6
916.2355	1821.3757	2270.55	1379.9
916.3755	1823.044	2260.9	1373.45
916.5156	1824.7115	2257.2	1371.15
916.6556	1826.3783	2248.9	1361.8
916.7956	1828.0443	2245.85	1358.5
916.9356	1829.7096	2256.75	1370.15
917.0756	1831.3741	2241.05	1349.5
917.2155	1833.0379	2238.55	1351.45
917.3555	1834.701	2235.65	1345.35
917.4954	1836.3633	2234.1	1342.7
917.6353	1838.0248	2231.45	1341.9
917.7751	1839.6856	2228.3	1339.95
917.915	1841.3457	2238.65	1351.65
918.0548	1843.005	2223.05	1337.85
918.1946	1844.6636	2220.65	1335
918.3344	1846.3214	2218.3	1331.6
918.4742	1847.9785	2214.15	1326.4
918.6139	1849.6349	2214.2	1326.95
918.7537	1851.2904	2217.45	1322.4
918.8934	1852.9453	2203.6	1316.85
919.0331	1854.5994	2197.25	1308.45
919.1727	1856.2528	2200.35	1307.35
919.3124	1857.9054	2193.4	1306.8
919.452	1859.5572	2187.4	1299.75
919.5916	1861.2083	2187.85	1299
919.7312	1862.8587	2183.95	1297.6
919.8708	1864.5084	2193.35	1304.3
920.0103	1866.1572	2185.75	1299.75
920.1498	1867.8054	2169.7	1281.5
920.2893	1869.4528	2170.6	1284
920.4288	1871.0994	2171.1	1285.15
920.5683	1872.7453	2168.2	1279.25
920.7077	1874.3905	2163.75	1267.9
920.8471	1876.0349	2160.6	1274.05
920.9865	1877.6786	2160.35	1270.1
921.1259	1879.3215	2155.95	1269.95
921.2653	1880.9637	2150.3	1262.4
921.4046	1882.6051	2148.2	1259.4
921.5439	1884.2458	2153.35	1263.4
921.6832	1885.8858	2140.5	1253.5
921.8225	1887.525	2138.9	1251.6
921.9617	1889.1634	2138.4	1250.85
922.101	1890.8011	2132.45	1244.3
922.2402	1892.4381	2132.7	1245.4
922.3794	1894.0743	2132.5	1247.15
922.5185	1895.7098	2121.1	1235.2
922.6577	1897.3446	2118.5	1229.05
922.7968	1898.9786	2121.75	1229.7
922.9359	1900.6118	2116.15	1229.35
923.075	1902.2443	2101	1213
923.214	1903.8761	2105.1	1218.35
923.3531	1905.5071	2096.1	1207.6
923.4921	1907.1374	2095.2	1206.55
923.6311	1908.7669	2099.85	1212.05
923.77	1910.3957	2094.95	1207.3
923.909	1912.0237	2088.1	1198.5
924.0479	1913.651	2080.15	1190.4
924.1868	1915.2776	2083.5	1197.45
924.3257	1916.9034	2076.2	1189.65
924.4646	1918.5285	2053.9	1166.95
924.6034	1920.1528	2069.25	1180.5
924.7422	1921.7764	2063.7	1175.35
924.881	1923.3992	2062.4	1173.5
925.0198	1925.0213	2051.5	1163.95
925.1586	1926.6427	2043.3	1156.25
925.2973	1928.2633	2131.15	1125.1
925.436	1929.8832	2054.9	1164.7
925.5747	1931.5023	2046.5	1159.35
925.7134	1933.1207	2032.6	1146
925.852	1934.7383	2030.65	1142.9
925.9906	1936.3552	2025.5	1137.5
926.1292	1937.9714	2014.85	1127.1
926.2678	1939.5868	2029.45	1138.2
926.4064	1941.2015	2014.3	1125.55
926.5449	1942.8154	2004.15	1115.75
926.6834	1944.4286	1998.8	1111.25
926.8219	1946.041	2020.9	1109.25
926.9604	1947.6528	2002.75	1109.95
927.0988	1949.2637	1998.05	1111.6
927.2372	1950.8739	1983.2	1094.8
927.3756	1952.4834	1985.25	1096.55
927.514	1954.0921	1994.9	1107.4
927.6523	1955.7001	1987.35	1094.6
927.7907	1957.3074	1977.6	1090.2
927.929	1958.9139	1971.65	1084.7
928.0673	1960.5197	1974	1084.7
928.2055	1962.1247	1963.7	1076.5
928.3438	1963.729	1962.2	1076.45
928.482	1965.3325	1985	1072.85
928.6202	1966.9353	1963.9	1076.15
928.7584	1968.5374	1957.75	1068.75
928.8965	1970.1387	1952.2	1065.9
929.0346	1971.7393	1944.75	1055.2
929.1727	1973.3392	1940.2	1053.55
929.3108	1974.9383	1938.95	1053.2
929.4489	1976.5366	1928	1039.1
929.5869	1978.1342	1940.25	1050.95
929.7249	1979.7311	1930.4	1039.45
929.8629	1981.3273	1924.55	1035.45
930.0009	1982.9227	1923.5	1033.6
930.1388	1984.5173	1926.8	1040.45
930.2767	1986.1112	1916.4	1027.8
930.4146	1987.7044	1904.65	1017.65
930.5525	1989.2968	1905.9	1017.65
930.6904	1990.8885	1904.5	1012.45
930.8282	1992.4795	1907.1	1015.05
930.966	1994.0697	1901.75	1014.1
931.1038	1995.6592	1897.8	1009.45
931.2415	1997.2479	1895.45	1007.4
931.3793	1998.8359	1902.7	1016.15
931.517	2000.4232	1886.6	1000.35
931.6547	2002.0097	1881.9	995.4
931.7923	2003.5955	1870.5	982.7
931.93	2005.1805	1882.5	992.25
932.0676	2006.7648	1876.45	988.45
932.2052	2008.3484	1873.75	983.05
932.3427	2009.9312	1878.8	987.1
932.4803	2011.5133	1865.2	978.7
932.6178	2013.0946	1874.05	986.55
932.7553	2014.6752	1858.95	971.9
932.8928	2016.2551	1858.6	973.2
933.0302	2017.8342	1854.45	965.55
933.1676	2019.4126	1852.35	967
933.305	2020.9902	1853.3	964.7
933.4424	2022.5672	1861.7	971.8
933.5798	2024.1433	1862.7	969.7
933.7171	2025.7188	1838.45	951
933.8544	2027.2935	1847.55	960.5
933.9917	2028.8674	1836.45	948.1
934.129	2030.4406	1829.85	943.55
934.2662	2032.0131	1834.7	947.95
934.4034	2033.5849	1830.4	941.7
934.5406	2035.1559	1827.15	940.65
934.6778	2036.7261	1825.4	939.6
934.8149	2038.2957	1833.25	946.65
934.952	2039.8645	1815.3	929.3
935.0891	2041.4325	1824.15	933.75
935.2262	2042.9998	1816.95	928.35
935.3632	2044.5664	1821.25	931.9
935.5002	2046.1323	1822.8	934.5
935.6372	2047.6974	1810.35	922.85
935.7742	2049.2617	1807.2	920.3
935.9111	2050.8254	1827.4	919.1
936.048	2052.3883	1805.65	917.3
936.1849	2053.9504	1809.6	920.8
936.3218	2055.5118	1799.25	909.7
936.4586	2057.0725	1801.7	910.9
936.5955	2058.6325	1798	911.4
936.7323	2060.1917	1784.95	897.65
936.869	2061.7502	1794.25	903.65
937.0058	2063.3079	1795	906.05
937.1425	2064.8649	1787.45	896.45
937.2792	2066.4212	1790.4	899.4
937.4159	2067.9767	1790.6	903.45
937.5525	2069.5315	1777	889.05
937.6891	2071.0856	1785.85	897.75
937.8257	2072.6389	1773.2	883.05
937.9623	2074.1915	1769.45	882.3
938.0989	2075.7433	1767.55	878.2
938.2354	2077.2945	1762.5	873.35
938.3719	2078.8448	1749.8	862
938.5084	2080.3945	1759.5	872.3
938.6448	2081.9434	1757.8	870.85
938.7812	2083.4916	1756.95	868.25
938.9176	2085.039	1750.6	861.65
939.054	2086.5857	1746.8	855.8
939.1903	2088.1317	1754.1	868.15
939.3267	2089.677	1751.3	863.95
939.463	2091.2215	1748.5	861.35
939.5992	2092.7652	1746.5	856.75
939.7355	2094.3083	1740.7	852.8
939.8717	2095.8506	1739.8	853.75
940.0079	2097.3921	1733.25	848.55
940.1441	2098.933	1747.4	861.1
940.2802	2100.4731	1729.8	844.65
940.4163	2102.0124	1745.2	840.3
940.5524	2103.5511	1729.3	840.45
940.6885	2105.089	1731.3	842.1
940.8245	2106.6261	1730.95	842.6
940.9606	2108.1626	1725	836.8
941.0965	2109.6983	1747.1	829.75
941.2325	2111.2332	1729.3	840.95
941.3684	2112.7675	1733.55	843.85
941.5044	2114.301	1726.45	835.45
941.6403	2115.8337	1719.5	830.4
941.7761	2117.3657	1721.2	835.35
941.912	2118.897	1717.9	830.05
942.0478	2120.4276	1711.55	817.7
942.1835	2121.9575	1709.25	819.15
942.3193	2123.4866	1725.85	823.35
942.455	2125.0149	1707.35	817.1
942.5907	2126.5426	1703.9	817
942.7264	2128.0695	1705.5	814.65
942.8621	2129.5956	1699.75	813.55
942.9977	2131.1211	1707.4	814.65
943.1333	2132.6458	1701.55	814.4
943.2689	2134.1698	1698.75	811.25
943.4044	2135.693	1699.95	809.85
943.54	2137.2155	1691.7	802.7
943.6755	2138.7373	1689.95	801.8
943.8109	2140.2584	1689.85	802.8
943.9464	2141.7787	1688.8	795.75
944.0818	2143.2983	1680.05	792.2
944.2172	2144.8171	1670.15	784.95
944.3526	2146.3353	1684.35	796
944.4879	2147.8527	1670.2	783.95
944.6232	2149.3693	1668.65	780.1
944.7585	2150.8853	1669.55	781.25
944.8938	2152.4005	1666.15	778.1
945.029	2153.9149	1656.6	767.8
945.1642	2155.4287	1760.5	772.2
945.2994	2156.9417	1678.25	787.4
945.4346	2158.454	1664.05	775.35
945.5697	2159.9655	1659.05	771
945.7048	2161.4764	1664.6	777.75
945.8399	2162.9865	1655.45	768.7
945.9749	2164.4958	1650.55	762.55
946.1099	2166.0045	1643.4	753.35
946.2449	2167.5124	1649.3	761.2
946.3799	2169.0195	1649.65	762.95
946.5148	2170.526	1646	758.5
946.6498	2172.0317	1637.9	750.95
946.7846	2173.5367	1637.25	748.2
946.9195	2175.0409	1639.25	752.15
947.0543	2176.5445	1642	755.7
947.1891	2178.0473	1641.2	753.5
947.3239	2179.5494	1634.15	741.1
947.4587	2181.0507	1632.5	745.6
947.5934	2182.5513	1629.5	741.6
947.7281	2184.0512	1631.8	746.9
947.8628	2185.5504	1615	728.25
947.9974	2187.0488	1616.5	729.05
948.132	2188.5465	1620.15	730.7
948.2666	2190.0435	1612.85	725.6
948.4012	2191.5397	1626.35	739.45
948.5357	2193.0353	1612.55	725
948.6702	2194.5301	1615.45	728.1
948.8047	2196.0241	1608.55	718.8
948.9392	2197.5175	1604.1	718.75
949.0736	2199.0101	1602.55	711.9
949.208	2200.502	1598.25	712.55
949.3424	2201.9931	1591.45	707.05
949.4767	2203.4835	1593.95	706
949.611	2204.9733	1603.4	698.5
949.7453	2206.4622	1595.05	706.9
949.8796	2207.9505	1594.35	704.95
950.0138	2209.438	1584.2	699.95
950.148	2210.9248	1580.4	691.35
950.2822	2212.4109	1578	690.65
950.4164	2213.8962	1582.05	692.05
950.5505	2215.3809	1581.15	693
950.6846	2216.8648	1577.05	687.85
950.8186	2218.3479	1574.05	683.7
950.9527	2219.8304	1573.95	683.8
951.0867	2221.3121	1568.55	678.95
951.2207	2222.7931	1560.85	675.2
951.3546	2224.2733	1563.2	672
951.4886	2225.7529	1556.65	667
951.6225	2227.2317	1568.3	679
951.7563	2228.7098	1561.05	672.15
951.8902	2230.1872	1552	663.75
952.024	2231.6638	1548.4	660.25
952.1578	2233.1397	1555.1	663.15
952.2916	2234.6149	1545.95	657.35
952.4253	2236.0894	1549.75	661.7
952.559	2237.5632	1550.65	662.8
952.6927	2239.0362	1544.15	656
952.8263	2240.5085	1541.45	654.15
952.9599	2241.9801	1534.75	646.85
953.0935	2243.4509	1539.55	652.75
953.2271	2244.921	1526.25	639.3
953.3606	2246.3904	1535.85	646.5
953.4941	2247.8591	1529.8	642.6
953.6276	2249.3271	1523.05	635.3
953.7611	2250.7943	1521.45	634.85
953.8945	2252.2608	1516.75	629.2
954.0279	2253.7266	1516.55	629.25
954.1612	2255.1917	1517.4	628.95
954.2946	2256.656	1516.35	628.75
954.4279	2258.1197	1514.05	625.6
954.5612	2259.5826	1512.75	621.2
954.6944	2261.0447	1509.85	621.8
954.8276	2262.5062	1515.7	627.05
954.9608	2263.9669	1515.8	627.8
955.094	2265.4269	1519.8	631.5
955.2271	2266.8862	1503.85	615.35
955.3602	2268.3448	1505.4	617.05
955.4933	2269.8026	1497.25	608.95
955.6264	2271.2598	1499.7	612.55
955.7594	2272.7162	1497.3	611.4
955.8924	2274.1719	1498.35	610.25
956.0253	2275.6268	1492.75	606.7
956.1583	2277.0811	1487.5	599.85
956.2912	2278.5346	1495.95	607.55
956.4241	2279.9874	1490.95	603.7
956.5569	2281.4395	1493	607
956.6897	2282.8908	1494	602.05
956.8225	2284.3414	1490.55	602.15
956.9553	2285.7914	1483.6	595.4
957.088	2287.2406	1480.25	590.95
957.2207	2288.689	1487	597.25
957.3534	2290.1368	1485.1	598.2
957.486	2291.5838	1471.35	582.9
957.6186	2293.0302	1474	584.25
957.7512	2294.4758	1476.1	589
957.8838	2295.9206	1481.65	592.55
958.0163	2297.3648	1463.45	576.2
958.1488	2298.8082	1481.8	592.35
958.2813	2300.251	1461.85	575.1
958.4137	2301.693	1467.35	576.55
958.5461	2303.1343	1462.4	575.9
958.6785	2304.5748	1460.45	573.1
958.8108	2306.0147	1460.35	572.7
958.9432	2307.4538	1460.75	572.7
959.0754	2308.8922	1460	574.55
959.2077	2310.3299	1466.7	579.75
959.3399	2311.7669	1446.35	558.95
959.4721	2313.2031	1451.55	565.1
959.6043	2314.6387	1445	556.8
959.7365	2316.0735	1443.55	555.65
959.8686	2317.5076	1451.9	563.8
960.0006	2318.941	1444.25	557.55
960.1327	2320.3737	1445.1	558.05
960.2647	2321.8056	1447.6	559.5
960.3967	2323.2369	1442.15	552.75
960.5287	2324.6674	1439.45	550.3
960.6606	2326.0972	1448.25	557.4
960.7925	2327.5263	1444.65	556.2
960.9244	2328.9547	1437.5	548.15
961.0562	2330.3823	1438.15	550.4
961.1881	2331.8092	1437.35	546.2
961.3198	2333.2355	1436.15	548.85
961.4516	2334.661	1432.15	543.75
961.5833	2336.0858	1423.5	534.55
961.715	2337.5098	1420.8	533.2
961.8467	2338.9332	1421.4	531.7
961.9783	2340.3558	1422.35	529.3
962.1099	2341.7778	1416.9	528.5
962.2415	2343.199	1422.75	532.5
962.373	2344.6195	1411.3	522.9
962.5045	2346.0393	1417.95	531.05
962.636	2347.4583	1412.25	523.2
962.7675	2348.8767	1414.45	525.85
962.8989	2350.2943	1406.85	518.95
963.0303	2351.7113	1413.4	525.35
963.1617	2353.1275	1411.35	524.35
963.293	2354.543	1426.4	515.75
963.4243	2355.9578	1406.7	518.1
963.5556	2357.3718	1404.7	516.6
963.6868	2358.7852	1398.4	506
963.818	2360.1978	1402.05	514
963.9492	2361.6098	1400.35	512.45
964.0803	2363.021	1397.65	508
964.2114	2364.4315	1393.2	507.4
964.3425	2365.8413	1392.6	503
964.4736	2367.2504	1391.95	504.65
964.6046	2368.6587	1390.55	502.25
964.7356	2370.0664	1386.05	496.65
964.8666	2371.4733	1387.1	499.2
964.9975	2372.8795	1386.8	497.85
965.1284	2374.285	1382.35	493.1
965.2593	2375.6899	1381.3	493.7
965.3901	2377.0939	1380	493.3
965.5209	2378.4973	1374.5	484.95
965.6517	2379.9	1377.95	487.85
965.7825	2381.3019	1378.65	489.45
965.9132	2382.7032	1372.15	485.7
966.0439	2384.1037	1371.55	486.15
966.1745	2385.5035	1363.1	474.95
966.3051	2386.9027	1371.9	484.15
966.4357	2388.3011	1372.2	480.65
966.5663	2389.6987	1368.7	480.35
966.6968	2391.0957	1358.55	471.1
966.8273	2392.492	1363.9	477.65
966.9578	2393.8876	1359.9	471.05
967.0882	2395.2824	1356.35	467.95
967.2186	2396.6765	1359.95	473.1
967.349	2398.07	1350.35	462.35
967.4793	2399.4627	1353.65	464.25
967.6097	2400.8547	1348.6	458.85
967.7399	2402.246	1359.85	466.7
967.8702	2403.6366	1346.3	458.85
968.0004	2405.0265	1342.6	453.5
968.1306	2406.4156	1346.9	455.3
968.2607	2407.8041	1344.1	451.6
968.3909	2409.1918	1342.2	453.25
968.521	2410.5789	1337.85	449.85
968.651	2411.9652	1337.85	447.95
968.781	2413.3508	1337.3	450.7
968.911	2414.7358	1328.5	440.6
969.041	2416.12	1336	447.05
969.1709	2417.5035	1329.45	441.8
969.3008	2418.8863	1327.95	436.95
969.4307	2420.2684	1325.1	438.45
969.5606	2421.6497	1318.95	429.25
969.6904	2423.0304	1319.15	430.15
969.8201	2424.4104	1321.8	433.7
969.9499	2425.7896	1317.8	427.75
970.0796	2427.1682	1320.7	432.35
970.2093	2428.546	1317.2	428.45
970.3389	2429.9232	1315.55	426.1
970.4685	2431.2996	1320.6	432.85
970.5981	2432.6753	1315.95	428.25
970.7277	2434.0503	1317.4	430.1
970.8572	2435.4246	1306.6	419.35
970.9867	2436.7982	1309.9	420.05
971.1161	2438.1711	1305.2	417.4
971.2456	2439.5433	1307.4	417.55
971.375	2440.9148	1307	413.85
971.5043	2442.2856	1298.4	410.85
971.6336	2443.6557	1303.95	414.85
971.7629	2445.025	1296.5	409.75
971.8922	2446.3937	1302.35	413.95
972.0214	2447.7617	1301.6	410.75
972.1506	2449.1289	1299.85	410.5
972.2798	2450.4955	1301.25	409.15
972.4089	2451.8613	1294.1	404.95
972.538	2453.2265	1294.7	406.5
972.6671	2454.5909	1294.2	405.7
972.7961	2455.9546	1288.8	401.75
972.9251	2457.3177	1283.05	396.2
973.0541	2458.68	1298.55	409.3
973.1831	2460.0416	1287.5	398.95
973.312	2461.4025	1290.75	402
973.4408	2462.7627	1297.75	398.15
973.5697	2464.1222	1282.9	394.6
973.6985	2465.4811	1287.55	399.3
973.8273	2466.8392	1279.25	390
973.956	2468.1966	1283.65	393.45
974.0847	2469.5533	1285.25	395.15
974.2134	2470.9093	1281.4	393.4
974.3421	2472.2645	1280.8	392.05
974.4707	2473.6191	1276.15	388.35
974.5993	2474.973	1272.15	384.25
974.7278	2476.3262	1273.45	384
974.8563	2477.6787	1273.05	385.4
974.9848	2479.0305	1267.95	379.9
975.1132	2480.3816	1274.55	384.25
975.2417	2481.7319	1271.25	381.7
975.37	2483.0816	1267.1	378.45
975.4984	2484.4306	1271.35	382.7
975.6267	2485.7789	1265	378.35
975.755	2487.1264	1265.7	375.35
975.8833	2488.4733	1256.6	370.2
976.0115	2489.8195	1274.85	381
976.1397	2491.165	1264.7	374.5
976.2678	2492.5097	1257.65	367.1
976.3959	2493.8538	1252.05	364.15
976.524	2495.1972	1255.3	368.15
976.6521	2496.5398	1255.7	365.05
976.7801	2497.8818	1250.65	360
976.9081	2499.2231	1250.5	362.95
977.036	2500.5637	1248.7	359.45
977.164	2501.9035	1252.85	362.65
977.2918	2503.2427	1251.7	359.95
977.4197	2504.5812	1247.05	359.65
977.5475	2505.919	1246.55	356.2
977.6753	2507.256	1247.9	360.1
977.8031	2508.5924	1240.1	350.35
977.9308	2509.9281	1249.45	354.95
978.0585	2511.2631	1243.3	354.5
978.1861	2512.5974	1238.95	349.75
978.3137	2513.9309	1231.15	342.95
978.4413	2515.2638	1267.3	356.1
978.5689	2516.596	1235.85	346.85
978.6964	2517.9275	1229.4	338.95
978.8239	2519.2583	1235.3	346.4
978.9513	2520.5884	1235.9	345.75
979.0788	2521.9178	1229.05	341.3
979.2062	2523.2465	1229.9	343.25
979.3335	2524.5745	1226.85	340.2
979.4608	2525.9018	1222.4	335.25
979.5881	2527.2284	1224.25	338.05
979.7154	2528.5543	1221.35	333.1
979.8426	2529.8796	1221.4	331.45
979.9698	2531.2041	1223.85	333.25
980.0969	2532.5279	1219.65	331.6
980.224	2533.851	1220.8	333.05
980.3511	2535.1735	1217.7	329.7
980.4781	2536.4952	1223.1	335.9
980.6052	2537.8163	1220.6	331.35
980.7321	2539.1366	1214.75	328.15
980.8591	2540.4562	1215.45	326
980.986	2541.7752	1214.35	327.2
981.1129	2543.0935	1214.7	324.55
981.2397	2544.411	1216.95	327.5
981.3665	2545.7279	1211.15	324.25
981.4933	2547.0441	1210.45	323.8
981.62	2548.3596	1214.9	322.95
981.7467	2549.6744	1211.2	323.7
981.8734	2550.9885	1214.75	318.15
982.0001	2552.3019	1205.75	316.05
982.1267	2553.6146	1209.95	321.4
982.2532	2554.9266	1206.85	319
982.3798	2556.2379	1210.4	320.55
982.5063	2557.5485	1203.2	317.5
982.6327	2558.8585	1209.6	315.65
982.7592	2560.1677	1205.8	313.5
982.8856	2561.4762	1202.9	315.05
983.0119	2562.7841	1208.1	315.45
983.1383	2564.0913	1197.35	310.55
983.2646	2565.3977	1198.6	310.05
983.3908	2566.7035	1200.05	311.7
983.517	2568.0086	1199.3	311.3
983.6432	2569.313	1196.9	307.3
983.7694	2570.6167	1197.3	306.6
983.8955	2571.9197	1195.6	308.9
984.0216	2573.222	1198.95	307.8
984.1476	2574.5236	1195.1	308.1
984.2737	2575.8246	1199.05	308.15
984.3996	2577.1248	1198.95	307.9
984.5256	2578.4244	1196.75	308.7
984.6515	2579.7232	1192	303.45
984.7774	2581.0214	1223.5	305.05
984.9032	2582.3189	1189.05	301.7
985.029	2583.6157	1202.4	301.1
985.1548	2584.9118	1195.35	307.35
985.2806	2586.2072	1186.55	299.8
985.4063	2587.5019	1187.35	299.45
985.5319	2588.7959	1189.95	304.55
985.6576	2590.0893	1183.7	293.75
985.7832	2591.3819	1190.5	304.2
985.9087	2592.6739	1181.15	293.9
986.0343	2593.9652	1187.85	298.4
986.1597	2595.2557	1181.9	293.55
986.2852	2596.5456	1185.65	294.15
986.4106	2597.8348	1180.15	294.35
986.536	2599.1234	1183.2	294.5
986.6614	2600.4112	1178.65	291.15
986.7867	2601.6983	1185.25	295.5
986.912	2602.9848	1180.65	292.85
987.0372	2604.2705	1183.25	289.8
987.1624	2605.5556	1178.55	290.95
987.2876	2606.84	1178.65	291.55
987.4128	2608.1237	1179.05	290.75
987.5379	2609.4067	1173.7	286.45
987.6629	2610.689	1178.9	281.6
987.788	2611.9707	1173.7	280.95
987.913	2613.2516	1176.6	284.45
988.0379	2614.5319	1169.5	282.1
988.1629	2615.8115	1160.2	272.95
988.2878	2617.0903	1166	277.45
988.4126	2618.3685	1164.6	276.6
988.5375	2619.6461	1165.5	277.5
988.6622	2620.9229	1166.85	279
988.787	2622.199	1166.4	278.1
988.9117	2623.4745	1160.45	270.3
989.0364	2624.7493	1161.3	273.8
989.161	2626.0234	1157.4	271.05
989.2857	2627.2968	1157.8	269.9
989.4102	2628.5695	1153.5	265.35
989.5348	2629.8415	1156.55	269
989.6593	2631.1128	1154.25	265.15
989.7837	2632.3835	1155	267.6
989.9082	2633.6535	1148.85	262.85
990.0326	2634.9228	1148.35	259.9
990.1569	2636.1914	1153.05	263.05
990.2812	2637.4593	1154.6	259.35
990.4055	2638.7265	1155.05	266.1
990.5298	2639.9931	1149.05	261.05
990.654	2641.259	1150.55	260.9
990.7782	2642.5242	1150.2	262.05
990.9023	2643.7887	1140.2	251
991.0264	2645.0525	1141.15	252.05
991.1505	2646.3156	1154.95	251.85
991.2745	2647.5781	1139.35	252.9
991.3985	2648.8398	1142.55	255.1
991.5225	2650.1009	1149.1	253.95
991.6464	2651.3613	1138.4	250.7
991.7703	2652.6211	1143.25	255.85
991.8942	2653.8801	1138.5	251.95
992.018	2655.1385	1138.3	247.6
992.1418	2656.3961	1137.75	250.15
992.2655	2657.6531	1134.5	246.45
992.3892	2658.9094	1132.95	244
992.5129	2660.1651	1131.6	242.65
992.6366	2661.42	1135.35	247.35
992.7602	2662.6743	1134.85	247.1
992.8837	2663.9279	1130.55	242.55
993.0073	2665.1808	1132	243.45
993.1307	2666.433	1133.7	245.95
993.2542	2667.6846	1131.75	244.1
993.3776	2668.9354	1128.5	238.45
993.501	2670.1856	1133.9	244.1
993.6244	2671.4351	1128.9	241
993.7477	2672.6839	1131.5	240.3
993.8709	2673.9321	1131.55	242.25
993.9942	2675.1795	1132	244.45
994.1174	2676.4263	1131.9	244.45
994.2405	2677.6724	1128.4	240.25
994.3637	2678.9179	1129.7	238.45
994.4868	2680.1626	1128.45	241
994.6098	2681.4067	1130.35	242.4
994.7328	2682.6501	1125	237.3
994.8558	2683.8928	1122.9	236.4
994.9788	2685.1348	1124.5	234.45
995.1017	2686.3761	1124	235.3
995.2245	2687.6168	1119.15	232.05
995.3474	2688.8568	1119.75	231.3
995.4702	2690.0961	1116.1	228.2
995.5929	2691.3348	1116.8	229.8
995.7156	2692.5727	1112.1	225
995.8383	2693.81	1112.2	224.85
995.961	2695.0466	1107.85	220.65
996.0836	2696.2826	1113.9	225.55
996.2062	2697.5178	1116.65	226.35
996.3287	2698.7524	1109.2	221.25
996.4512	2699.9863	1111.45	219.75
996.5737	2701.2195	1111.1	224.25
996.6961	2702.452	1114.35	224.15
996.8185	2703.6839	1111.85	223.3
996.9408	2704.9151	1111.95	223.5
997.0631	2706.1456	1110.95	223.95
997.1854	2707.3755	1108.8	220.7
997.3077	2708.6046	1112.25	222.15
997.4299	2709.8331	1108.9	221.1
997.552	2711.0609	1108.35	220.9
997.6742	2712.2881	1106.9	219.45
997.7963	2713.5145	1112.9	220.2
997.9183	2714.7403	1108.95	220.75
998.0403	2715.9654	1111.8	220.5
998.1623	2717.1899	1128.85	228.25
998.2842	2718.4136	1114.9	226.65
998.4062	2719.6367	1114.45	228.2
998.528	2720.8591	1121.5	226.85
998.6498	2722.0809	1114	224.15
998.7716	2723.3019	1114.2	222.1
998.8934	2724.5223	1114.8	225.45
999.0151	2725.7421	1113.1	221.95
999.1368	2726.9611	1113.1	223.7
999.2584	2728.1795	1111.45	219.35
999.38	2729.3972	1109.5	220.25
999.5016	2730.6142	1111.9	210.75
999.6231	2731.8306	1102.5	212.25
999.7446	2733.0462	1105.85	214.5
999.8661	2734.2612	1103.75	212.5
999.9875	2735.4756	1097.35	207.45
1000.1089	2736.6892	1093	205.15
1000.2302	2737.9022	1090.6	205.6
1000.3515	2739.1145	1092.85	205.6
1000.4728	2740.3262	1103	206
1000.594	2741.5372	1084.9	197.15
1000.7152	2742.7475	1089.35	201.45
1000.8363	2743.9571	1085.3	197.25
1000.9575	2745.1661	1089.2	195.45
1001.0785	2746.3744	1089.55	200.35
1001.1996	2747.582	1082.05	194.85
1001.3206	2748.7889	1085.35	195.15
1001.4415	2749.9952	1078.95	192.75
1001.5625	2751.2008	1083.2	193.8
1001.6833	2752.4057	1082.05	190.65
1001.8042	2753.61	1073.9	183.95
1001.925	2754.8136	1080.65	191.45
1002.0458	2756.0165	1076.8	189.05
1002.1665	2757.2188	1074.3	187.4
1002.2872	2758.4204	1077	190.4
1002.4078	2759.6213	1077.4	186.6
1002.5285	2760.8215	1073.05	180.3
1002.649	2762.0211	1074.5	184.7
1002.7696	2763.22	1073.05	182.2
1002.8901	2764.4182	1072.5	182.55
1003.0106	2765.6158	1067.95	178.85
1003.131	2766.8127	1069.4	181.75
1003.2514	2768.009	1068.15	181.25
1003.3717	2769.2045	1064.95	175.3
1003.492	2770.3994	1071.6	180.85
1003.6123	2771.5936	1065.75	175.65
1003.7325	2772.7872	1063.7	176.2
1003.8527	2773.9801	1064.6	175.65
1003.9729	2775.1723	1080.1	174.55
1004.093	2776.3639	1058.5	170.05
1004.2131	2777.5548	1063.35	173.55
1004.3331	2778.745	1062	171.75
1004.4531	2779.9346	1059.75	173.45
1004.5731	2781.1235	1062.45	172.9
1004.693	2782.3117	1062.35	175.65
1004.8129	2783.4992	1058.95	170.7
1004.9328	2784.6861	1053.25	163.45
1005.0526	2785.8723	1059.9	168.4
1005.1723	2787.0579	1055.85	167.2
1005.2921	2788.2428	1061.2	173.75
1005.4118	2789.427	1054.05	167.05
1005.5314	2790.6106	1056.8	169.95
1005.651	2791.7935	1053.75	165.15
1005.7706	2792.9757	1053.7	166.75
1005.8902	2794.1573	1055.05	164.65
1006.0097	2795.3382	1051.5	163.1
1006.1291	2796.5184	1057	170.35
1006.2485	2797.698	1056.55	166.3
1006.3679	2798.8769	1055.75	167.35
1006.4873	2800.0551	1056.5	167.05
1006.6066	2801.2327	1054.3	164.6
1006.7258	2802.4096	1055	167.3
1006.8451	2803.5859	1055.55	166.35
1006.9642	2804.7615	1054.7	167.35
1007.0834	2805.9364	1052	165
1007.2025	2807.1106	1049.55	162.7
1007.3216	2808.2842	1055.6	165.15
1007.4406	2809.4572	1057.9	170.9
1007.5596	2810.6294	1058.15	168.85
1007.6785	2811.801	1059.55	172.3
1007.7975	2812.972	1059.1	171.8
1007.9163	2814.1423	1065.25	178.3
1008.0352	2815.3119	1069.1	179.9
1008.154	2816.4808	1062.55	173.8
1008.2727	2817.6491	1079.95	192.25
1008.3914	2818.8167	1072.35	186.5
1008.5101	2819.9837	1086.35	192.65
1008.6288	2821.15	1091.3	201.05
1008.7474	2822.3157	1097.45	211.05
1008.8659	2823.4807	1102.25	215.45
1008.9844	2824.645	1118.95	230.5
1009.1029	2825.8086	1124.95	236.55
1009.2214	2826.9716	1135.75	250.15
1009.3398	2828.134	1143.35	254
1009.4581	2829.2957	1157.45	269.75
1009.5764	2830.4567	1159.5	271.85
1009.6947	2831.617	1173	283.5
1009.813	2832.7767	1177.1	290.2
1009.9312	2833.9358	1175.2	288.75
1010.0493	2835.0941	1172.2	281.3
1010.1675	2836.2519	1167.15	280
1010.2855	2837.4089	1160.95	272
1010.4036	2838.5653	1156.9	270.95
1010.5216	2839.7211	1152.7	265.1
1010.6396	2840.8761	1150.1	258.3
1010.7575	2842.0306	1145.65	260.15
1010.8754	2843.1843	1146.05	258.25
1010.9932	2844.3374	1150.55	261.25
1011.111	2845.4899	1150.55	260.2
1011.2288	2846.6417	1152.6	264.3
1011.3465	2847.7928	1152.7	267.55
1011.4642	2848.9433	1161.45	273.4
1011.5818	2850.0931	1154.95	266.6
1011.6995	2851.2422	1159.25	269.2
1011.817	2852.3907	1162.5	272.5
1011.9345	2853.5385	1160.2	271.5
1012.052	2854.6857	1161.1	265.65
1012.1695	2855.8323	1159.3	270.8
1012.2869	2856.9781	1166.65	279.95
1012.4042	2858.1233	1167.7	280
1012.5216	2859.2679	1168.25	280.35
1012.6389	2860.4118	1179.75	291.55
1012.7561	2861.555	1187.65	294.9
1012.8733	2862.6976	1186.35	297.55
1012.9905	2863.8395	1189.75	303
1013.1076	2864.9808	1188.3	299.75
1013.2247	2866.1214	1191.1	304.25
1013.3417	2867.2614	1195.35	307.4
1013.4587	2868.4007	1204.1	313
1013.5757	2869.5393	1203.85	313.05
1013.6926	2870.6773	1208.4	316.8
1013.8095	2871.8146	1211.3	320.25
1013.9263	2872.9513	1213.35	321.35
1014.0431	2874.0874	1210.9	323.7
1014.1599	2875.2227	1219.2	331.2
1014.2766	2876.3574	1215.55	329.5
1014.3933	2877.4915	1217.2	328.75
1014.51	2878.6249	1221.6	333
1014.6266	2879.7577	1225.55	335.65
1014.7431	2880.8898	1237.75	337.25
1014.8596	2882.0212	1227.55	339.7
1014.9761	2883.152	1235.25	347.45
1015.0925	2884.2821	1238.9	351.75
1015.2089	2885.4116	1241.4	354.65
1015.3253	2886.5405	1245.45	359.2
1015.4416	2887.6686	1252.35	359.3
1015.5579	2888.7962	1242.6	356.5
1015.6741	2889.923	1242.7	356.9
1015.7903	2891.0493	1244.6	358.05
1015.9065	2892.1748	1244.8	356.95
1016.0226	2893.2997	1241	351.3
1016.1387	2894.424	1242.55	357.15
1016.2547	2895.5476	1241.75	354.9
1016.3707	2896.6706	1246.65	358.65
1016.4866	2897.7929	1238.35	349.2
1016.6025	2898.9145	1238.2	350
1016.7184	2900.0355	1241.45	353.25
1016.8342	2901.1559	1238.45	349.3
1016.95	2902.2756	1239.55	348.35
1017.0658	2903.3946	1230.85	344.1
1017.1815	2904.513	1232.6	340.75
1017.2971	2905.6308	1229.95	342.55
1017.4127	2906.7479	1222.1	333.5
1017.5283	2907.8643	1227.5	337.5
1017.6439	2908.9801	1226.9	338.4
1017.7594	2910.0953	1228	339.65
1017.8748	2911.2098	1227.95	337.9
1017.9902	2912.3236	1227.95	331.95
1018.1056	2913.4368	1220.5	329.15
1018.2209	2914.5494	1223.25	335.3
1018.3362	2915.6613	1224.65	331.55
1018.4515	2916.7725	1217.7	327.8
1018.5667	2917.8831	1205.3	315.8
1018.6819	2918.9931	1208.1	316.85
1018.797	2920.1024	1203.3	314.2
1018.9121	2921.211	1197.35	308.7
1019.0271	2922.319	1197.4	311.1
1019.1421	2923.4264	1194.85	306.2
1019.2571	2924.5331	1183.75	296.45
1019.372	2925.6391	1190.95	304.2
1019.4869	2926.7445	1193.65	307.6
1019.6017	2927.8493	1183.65	295.6
1019.7165	2928.9534	1186.35	295.8
1019.8313	2930.0569	1192.2	299
1019.946	2931.1597	1197	308.5
1020.0606	2932.2619	1194.25	304.85
1020.1753	2933.3634	1197.2	311.2
1020.2899	2934.4643	1204.65	311.25
1020.4044	2935.5645	1208.05	312
1020.5189	2936.6641	1205.65	313.9
1020.6334	2937.763	1199.55	311.3
1020.7478	2938.8613	1202.15	315.3
1020.8622	2939.959	1209	316.45
1020.9765	2941.056	1194.05	304.05
1021.0908	2942.1523	1188.45	298.5
1021.2051	2943.248	1176.9	288.05
1021.3193	2944.3431	1166.9	279.7
1021.4334	2945.4375	1155.15	268
1021.5476	2946.5313	1142.95	255.65
1021.6617	2947.6244	1130.05	243.4
1021.7757	2948.7169	1125.25	234.55
1021.8897	2949.8087	1110.15	223.95
1022.0037	2950.8999	1105.85	217.05
1022.1176	2951.9904	1094.7	207.35
1022.2315	2953.0803	1088.4	201.05
1022.3453	2954.1696	1082.05	193.7
1022.4591	2955.2582	1080.1	194.5
1022.5728	2956.3462	1073.7	185.65
1022.6865	2957.4335	1069.7	181
1022.8002	2958.5202	1071.8	181.8
1022.9138	2959.6062	1071	184.65
1023.0274	2960.6916	1065.9	179.15
1023.141	2961.7764	1073.55	184.9
1023.2545	2962.8605	1068.1	180.25
1023.3679	2963.9439	1069.95	184.65
1023.4813	2965.0267	1068.25	178.05
1023.5947	2966.1089	1089.65	179.7
1023.708	2967.1905	1063.3	174.1
1023.8213	2968.2714	1060.95	171.45
1023.9346	2969.3516	1059.4	171.75
1024.0478	2970.4312	1065.6	170.8
1024.1609	2971.5102	1061.6	174.05
1024.274	2972.5885	1060.45	174.4
1024.3871	2973.6662	1064.3	171.75
1024.5002	2974.7432	1062.15	176.05
1024.6132	2975.8196	1056.85	169.6
1024.7261	2976.8954	1061.65	173.9
1024.839	2977.9705	1060.95	173
1024.9519	2979.045	1056.55	168.35
1025.0647	2980.1188	1059.25	172.9
1025.1775	2981.192	1058.25	171.3
1025.2902	2982.2645	1057.4	167.55
1025.4029	2983.3364	1049.8	162.85
1025.5156	2984.4077	1043	155.75
1025.6282	2985.4783	1049.15	154.4
1025.7407	2986.5483	1039.45	152.65
1025.8532	2987.6177	1036.1	150.1
1025.9657	2988.6864	1031.95	144.7
1026.0782	2989.7545	1037.25	147
1026.1906	2990.8219	1026.35	139.8
1026.3029	2991.8887	1028.2	138.3
1026.4152	2992.9548	1025.25	136.4
1026.5275	2994.0204	1017.9	131.45
1026.6397	2995.0852	1012.5	125.7
1026.7519	2996.1495	1011.6	121
1026.864	2997.2131	1005.5	118.4
1026.9761	2998.276	1004.2	114.8
1027.0882	2999.3383	998.05	110.05
1027.2002	3000.4	997	107.7
1027.3122	3001.4611	996.35	107.35
1027.4241	3002.5215	991.9	102.95
1027.536	3003.5812	991.55	104.25
1027.6478	3004.6404	985.45	97.6
1027.7596	3005.6989	988.2	98.8
1027.8714	3006.7567	982.65	94.1
1027.9831	3007.8139	1000.45	93.6
1028.0947	3008.8705	979.95	91.05
1028.2064	3009.9264	982.9	92.55
1028.3179	3010.9818	980.05	91.25
1028.4295	3012.0364	978.3	89.75
1028.541	3013.0905	975.95	88.7
1028.6524	3014.1439	975.15	86.95
1028.7638	3015.1966	974.8	88
1028.8752	3016.2487	969.9	83.4
1028.9865	3017.3002	977.05	84.35
1029.0978	3018.3511	970.05	82.25
1029.209	3019.4013	972.05	83.3
1029.3202	3020.4509	971.45	83.2
1029.4314	3021.4998	972.45	83.6
1029.5425	3022.5481	972.1	84.35
1029.6535	3023.5958	968.15	81.05
1029.7645	3024.6428	973.6	83.75
1029.8755	3025.6892	972.45	85.3
1029.9864	3026.735	964.9	75.1
1030.0973	3027.7802	967.55	79.65
1030.2082	3028.8247	967.4	79.65
1030.319	3029.8685	964.95	76.45
1030.4297	3030.9118	967.45	79.35
1030.5404	3031.9544	965.55	79.3
1030.6511	3032.9963	967.65	79.45
1030.7617	3034.0376	964.95	76.4
1030.8723	3035.0783	970.6	80.3
1030.9829	3036.1184	968.85	79.5
1031.0934	3037.1578	967.4	80.4
1031.2038	3038.1966	969	80.7
1031.3142	3039.2348	964.15	77
1031.4246	3040.2723	974.45	77.15
1031.5349	3041.3092	967.25	79.3
1031.6452	3042.3455	964.35	79.4
1031.7554	3043.3811	969.05	79.8
1031.8656	3044.4161	967.5	80.15
1031.9758	3045.4505	965.55	79.5
1032.0859	3046.4842	967.2	79.3
1032.1959	3047.5173	964.2	76.1
1032.3059	3048.5498	968.6	79.05
1032.4159	3049.5816	965.15	75.9
1032.5258	3050.6128	964.5	75.5
1032.6357	3051.6434	969.25	78.3
1032.7455	3052.6734	964.75	76.35
1032.8553	3053.7027	966.2	80.15
1032.9651	3054.7314	965.8	79.3
1033.0748	3055.7594	963.3	75.9
1033.1845	3056.7868	963.75	74.9
1033.2941	3057.8136	966.95	79.4
1033.4037	3058.8398	965.45	77.05
1033.5132	3059.8653	966.3	78.95
1033.6227	3060.8902	963.8	75.9
1033.7321	3061.9145	964.75	75.95
1033.8415	3062.9381	966.05	78.5
1033.9509	3063.9612	981.7	79.1
1034.0602	3064.9835	966.9	78.9
1034.1694	3066.0053	968.8	79.6
1034.2787	3067.0264	966.1	78.35
1034.3878	3068.0469	965.85	78.5
1034.497	3069.0668	968.35	79.45
1034.6061	3070.086	967.65	81.8
1034.7151	3071.1046	968.95	78.75
1034.8241	3072.1226	966.5	75.4
1034.9331	3073.1399	963.5	76.95
1035.042	3074.1567	962.1	74.45
1035.1508	3075.1727	961.75	72.5
1035.2597	3076.1882	961.5	75.45
1035.3684	3077.203	959.75	69.7
1035.4772	3078.2173	958.5	69.55
1035.5859	3079.2308	959.1	68.4
1035.6945	3080.2438	959.6	67.9
1035.8031	3081.2561	956	70.7
1035.9117	3082.2678	955.45	67.75
1036.0202	3083.2789	954.5	66.2
1036.1286	3084.2893	953.8	64.75
1036.2371	3085.2991	953.75	65.2
1036.3454	3086.3083	957.9	68.8
1036.4538	3087.3169	949.1	61.1
1036.562	3088.3248	950.8	62.6
1036.6703	3089.3321	950.3	61.7
1036.7785	3090.3388	949.6	62
1036.8866	3091.3449	949	60.8
1036.9948	3092.3503	952.75	61.45
1037.1028	3093.3551	946.1	60.2
1037.2108	3094.3593	943.45	55.9
1037.3188	3095.3629	947.35	60.4
1037.4267	3096.3658	947.65	58.5
1037.5346	3097.3681	945.7	57.15
1037.6425	3098.3698	947.55	58.15
1037.7503	3099.3708	950.9	56.7
1037.858	3100.3713	945.8	59.05
1037.9657	3101.3711	942.05	53.65
1038.0734	3102.3702	1080.75	58
1038.181	3103.3688	948.8	58.8
1038.2886	3104.3667	938.25	53.3
1038.3961	3105.364	940.15	54.35
1038.5036	3106.3607	944.3	55.15
1038.611	3107.3568	943.15	54.15
1038.7184	3108.3522	940.2	52.3
1038.8257	3109.347	940.45	51.5
1038.933	3110.3412	942.45	50.15
1039.0403	3111.3348	941.8	53
1039.1475	3112.3277	939.25	51.2
1039.2547	3113.32	937.9	51.4
1039.3618	3114.3117	939.3	50.05
1039.4689	3115.3028	939.55	51.7
1039.5759	3116.2932	941.55	52.7
1039.6829	3117.2831	940.75	47.1
1039.7898	3118.2723	936.85	47.5
1039.8967	3119.2608	937.3	48.9
1040.0035	3120.2488	937	47.5
1040.1103	3121.2361	938.55	51.15
1040.2171	3122.2229	933.85	46.05
1040.3238	3123.209	937.3	47.95
1040.4305	3124.1944	931.55	43.3
1040.5371	3125.1793	935.2	44.7
1040.6437	3126.1635	932.1	45.2
1040.7502	3127.1471	932.75	44.95
1040.8567	3128.1301	929.95	43.2
1040.9631	3129.1125	933.5	47.15
1041.0695	3130.0942	931.35	42.55
1041.1759	3131.0753	944.5	49
1041.2822	3132.0558	934.2	44.1
1041.3884	3133.0357	934.35	44.35
1041.4946	3134.015	934	46.1
1041.6008	3134.9936	933.15	42.75
1041.7069	3135.9716	954.55	44.55
1041.813	3136.949	930.2	42.45
1041.919	3137.9258	951.5	43.9
1042.025	3138.902	935.25	42.85
1042.1309	3139.8775	930.2	43.55
1042.2368	3140.8524	929.5	43.75
1042.3427	3141.8267	929.45	39.35
1042.4485	3142.8004	930.4	41.9
1042.5542	3143.7735	934.1	39.9
1042.6599	3144.7459	932.55	41.65
1042.7656	3145.7178	928.15	37.65
1042.8712	3146.689	925.45	40.95
1042.9768	3147.6596	928.6	39
1043.0823	3148.6295	930.1	41.75
1043.1878	3149.5989	925.75	37.8
1043.2932	3150.5676	927.35	40.6
1043.3986	3151.5357	925.05	38.05
1043.5039	3152.5032	925.45	37.35
1043.6092	3153.4701	926.55	37.2
1043.7145	3154.4364	931.75	41.65
1043.8197	3155.402	923.5	38
1043.9248	3156.367	927.65	39.55
1044.03	3157.3315	962.2	39.5
1044.135	3158.2952	925.2	35.55
1044.24	3159.2584	923.15	35.2
1044.345	3160.221	927.4	38.15
1044.4499	3161.1829	923.6	35.7
1044.5548	3162.1442	925.65	37.6
1044.6596	3163.105	925.45	38.3
1044.7644	3164.065	922.25	36.3
1044.8692	3165.0245	927.5	37.95
1044.9739	3165.9834	921.8	36.2
1045.0785	3166.9416	922.75	33.9
1045.1831	3167.8993	926.85	37.6
1045.2877	3168.8563	922.25	34.6
1045.3922	3169.8127	924.35	36
1045.4966	3170.7684	923.4	36.5
1045.6011	3171.7236	923.3	33.75
1045.7054	3172.6782	923.4	37.75
1045.8098	3173.6321	923	34.25
1045.914	3174.5854	926.7	34
1046.0183	3175.5381	921.15	32.75
1046.1224	3176.4902	919.7	33.75
1046.2266	3177.4417	920.8	32.9
1046.3307	3178.3926	918.25	31.7
1046.4347	3179.3428	918.2	32.35
1046.5387	3180.2924	919.55	33.9
1046.6427	3181.2415	920.8	32.55
1046.7466	3182.1899	923.65	32.5
1046.8504	3183.1377	917.7	29.7
1046.9542	3184.0848	924.9	34.45
1047.058	3185.0314	917.2	29.1
1047.1617	3185.9773	919.4	31.95
1047.2654	3186.9227	921.35	32.9
1047.369	3187.8674	919.45	30.15
1047.4726	3188.8115	922.1	27.6
1047.5761	3189.755	919.45	32
1047.6796	3190.6979	921	35.1
1047.783	3191.6402	919.95	34.65
1047.8864	3192.5818	919.15	31.15
1047.9898	3193.5229	924.85	30.65
1048.0931	3194.4633	920.3	32.9
1048.1963	3195.4031	920.15	29.85
1048.2995	3196.3423	916.65	27.45
1048.4027	3197.2809	916.6	28.8
1048.5058	3198.2189	919.45	29.75
1048.6089	3199.1563	935.3	30.15
1048.7119	3200.0931	915.1	28.25
1048.8148	3201.0292	917.25	29.55
1048.9178	3201.9648	917.3	31.25
1049.0206	3202.8997	917.45	28.5
1049.1235	3203.834	917.9	29.95
1049.2262	3204.7677	913.95	26.55
1049.329	3205.7008	917.75	26.3
1049.4317	3206.6333	916.65	29.4
1049.5343	3207.5652	917.2	28.5
1049.6369	3208.4964	915.75	29.75
1049.7394	3209.4271	915.35	28.3
1049.8419	3210.3571	916.5	29.3
1049.9444	3211.2865	917.65	30.05
1050.0468	3212.2154	916.3	26.85
1050.1491	3213.1436	917.3	24.9
1050.2514	3214.0712	919.95	25.6
1050.3537	3214.9982	916.55	27.7
1050.4559	3215.9246	914.1	27.55
1050.5581	3216.8503	911.2	24.6
1050.6602	3217.7755	915	27.05
1050.7623	3218.7001	913.25	25.5
1050.8643	3219.624	913.05	24.8
1050.9663	3220.5473	914.25	24.4
1051.0682	3221.4701	913.85	24.35
1051.1701	3222.3922	914.9	25.35
1051.2719	3223.3137	912.25	24.45
1051.3737	3224.2346	913.1	24.65
1051.4754	3225.1549	913.1	24.65
1051.5771	3226.0746	912.35	24.85
1051.6788	3226.9937	912.65	25.85
1051.7804	3227.9121	912.7	26.65
1051.8819	3228.83	913.2	25.45
1051.9834	3229.7473	913.8	25.6
1052.0849	3230.6639	911.85	24.5
1052.1863	3231.5799	911.1	22.6
1052.2876	3232.4954	913.25	25.3
1052.3889	3233.4102	913.2	27.45
1052.4902	3234.3244	911.2	20.8
1052.5914	3235.238	911.9	24.65
1052.6926	3236.151	925.45	21.1
1052.7937	3237.0634	909.85	22.8
1052.8948	3237.9752	908.1	21.05
1052.9958	3238.8864	911.35	23.45
1053.0968	3239.797	911.3	23.1
1053.1977	3240.7069	912.25	22.5
1053.2986	3241.6163	911.1	22.4
1053.3994	3242.5251	908.1	20.85
1053.5002	3243.4332	910.7	24.75
1053.6009	3244.3408	912.3	23.8
1053.7016	3245.2477	910	21.4
1053.8022	3246.154	910.1	21.55
1053.9028	3247.0598	913.15	25.95
1054.0034	3247.9649	909.5	20.5
1054.1039	3248.8694	909.5	21.6
1054.2043	3249.7733	908.15	19.1
1054.3047	3250.6766	909.25	24.2
1054.4051	3251.5793	910.75	21.2
1054.5054	3252.4814	908.6	22.2
1054.6056	3253.3829	906.4	19.05
1054.7058	3254.2838	906.95	20
1054.806	3255.1841	907.4	19.15
1054.9061	3256.0838	907.25	18.7
1055.0061	3256.9829	909.35	23.5
1055.1062	3257.8814	911.4	20.5
1055.2061	3258.7792	908.9	18.1
1055.306	3259.6765	907.8	21.25
1055.4059	3260.5731	904.9	19.4
1055.5057	3261.4692	906.4	16.5
1055.6055	3262.3647	906.2	17.15
1055.7052	3263.2595	907.55	21.85
1055.8049	3264.1538	907.85	21.25
1055.9045	3265.0474	905.65	18.35
1056.0041	3265.9404	906.1	18.9
1056.1036	3266.8329	905.6	18.7
1056.2031	3267.7247	917.2	19.35
1056.3025	3268.616	905.1	18.05
1056.4019	3269.5066	903	14.5
1056.5013	3270.3966	906.5	15.85
1056.6005	3271.286	903.4	16.75
