Software Version:	3.9.2.0
Unit SN:	10000200
Spectrometer SN:	6960
Date:	3/26/2024 1:07:41 PM
Data Line Index:	25
Spectral Points:	2048
Integration time (ms):	125
Averages:	20
Delay (ms):	30000
Sequence Number:	1
Processing:	dark subtract
Laser Power (mW):	305
Laser Current (mA):	818
Laser Diode Temp (C):	25
Laser Case Temp (C):	26.1
System Temp (C):	26
Spectrometer Temp (C):	23.8
CCD Temp (C):	0.01
Secondary Temp (C):	20.004
Heatsink Temp (C):	21.765
CCDPCB Temp (C):	36.329
SecondaryPCB Temp (C):	30.327

Wavelength	RamanShift	Raw Counts	Dark Subtracted
787.061	30.1047	424	11.8
787.2016	32.3739	422.45	12.6
787.3422	34.6426	425.25	14.1
787.4828	36.9109	429.65	16.15
787.6235	39.1787	432.15	14.75
787.7642	41.4461	439.4	17.35
787.9049	43.7131	443.9	19.25
788.0456	45.9796	448	20.2
788.1863	48.2456	456.2	24.45
788.3271	50.5112	458.55	20.4
788.4679	52.7764	460.3	21.75
788.6087	55.0411	464.7	23.15
788.7496	57.3054	473.3	26.6
788.8904	59.5692	477.8	30.35
789.0313	61.8326	484.3	31.8
789.1722	64.0955	489.75	34.95
789.3132	66.3579	495	33.25
789.4541	68.6199	504.3	39.35
789.5951	70.8815	518.25	52.6
789.7361	73.1426	539.35	70.1
789.8771	75.4032	589.2	115.5
790.0181	77.6634	703.3	224.8
790.1592	79.9231	974.05	489.95
790.3003	82.1824	1533.25	1046.9
790.4414	84.4412	2483.3	1989.7
790.5825	86.6995	3769.7	3268.05
790.7237	88.9574	5058.8	4549.15
790.8648	91.2148	5999.35	5484.7
791.006	93.4717	6513.4	5995.4
791.1472	95.7282	6670.85	6147.8
791.2885	97.9842	6756.45	6234.05
791.4297	100.2398	6742.8	6216.8
791.571	102.4949	6731	6202.85
791.7123	104.7495	6707.55	6170.8
791.8536	107.0036	6666.8	6131.7
791.9949	109.2573	6621.4	6089.4
792.1363	111.5105	6580.85	6044.5
792.2777	113.7632	6509.95	5972.75
792.4191	116.0154	6444.55	5898.6
792.5605	118.2672	6412.65	5872.3
792.7019	120.5185	6340	5798.45
792.8434	122.7693	6291.2	5747.75
792.9849	125.0197	6215.6	5667.25
793.1264	127.2696	6165.05	5614.75
793.2679	129.519	6128.8	5575.2
793.4094	131.7679	6126.15	5571.2
793.551	134.0163	6114.65	5555.7
793.6926	136.2642	6101.65	5535.95
793.8342	138.5117	6087.4	5511.35
793.9758	140.7587	6055.6	5487.4
794.1175	143.0052	6043.15	5469.75
794.2591	145.2512	5998.75	5425.8
794.4008	147.4967	5946.75	5373.95
794.5425	149.7417	5915.4	5341.55
794.6842	151.9863	5876.85	5297.85
794.826	154.2304	5875	5292.85
794.9677	156.4739	5851.05	5264.1
795.1095	158.717	5842.6	5257.35
795.2513	160.9596	5858.6	5268.05
795.3931	163.2017	5880.85	5286.65
795.535	165.4433	5867.15	5268.9
795.6768	167.6844	5871.6	5271.65
795.8187	169.925	5858.3	5255.05
795.9606	172.1651	5800.3	5194.2
796.1025	174.4047	5774.55	5165.35
796.2445	176.6439	5722.15	5112.3
796.3864	178.8825	5691.65	5078.1
796.5284	181.1206	5684.2	5066.7
796.6704	183.3582	5676.55	5053.75
796.8124	185.5954	5654.65	5031.25
796.9544	187.832	5638.2	5010.65
797.0965	190.0681	5639.4	5011.15
797.2386	192.3037	5653.85	5022.45
797.3806	194.5388	5637.3	5001.15
797.5228	196.7734	5655.6	5018
797.6649	199.0075	5656.95	5016.8
797.807	201.2411	5688.3	5043
797.9492	203.4742	5689.1	5044.95
798.0914	205.7068	5706.9	5061.3
798.2336	207.9389	5720.4	5074.85
798.3758	210.1704	5731.75	5082.1
798.518	212.4015	5732.05	5080.3
798.6603	214.632	5719.5	5066.15
798.8025	216.862	5730.75	5084.5
798.9448	219.0915	5722.05	5082.85
799.0871	221.3205	5719.1	5083.1
799.2294	223.549	5717.8	5086.25
799.3718	225.777	5715.55	5085.3
799.5141	228.0044	5732.5	5097.3
799.6565	230.2314	5712.05	5078.75
799.7989	232.4578	5700.2	5068.1
799.9413	234.6837	5684.05	5043.55
800.0837	236.909	5654.25	5012.95
800.2262	239.1339	5657.85	4991.6
800.3687	241.3582	5666.3	5015.25
800.5111	243.582	5663.25	4980.25
800.6536	245.8053	5661.95	4993.8
800.7961	248.0281	5646.15	4981.25
800.9387	250.2503	5641.7	4970.65
801.0812	252.472	5640.7	4967.25
801.2238	254.6932	5658.05	4979.75
801.3664	256.9139	5633.85	4953.7
801.509	259.134	5647.8	4963.35
801.6516	261.3536	5653.25	4970.55
801.7942	263.5727	5663.15	4979.4
801.9369	265.7912	5678.95	4992.85
802.0795	268.0092	5717.35	5033.35
802.2222	270.2267	5754.15	5068.35
802.3649	272.4436	5787.6	5098.05
802.5076	274.6601	5798.45	5104.35
802.6504	276.8759	5799.35	5110.45
802.7931	279.0913	5817.15	5125.35
802.9359	281.3061	5822.9	5128.8
803.0787	283.5204	5845.2	5145.4
803.2215	285.7341	5855.25	5155.4
803.3643	287.9473	5893	5181.25
803.5071	290.16	5891.05	5185.45
803.6499	292.3721	5844.45	5145.25
803.7928	294.5837	5811.6	5109.55
803.9357	296.7947	5754.9	5052.55
804.0786	299.0052	5750.3	5048.75
804.2215	301.2152	5722.5	5015.55
804.3644	303.4246	5707.35	5003.45
804.5074	305.6334	5684.55	4978.9
804.6503	307.8418	5664.3	4956.55
804.7933	310.0495	5645.5	4937
804.9363	312.2568	5622.15	4915
805.0793	314.4635	5605.2	4897.2
805.2223	316.6696	5540.3	4827.75
805.3653	318.8752	5493.8	4773.95
805.5084	321.0802	5464.05	4752.05
805.6514	323.2847	5432.7	4717.45
805.7945	325.4887	5446.15	4731
805.9376	327.692	5446.3	4728.5
806.0807	329.8949	5477.4	4760.25
806.2238	332.0972	5488.2	4768.65
806.367	334.2989	5529.5	4806.05
806.5101	336.5001	5513.25	4791.1
806.6533	338.7007	5504.65	4781.25
806.7965	340.9008	5458.7	4732.2
806.9397	343.1003	5413.95	4686.4
807.0829	345.2992	5379.7	4649.9
807.2261	347.4976	5334.5	4603.8
807.3693	349.6955	5314.95	4578.9
807.5126	351.8927	5298.5	4562.65
807.6559	354.0895	5288.8	4544.05
807.7991	356.2856	5291.6	4552.85
807.9424	358.4812	5225.5	4489.85
808.0857	360.6763	5252.8	4514.55
808.2291	362.8707	5239.55	4500.75
808.3724	365.0646	5252.5	4508.5
808.5158	367.258	5232.8	4489.75
808.6591	369.4508	5220.05	4472.7
808.8025	371.643	5240.8	4494
808.9459	373.8346	5249.35	4499.9
809.0893	376.0257	5283.3	4530.2
809.2327	378.2162	5317.25	4564.55
809.3762	380.4062	5329.7	4575.55
809.5196	382.5956	5303.9	4548.55
809.6631	384.7844	5247.55	4490.9
809.8066	386.9726	5192.05	4432.85
809.9501	389.1603	5158	4398.15
810.0936	391.3474	5166.8	4377.75
810.2371	393.5339	5140.05	4383.5
810.3806	395.7199	5123.35	4369.95
810.5241	397.9052	5127.1	4378.05
810.6677	400.09	5148.45	4399.6
810.8113	402.2743	5175.1	4425.1
810.9548	404.4579	5175.4	4427.6
811.0984	406.641	5238.5	4488.45
811.2421	408.8235	5275.55	4525.2
811.3857	411.0054	5309.15	4555.8
811.5293	413.1868	5397.4	4641.25
811.673	415.3675	5527.95	4768.15
811.8166	417.5477	5560.2	4798.2
811.9603	419.7273	5469.4	4707
812.104	421.9064	5336.9	4565.15
812.2477	424.0848	5242.85	4477.6
812.3914	426.2627	5178.65	4410.55
812.5351	428.4399	5129.9	4358.9
812.6788	430.6166	5094.35	4320
812.8226	432.7928	5039.05	4261.85
812.9663	434.9683	4999.5	4226.4
813.1101	437.1432	4952.85	4175.95
813.2539	439.3176	4922.3	4147.4
813.3977	441.4914	4909.8	4133.35
813.5415	443.6645	4918.1	4136.95
813.6853	445.8371	4906.9	4127.7
813.8291	448.0091	4901.7	4123.85
813.973	450.1806	4891.05	4111.4
814.1168	452.3514	4878.45	4094.25
814.2607	454.5216	4873.85	4084.05
814.4046	456.6913	4840.6	4055.95
814.5485	458.8603	4852.75	4069.95
814.6924	461.0288	4835.55	4053.25
814.8363	463.1967	4824.8	4041.65
814.9802	465.3639	4835.65	4050.1
815.1241	467.5306	4813.95	4026.4
815.2681	469.6967	4812.5	4028.5
815.412	471.8622	4784.1	3998.4
815.556	474.0271	4803.85	4017.3
815.7	476.1914	4799.7	4012.4
815.844	478.3551	4784.7	3994.75
815.988	480.5182	4786.1	3996.75
816.132	482.6807	4796.05	4004.3
816.276	484.8426	4808.65	4020.3
816.4201	487.0039	4851.2	4060.45
816.5641	489.1647	4877.5	4085.8
816.7082	491.3248	4903.65	4112.6
816.8522	493.4843	4898.85	4106.85
816.9963	495.6432	4907.1	4116
817.1404	497.8015	4879.55	4083.4
817.2845	499.9592	4860.6	4064.55
817.4286	502.1163	4809.9	4014.15
817.5727	504.2728	4769.45	3972.35
817.7168	506.4287	4757	3961.9
817.861	508.5839	4734.8	3941.7
818.0051	510.7386	4730.1	3933.4
818.1493	512.8927	4740.3	3935.25
818.2935	515.0461	4736.3	3936
818.4377	517.199	4753.1	3954.85
818.5818	519.3512	4791.9	3993.75
818.726	521.5029	4812.35	4006.2
818.8703	523.6539	4849.9	4048.65
819.0145	525.8043	4873.25	4071.45
819.1587	527.9541	4849.3	4045.9
819.303	530.1033	4780.9	3977.95
819.4472	532.2519	4725.45	3922.25
819.5915	534.3999	4727.7	3923.4
819.7357	536.5472	4714.25	3908.9
819.88	538.694	4714.35	3909.9
820.0243	540.8401	4713.1	3905.85
820.1686	542.9856	4740.55	3931.6
820.3129	545.1305	4747.4	3938.5
820.4572	547.2748	4782.4	3972.2
820.6016	549.4185	4763.65	3953.05
820.7459	551.5615	4751.05	3941.1
820.8902	553.704	4749.15	3937.45
821.0346	555.8458	4776.95	3967.6
821.1789	557.987	4792.1	3979.35
821.3233	560.1276	4819.85	4007.55
821.4677	562.2675	4864.8	4053.65
821.6121	564.4069	4902.5	4089.15
821.7565	566.5456	4936.8	4127.25
821.9009	568.6837	4916.75	4104.1
822.0453	570.8212	4877.3	4065.95
822.1897	572.958	4814.9	3999.6
822.3342	575.0942	4758.4	3946.7
822.4786	577.2299	4759.85	3945.55
822.6231	579.3648	4712.65	3902.6
822.7675	581.4992	4670.9	3857.45
822.912	583.6329	4661.45	3848.05
823.0565	585.766	4675.2	3861.65
823.201	587.8985	4708.65	3895
823.3454	590.0304	4727.6	3899.5
823.4899	592.1616	4764.65	3946
823.6345	594.2922	4758.7	3941.9
823.779	596.4222	4720.6	3900.4
823.9235	598.5515	4672.3	3852.1
824.068	600.6802	4622.1	3801.3
824.2126	602.8083	4584.45	3763.85
824.3571	604.9358	4586.7	3763.35
824.5017	607.0626	4566	3743.1
824.6462	609.1888	4564.2	3739.65
824.7908	611.3144	4577.65	3755.3
824.9354	613.4393	4591.75	3766.2
825.08	615.5636	4636.25	3812
825.2246	617.6873	4670.45	3846.45
825.3692	619.8103	4718.35	3893.55
825.5138	621.9327	4710.9	3883.45
825.6584	624.0544	4687.7	3864.3
825.803	626.1756	4647.75	3825.75
825.9477	628.2961	4590.5	3765.95
826.0923	630.4159	4567.35	3740.8
826.237	632.5351	4566.85	3742.1
826.3816	634.6537	4547.9	3721.65
826.5263	636.7716	4562.55	3733.7
826.6709	638.8889	4557.45	3729.95
826.8156	641.0056	4569.2	3740
826.9603	643.1216	4551.1	3722.5
827.105	645.237	4585.7	3752.95
827.2497	647.3518	4559.5	3730
827.3944	649.4659	4544.95	3715.6
827.5391	651.5793	4525.2	3691.9
827.6838	653.6922	4493.4	3664.8
827.8285	655.8043	4500.6	3670.65
827.9733	657.9159	4482.45	3649.45
828.118	660.0268	4465.15	3630.2
828.2627	662.137	4447.3	3614.25
828.4075	664.2466	4467.75	3633.45
828.5522	666.3556	4441	3606.1
828.697	668.4639	4445.25	3608.5
828.8418	670.5716	4429.45	3597.25
828.9865	672.6786	4446.9	3613.05
829.1313	674.785	4425.9	3591.85
829.2761	676.8907	4429.2	3592.3
829.4209	678.9958	4408.35	3573.2
829.5657	681.1002	4399.4	3562.6
829.7105	683.204	4412.9	3571.95
829.8553	685.3072	4416.1	3577.9
830.0001	687.4097	4394.65	3557.55
830.1449	689.5115	4420.9	3580.05
830.2898	691.6127	4400.85	3564.05
830.4346	693.7132	4411.6	3573
830.5794	695.8131	4389.9	3537.5
830.7243	697.9123	4400.35	3560.65
830.8691	700.0109	4395.45	3556.25
831.014	702.1089	4393.25	3551.3
831.1588	704.2061	4395.25	3554.8
831.3037	706.3028	4434.65	3591.5
831.4486	708.3987	4433.1	3591.6
831.5935	710.4941	4450.5	3608
831.7383	712.5887	4452.2	3609.75
831.8832	714.6827	4463.6	3618
832.0281	716.7761	4440.4	3596.45
832.173	718.8688	4438.25	3596.9
832.3179	720.9608	4442.35	3596.4
832.4628	723.0522	4442.35	3596.9
832.6077	725.1429	4457.5	3614.5
832.7527	727.233	4469.3	3624.95
832.8976	729.3224	4519.05	3675.65
833.0425	731.4112	4570.15	3725.05
833.1874	733.4993	4580.35	3733.1
833.3324	735.5867	4544.5	3696.65
833.4773	737.6735	4500	3653.3
833.6222	739.7596	4456.95	3608.5
833.7672	741.845	4436.45	3589.9
833.9122	743.9298	4428.25	3579.15
834.0571	746.014	4448.65	3601.75
834.2021	748.0974	4451.95	3603.9
834.347	750.1802	4439.9	3591.65
834.492	752.2624	4432.25	3583.2
834.637	754.3439	4399.8	3548.95
834.782	756.4247	4384.5	3526.1
834.9269	758.5048	4341.25	3491.4
835.0719	760.5843	4339.2	3490.95
835.2169	762.6631	4353.6	3504.25
835.3619	764.7413	4394.8	3546.2
835.5069	766.8188	4444.8	3594.1
835.6519	768.8956	4491.7	3637.45
835.7969	770.9718	4536.35	3687
835.9419	773.0473	4525.85	3676.3
836.0869	775.1221	4472.75	3624.2
836.232	777.1962	4487.5	3635.6
836.377	779.2697	4517.45	3665.55
836.522	781.3426	4599.1	3730.1
836.667	783.4147	4655.6	3801.4
836.8121	785.4862	4624.75	3772.5
836.9571	787.557	4583	3730.45
837.1021	789.6271	4468.1	3613.7
837.2472	791.6966	4375.4	3522.8
837.3922	793.7654	4305.55	3451
837.5373	795.8335	4239.8	3386.3
837.6823	797.901	4213.35	3360
837.8274	799.9678	4193.95	3337.7
837.9724	802.0339	4189.45	3336.9
838.1175	804.0993	4186.5	3322.2
838.2626	806.1641	4179.15	3322.65
838.4076	808.2282	4149.7	3295.25
838.5527	810.2916	4132.1	3275.4
838.6978	812.3544	4123.05	3268.55
838.8428	814.4164	4093.2	3240.05
838.9879	816.4778	4114.25	3257.45
839.133	818.5385	4111.15	3256.4
839.2781	820.5986	4138	3279.95
839.4232	822.658	4175.1	3319.5
839.5682	824.7166	4225.55	3370.35
839.7133	826.7747	4274.35	3418.25
839.8584	828.832	4334.95	3475.05
840.0035	830.8886	4357.8	3496.35
840.1486	832.9446	4379.8	3523.45
840.2937	834.9999	4352.9	3496.85
840.4388	837.0545	4309.85	3448.7
840.5839	839.1085	4248.6	3389.55
840.729	841.1618	4187.25	3326.45
840.8741	843.2143	4125.95	3269.6
841.0192	845.2662	4105.85	3247.6
841.1643	847.3175	4081.7	3224.55
841.3095	849.368	4075.25	3215.7
841.4546	851.4179	4059.55	3201.3
841.5997	853.467	4039.35	3181.15
841.7448	855.5155	4033.85	3173.6
841.8899	857.5633	4030.5	3172.4
842.0351	859.6105	4035.2	3175.9
842.1802	861.6569	4026.05	3166.9
842.3253	863.7027	4020	3159.65
842.4704	865.7478	3995.2	3135.15
842.6156	867.7922	3986.95	3124.8
842.7607	869.8359	3973.35	3112.25
842.9058	871.8789	3969.35	3106.45
843.0509	873.9212	3982.1	3088.9
843.1961	875.9629	3961.2	3100.6
843.3412	878.0039	3967.6	3104.95
843.4863	880.0441	3972.35	3113.4
843.6315	882.0837	3974.25	3110.25
843.7766	884.1226	3993.15	3128.6
843.9218	886.1609	4016.85	3155.15
844.0669	888.1984	4027.8	3164.15
844.212	890.2352	4078.35	3217.5
844.3572	892.2714	4086.8	3220
844.5023	894.3069	4077.9	3212.3
844.6475	896.3416	4034.55	3169.35
844.7926	898.3757	3974.3	3110.55
844.9377	900.4091	3945.75	3081.55
845.0829	902.4418	3945.75	3078.45
845.228	904.4739	3953.1	3087.05
845.3732	906.5052	3965.6	3101.35
845.5183	908.5358	3960.3	3096.95
845.6635	910.5658	3952.95	3085.7
845.8086	912.595	3911.45	3045
845.9538	914.6236	3868.8	3003.8
846.0989	916.6515	3865.9	3001.95
846.2441	918.6786	3821.9	2954.85
846.3892	920.7051	3813.3	2946.85
846.5344	922.7309	3813.35	2947.6
846.6795	924.756	3791.05	2924.5
846.8246	926.7804	3795.05	2928.4
846.9698	928.8041	3792.5	2924.3
847.1149	930.8272	3805.3	2939.7
847.2601	932.8495	3794.5	2926.4
847.4052	934.8711	3796.9	2927.7
847.5504	936.892	3800.85	2933.45
847.6955	938.9123	3794.25	2925.85
847.8407	940.9318	3812.45	2943.15
847.9858	942.9506	3809.35	2939.9
848.131	944.9688	3797.3	2929.8
848.2761	946.9862	3781.9	2914.4
848.4213	949.003	3736.15	2868.5
848.5664	951.019	3712.45	2843.15
848.7115	953.0344	3698	2829.85
848.8567	955.0491	3675.6	2805.55
849.0018	957.063	3678	2809.8
849.147	959.0763	3680.6	2806.75
849.2921	961.0888	3657.4	2786.05
849.4373	963.1007	3649	2779.4
849.5824	965.1119	3642.7	2775.4
849.7275	967.1223	3640.65	2773.45
849.8727	969.1321	3624.5	2755.6
850.0178	971.1412	3605.3	2737.4
850.1629	973.1495	3604	2734.8
850.3081	975.1572	3631.05	2739.05
850.4532	977.1641	3595.85	2726.95
850.5983	979.1704	3589.6	2717.15
850.7435	981.1759	3591.4	2716.5
850.8886	983.1808	3571.7	2698.35
851.0337	985.1849	3579.85	2698.6
851.1788	987.1884	3560.85	2688.15
851.324	989.1911	3550.7	2675.75
851.4691	991.1932	3550.55	2678.55
851.6142	993.1945	3538.75	2669.05
851.7593	995.1951	3533.2	2661.15
851.9045	997.1951	3512.4	2634.5
852.0496	999.1943	3501.15	2629.75
852.1947	1001.1928	3492.35	2620.05
852.3398	1003.1906	3493.65	2620.95
852.4849	1005.1877	3502.2	2628.6
852.63	1007.1841	3501.65	2631.25
852.7751	1009.1798	3516.3	2645.1
852.9202	1011.1748	3485.65	2615.35
853.0653	1013.1691	3481.85	2608.15
853.2104	1015.1627	3447.5	2574.15
853.3555	1017.1556	3415.4	2544
853.5006	1019.1477	3374.4	2501.35
853.6457	1021.1392	3368.15	2497.75
853.7908	1023.1299	3341.15	2469.85
853.9359	1025.12	3335.85	2462.45
854.081	1027.1093	3330.3	2460.8
854.2261	1029.0979	3325.2	2456.5
854.3712	1031.0859	3353.05	2482.4
854.5163	1033.0731	3344.4	2473
854.6613	1035.0596	3338.2	2465.2
854.8064	1037.0454	3325.6	2451.15
854.9515	1039.0304	3322.1	2448.05
855.0965	1041.0148	3271.8	2398.35
855.2416	1042.9985	3271.6	2397.4
855.3867	1044.9814	3250.3	2377.4
855.5317	1046.9636	3235	2359.6
855.6768	1048.9452	3220.55	2348.35
855.8219	1050.926	3226.65	2354.4
855.9669	1052.9061	3230.25	2355.8
856.112	1054.8855	3243.2	2367.8
856.257	1056.8642	3229.35	2356.5
856.4021	1058.8421	3226.6	2348.85
856.5471	1060.8194	3221.85	2346.8
856.6921	1062.7959	3204.95	2331.45
856.8372	1064.7717	3198.5	2321.7
856.9822	1066.7469	3196.05	2320.25
857.1272	1068.7213	3181.55	2302.75
857.2723	1070.695	3196	2321.35
857.4173	1072.6679	3199.1	2323.1
857.5623	1074.6402	3214.7	2341.1
857.7073	1076.6117	3232.85	2351.6
857.8523	1078.5826	3212.25	2336.8
857.9973	1080.5527	3174.8	2295.55
858.1423	1082.5221	3146.75	2270.55
858.2873	1084.4908	3110.8	2234.8
858.4323	1086.4587	3091	2213.4
858.5773	1088.426	3070.05	2192.8
858.7223	1090.3925	3056.4	2175.6
858.8673	1092.3584	3061.15	2186
859.0123	1094.3235	3061.25	2188.7
859.1573	1096.2879	3072.85	2195.7
859.3022	1098.2515	3082.3	2204.45
859.4472	1100.2145	3090.9	2215.75
859.5922	1102.1767	3106.85	2227.3
859.7371	1104.1382	3128.05	2252.7
859.8821	1106.099	3175	2295
860.027	1108.0591	3194.6	2317.65
860.172	1110.0185	3231.4	2353.7
860.3169	1111.9771	3255.75	2379.85
860.4619	1113.9351	3277.45	2399.3
860.6068	1115.8923	3341.8	2464.1
860.7517	1117.8488	3353.55	2474.8
860.8967	1119.8045	3331.55	2452.75
861.0416	1121.7596	3242	2365.45
861.1865	1123.7139	3152.45	2276.85
861.3314	1125.6675	3097.45	2219.3
861.4763	1127.6204	3077.95	2200.1
861.6212	1129.5726	3090.05	2211
861.7661	1131.524	3103.2	2224.95
861.911	1133.4748	3068.2	2190.2
862.0559	1135.4248	3007.4	2128.85
862.2008	1137.3741	2961.1	2083.6
862.3457	1139.3226	2934.3	2054.5
862.4905	1141.2705	2923.05	2045.4
862.6354	1143.2176	2932.05	2048.6
862.7803	1145.164	2934	2053.65
862.9251	1147.1097	2926.75	2047.9
863.07	1149.0546	2912.4	2032.5
863.2148	1150.9989	2897.95	2019.25
863.3597	1152.9424	2867.45	1988.3
863.5045	1154.8852	2845.75	1968.3
863.6493	1156.8272	2836.15	1958.2
863.7942	1158.7686	2837.9	1952.55
863.939	1160.7092	2827.05	1947.65
864.0838	1162.6491	2825.75	1943.55
864.2286	1164.5883	2815.45	1937.9
864.3734	1166.5267	2837.85	1957.45
864.5182	1168.4644	2854.4	1974.4
864.663	1170.4014	2863.65	1978.95
864.8078	1172.3377	2882	2001.75
864.9526	1174.2732	2925.25	2045.15
865.0974	1176.2081	2969.55	2088.9
865.2421	1178.1421	3052.75	2168.6
865.3869	1180.0755	3155.7	2277.4
865.5317	1182.0082	3213.3	2335.4
865.6764	1183.9401	3215.6	2333.15
865.8212	1185.8713	3149.45	2272.25
865.9659	1187.8017	3047.35	2168.7
866.1106	1189.7315	2950.9	2074.2
866.2554	1191.6605	2874.45	1994
866.4001	1193.5888	2828.1	1948.8
866.5448	1195.5163	2792.7	1913.6
866.6895	1197.4432	2779.35	1899.3
866.8342	1199.3693	2764.8	1883.45
866.9789	1201.2947	2730.55	1848.4
867.1236	1203.2193	2714.9	1834.05
867.2683	1205.1432	2705.35	1824.35
867.413	1207.0664	2709	1827.35
867.5576	1208.9889	2698.45	1814.5
867.7023	1210.9106	2699.6	1819.5
867.847	1212.8316	2687.6	1807.75
867.9916	1214.7519	2686.35	1796.75
868.1363	1216.6715	2686.95	1808.1
868.2809	1218.5903	2704.1	1825.8
868.4255	1220.5084	2710.8	1829.05
868.5701	1222.4257	2709.8	1828.2
868.7148	1224.3424	2701.2	1822
868.8594	1226.2583	2711.3	1824.85
869.004	1228.1735	2732.5	1850.05
869.1486	1230.0879	2753	1870.95
869.2932	1232.0016	2783.1	1900.05
869.4377	1233.9146	2785.7	1902.35
869.5823	1235.8269	2811.9	1928.8
869.7269	1237.7384	2828.55	1946.7
869.8715	1239.6492	2798.15	1917.45
870.016	1241.5592	2802.7	1920.05
870.1606	1243.4686	2832.4	1949.35
870.3051	1245.3772	2876.65	1995.65
870.4496	1247.285	2936.1	2052.3
870.5941	1249.1922	3006.75	2126.5
870.7387	1251.0986	3057.2	2175.85
870.8832	1253.0042	3100	2221.1
871.0277	1254.9092	3171.25	2288.75
871.1722	1256.8134	3237.45	2357.65
871.3167	1258.7169	3318	2435.3
871.4611	1260.6196	3360.15	2480.6
871.6056	1262.5216	3385.85	2500.85
871.7501	1264.4229	3380.25	2497.25
871.8945	1266.3234	3356.1	2472.4
872.039	1268.2232	3316.5	2434.45
872.1834	1270.1223	3268.45	2383.7
872.3278	1272.0207	3222.6	2340.85
872.4723	1273.9183	3206.1	2318.9
872.6167	1275.8151	3202.5	2320.15
872.7611	1277.7113	3230.75	2347.05
872.9055	1279.6067	3266.05	2384.05
873.0499	1281.5014	3379.15	2491.95
873.1943	1283.3953	3531.2	2646.25
873.3386	1285.2885	3678.85	2793.85
873.483	1287.181	3822.8	2938.1
873.6274	1289.0727	3870.5	2988.8
873.7717	1290.9637	3821.45	2937.8
873.9161	1292.854	3737.7	2853.9
874.0604	1294.7435	3626.4	2743.45
874.2047	1296.6323	3528.1	2645.95
874.349	1298.5204	3418.15	2531.8
874.4933	1300.4077	3355	2469.7
874.6376	1302.2943	3312.35	2427.3
874.7819	1304.1802	3257.25	2375
874.9262	1306.0653	3233.7	2347.15
875.0705	1307.9497	3202.65	2318.8
875.2147	1309.8333	3191.9	2309.4
875.359	1311.7162	3161.45	2277.65
875.5032	1313.5984	3156.25	2269.3
875.6475	1315.4798	3130.75	2235.3
875.7917	1317.3605	3119.85	2230
875.9359	1319.2405	3135.7	2250.4
876.0801	1321.1197	3119.6	2233
876.2243	1322.9982	3101.6	2213.3
876.3685	1324.876	3052.55	2169.05
876.5127	1326.753	2980.35	2096.85
876.6569	1328.6293	2901.75	2016.45
876.801	1330.5048	2831.25	1945.2
876.9452	1332.3796	2754.25	1873.3
877.0893	1334.2537	2721.2	1814.65
877.2335	1336.127	2659.9	1775.2
877.3776	1337.9996	2628.5	1743.6
877.5217	1339.8714	2600.95	1718.5
877.6658	1341.7426	2624.8	1696.35
877.8099	1343.6129	2571.25	1686.45
877.954	1345.4826	2556.95	1673.55
878.0981	1347.3515	2543.05	1655.85
878.2422	1349.2196	2533.15	1647.3
878.3862	1351.087	2514.75	1629.5
878.5303	1352.9537	2517.85	1632.85
878.6743	1354.8197	2517.9	1633.9
878.8184	1356.6849	2509.5	1626.35
878.9624	1358.5493	2523.35	1639
879.1064	1360.4131	2540.35	1656.4
879.2504	1362.276	2567.15	1683.2
879.3944	1364.1383	2576.45	1692.2
879.5384	1365.9998	2597	1706.6
879.6823	1367.8606	2594.35	1708.75
879.8263	1369.7206	2578.65	1693.85
879.9702	1371.5799	2577	1688.65
880.1142	1373.4384	2575.8	1691.05
880.2581	1375.2962	2553.55	1669.55
880.402	1377.1533	2509.05	1624.45
880.5459	1379.0096	2463.75	1578.85
880.6898	1380.8652	2435.25	1551.55
880.8337	1382.7201	2404.15	1520.35
880.9776	1384.5742	2387.2	1502.55
881.1215	1386.4275	2358.3	1472.6
881.2653	1388.2802	2346.7	1464.2
881.4092	1390.132	2320.75	1436.75
881.553	1391.9832	2322.5	1436.2
881.6968	1393.8336	2301.55	1416.2
881.8406	1395.6832	2298.5	1410.8
881.9844	1397.5322	2283.8	1399.2
882.1282	1399.3803	2276.7	1386.05
882.272	1401.2278	2264.75	1380.25
882.4158	1403.0745	2262.4	1379.05
882.5595	1404.9204	2227.25	1344.85
882.7033	1406.7656	2234.3	1349
882.847	1408.6101	2230.15	1345.75
882.9908	1410.4538	2222.85	1337.95
883.1345	1412.2968	2216.65	1332.6
883.2782	1414.139	2208.75	1322.5
883.4219	1415.9805	2203.8	1320.15
883.5656	1417.8213	2237.9	1331.45
883.7092	1419.6613	2225.2	1341.2
883.8529	1421.5006	2243.1	1357.85
883.9965	1423.3391	2265.85	1382.5
884.1402	1425.1769	2300.95	1416.8
884.2838	1427.0139	2361.55	1477.55
884.4274	1428.8502	2428.35	1541.75
884.571	1430.6858	2482.55	1597.6
884.7146	1432.5206	2499.5	1614.75
884.8582	1434.3547	2500.85	1614.55
885.0018	1436.188	2483.2	1597
885.1453	1438.0206	2471.4	1586.5
885.2889	1439.8524	2450.4	1565.7
885.4324	1441.6835	2448.75	1562
885.5759	1443.5139	2445	1557.35
885.7194	1445.3435	2430.4	1545.85
885.8629	1447.1724	2444.05	1560.2
886.0064	1449.0005	2439.4	1554.15
886.1499	1450.8279	2439.9	1554.05
886.2933	1452.6545	2420.35	1535.65
886.4368	1454.4804	2430.35	1548
886.5802	1456.3056	2420.45	1527
886.7237	1458.13	2397.5	1512.1
886.8671	1459.9536	2390.8	1504.7
887.0105	1461.7766	2361.2	1475.65
887.1539	1463.5987	2320.45	1434.2
887.2972	1465.4202	2292.85	1407.1
887.4406	1467.2409	2261.2	1374.8
887.584	1469.0608	2234.85	1348.6
887.7273	1470.88	2206.85	1320.1
887.8706	1472.6984	2175.45	1291.7
888.0139	1474.5161	2149.15	1261.35
888.1572	1476.3331	2130.3	1244.75
888.3005	1478.1493	2135.7	1249
888.4438	1479.9648	2131.05	1246.25
888.5871	1481.7795	2119	1233
888.7303	1483.5935	2121.45	1235.8
888.8736	1485.4067	2106.5	1220.45
889.0168	1487.2192	2122.8	1238.8
889.16	1489.031	2106.95	1217.5
889.3032	1490.842	2100.95	1214.8
889.4464	1492.6522	2107.15	1222.65
889.5896	1494.4618	2113.6	1226.95
889.7327	1496.2705	2111.3	1227.5
889.8759	1498.0785	2096.4	1209.45
890.019	1499.8858	2101.9	1216.05
890.1622	1501.6924	2074.6	1188.35
890.3053	1503.4981	2065.15	1180.45
890.4484	1505.3032	2069.1	1183.2
890.5914	1507.1075	2059.8	1171.6
890.7345	1508.911	2066.25	1178.55
890.8776	1510.7138	2052.45	1165.15
891.0206	1512.5159	2030.2	1142.45
891.1637	1514.3172	2032.9	1145.45
891.3067	1516.1178	2018.8	1132.95
891.4497	1517.9176	2021.25	1131.55
891.5927	1519.7166	2016.15	1129.95
891.7357	1521.515	2007.05	1114.65
891.8786	1523.3126	2005.1	1117.2
892.0216	1525.1094	1990.5	1102.85
892.1645	1526.9055	1978.65	1092.85
892.3074	1528.7008	1969.8	1081.9
892.4503	1530.4954	1974.7	1088.45
892.5932	1532.2893	1969.05	1084.4
892.7361	1534.0824	1968.3	1076.65
892.879	1535.8747	1952.3	1067.6
893.0218	1537.6663	1945.8	1060.8
893.1647	1539.4572	1947.15	1059.45
893.3075	1541.2473	1939.1	1050.9
893.4503	1543.0367	1931.2	1044.8
893.5931	1544.8253	1935.15	1044.2
893.7359	1546.6132	1940	1051.95
893.8787	1548.4003	1935.05	1037.35
894.0214	1550.1867	1953.45	1057.1
894.1642	1551.9723	1950.75	1059.3
894.3069	1553.7572	1956.55	1070.9
894.4496	1555.5414	1961.65	1075.9
894.5923	1557.3247	1984.8	1097.05
894.735	1559.1074	2001.3	1116.15
894.8777	1560.8893	2026	1141.5
895.0204	1562.6705	2066.8	1182.4
895.163	1564.4509	2087.7	1202.3
895.3056	1566.2305	2086.95	1202.2
895.4482	1568.0094	2097.1	1212.2
895.5908	1569.7876	2094.35	1208.55
895.7334	1571.565	2089.75	1204.7
895.876	1573.3417	2093.55	1208.35
896.0186	1575.1176	2095.65	1209.45
896.1611	1576.8928	2114.75	1230.05
896.3036	1578.6672	2122	1238.95
896.4461	1580.4409	2138.35	1253.2
896.5886	1582.2138	2170.55	1283.35
896.7311	1583.986	2194.75	1305.1
896.8736	1585.7575	2225.35	1339.3
897.0161	1587.5282	2255.8	1372.15
897.1585	1589.2981	2284.35	1398.9
897.3009	1591.0673	2291.1	1405.4
897.4433	1592.8358	2311.75	1425.8
897.5857	1594.6035	2291.25	1403.65
897.7281	1596.3704	2274.9	1388.35
897.8705	1598.1366	2259.55	1374.25
898.0128	1599.9021	2235.3	1350.05
898.1551	1601.6668	2201.6	1315
898.2975	1603.4308	2188.5	1301.95
898.4398	1605.194	2187.6	1297.9
898.5821	1606.9564	2202.65	1316.1
898.7243	1608.7182	2241.3	1352
898.8666	1610.4791	2305.1	1421.15
899.0088	1612.2394	2380.3	1495.65
899.1511	1613.9988	2492.75	1610.7
899.2933	1615.7576	2559.95	1673.65
899.4355	1617.5156	2594.8	1703.35
899.5776	1619.2728	2598.3	1712.8
899.7198	1621.0293	2513.9	1630.2
899.862	1622.785	2418	1531.45
900.0041	1624.54	2313	1425.35
900.1462	1626.2942	2214	1326.85
900.2883	1628.0477	2108.45	1220.8
900.4304	1629.8005	2022.95	1135.15
900.5725	1631.5525	1959.2	1074.35
900.7145	1633.3037	1923.6	1038
900.8566	1635.0542	1880.7	997.15
900.9986	1636.804	1851.9	968.55
901.1406	1638.553	1882.1	947.8
901.2826	1640.3013	1803.05	916.05
901.4245	1642.0488	1790.3	904.4
901.5665	1643.7955	1765.05	882.45
901.7085	1645.5416	1765.4	879.4
901.8504	1647.2868	1757.1	871
901.9923	1649.0313	1743.65	857.85
902.1342	1650.7751	1730.95	840.65
902.2761	1652.5181	1729.85	844.7
902.4179	1654.2604	1724.95	839.4
902.5598	1656.0019	1728.25	843.4
902.7016	1657.7427	1743.3	858.35
902.8434	1659.4828	1748.75	863
902.9852	1661.222	1772.75	886.7
903.127	1662.9606	1791.4	905.65
903.2687	1664.6984	1820.7	935.3
903.4105	1666.4354	1837.25	953.35
903.5522	1668.1717	1837.05	949.95
903.6939	1669.9072	1799	913.75
903.8356	1671.642	1765.2	875.85
903.9773	1673.3761	1720.45	834.05
904.119	1675.1094	1690.4	805.35
904.2606	1676.8419	1669	783.75
904.4022	1678.5737	1657.1	772.3
904.5439	1680.3048	1635.8	751.65
904.6855	1682.0351	1624	737.15
904.827	1683.7646	1622.3	732.4
904.9686	1685.4934	1613.2	728.4
905.1101	1687.2215	1610.15	723.8
905.2517	1688.9488	1598.7	714.95
905.3932	1690.6754	1595.6	707.6
905.5347	1692.4012	1592.8	708.55
905.6761	1694.1263	1590.9	703.2
905.8176	1695.8506	1587.95	702.4
905.9591	1697.5742	1589.15	702.1
906.1005	1699.297	1576.35	691.35
906.2419	1701.0191	1567.6	681.15
906.3833	1702.7404	1563.2	676.85
906.5246	1704.461	1555.45	668.95
906.666	1706.1808	1565.5	679.6
906.8073	1707.8999	1554.15	665.6
906.9487	1709.6182	1549.55	663
907.09	1711.3358	1546.75	661.7
907.2313	1713.0527	1550.25	666.5
907.3725	1714.7688	1548.1	657.6
907.5138	1716.4841	1541.35	654.9
907.655	1718.1987	1547.2	658.75
907.7962	1719.9126	1529.35	643.55
907.9374	1721.6257	1533.55	645.6
908.0786	1723.338	1534.15	647
908.2198	1725.0496	1526.2	638.95
908.3609	1726.7605	1532.1	646.4
908.502	1728.4706	1528.4	640.7
908.6431	1730.18	1518.55	631.2
908.7842	1731.8886	1514.65	629.7
908.9253	1733.5964	1524.85	633.8
909.0664	1735.3036	1518.3	629.35
909.2074	1737.0099	1521.05	635.05
909.3484	1738.7156	1511.45	627.85
909.4894	1740.4204	1510	621
909.6304	1742.1246	1519.05	631
909.7714	1743.8279	1504.9	620.2
909.9123	1745.5306	1505.35	618.25
910.0532	1747.2325	1502.45	616.4
910.1941	1748.9336	1500.35	618.45
910.335	1750.634	1500.45	612.1
910.4759	1752.3336	1500.25	616.05
910.6168	1754.0325	1495.8	610.2
910.7576	1755.7307	1492.8	607.85
910.8984	1757.4281	1498.95	614.85
911.0392	1759.1247	1509.45	614.85
911.18	1760.8206	1501.05	609.9
911.3208	1762.5158	1498.75	609.4
911.4615	1764.2102	1487.5	605.1
911.6022	1765.9039	1491.45	607.55
911.7429	1767.5968	1487.95	602.15
911.8836	1769.289	1485.1	600.15
912.0243	1770.9804	1481.5	593.3
912.1649	1772.6711	1486.45	598.9
912.3056	1774.361	1487.1	598.8
912.4462	1776.0502	1480.3	593.55
912.5868	1777.7386	1489.8	601
912.7274	1779.4263	1478	591.55
912.8679	1781.1132	1481.85	595.75
913.0084	1782.7994	1466.5	578.7
913.149	1784.4849	1462.55	577.5
913.2895	1786.1696	1470.9	580
913.4299	1787.8535	1466.75	581.05
913.5704	1789.5367	1458.15	571.95
913.7108	1791.2192	1465.8	579.25
913.8513	1792.9009	1486.65	576.95
913.9917	1794.5818	1462.45	575.55
914.132	1796.2621	1460.55	575.85
914.2724	1797.9415	1452.45	567.25
914.4128	1799.6202	1455.3	568.75
914.5531	1801.2982	1453.95	566.15
914.6934	1802.9755	1448.55	561.05
914.8337	1804.6519	1450.5	562.55
914.9739	1806.3277	1446.4	560.8
915.1142	1808.0027	1443.1	559.05
915.2544	1809.6769	1451.5	565.2
915.3946	1811.3504	1443.25	556.7
915.5348	1813.0231	1440.2	553.55
915.675	1814.6951	1437.15	550.1
915.8151	1816.3664	1443	551.8
915.9553	1818.0369	1431.9	544.35
916.0954	1819.7067	1438.4	553.75
916.2355	1821.3757	1430.8	543.1
916.3755	1823.044	1431.55	545.3
916.5156	1824.7115	1430.15	544.2
916.6556	1826.3783	1432.05	546.75
916.7956	1828.0443	1422.95	537.05
916.9356	1829.7096	1427.9	540
917.0756	1831.3741	1435.9	547.05
917.2155	1833.0379	1419.85	534.4
917.3555	1834.701	1426.55	539.2
917.4954	1836.3633	1429.35	543.25
917.6353	1838.0248	1423.85	535.5
917.7751	1839.6856	1421.1	534.5
917.915	1841.3457	1414.25	527.3
918.0548	1843.005	1415.9	529.05
918.1946	1844.6636	1414.5	529.75
918.3344	1846.3214	1414.1	530.15
918.4742	1847.9785	1414.95	529.9
918.6139	1849.6349	1413.2	528.25
918.7537	1851.2904	1415.5	520.45
918.8934	1852.9453	1407.15	522.45
919.0331	1854.5994	1406.7	518.6
919.1727	1856.2528	1416.5	526.2
919.3124	1857.9054	1406.45	520.3
919.452	1859.5572	1403	516.65
919.5916	1861.2083	1407.55	521.85
919.7312	1862.8587	1396.7	511.85
919.8708	1864.5084	1399.15	512.75
920.0103	1866.1572	1401.8	517.1
920.1498	1867.8054	1393.05	507.05
920.2893	1869.4528	1398.2	509.9
920.4288	1871.0994	1398.25	513.5
920.5683	1872.7453	1394.15	505.15
920.7077	1874.3905	1391.05	496.65
920.8471	1876.0349	1389.85	505.1
920.9865	1877.6786	1399.55	511.85
921.1259	1879.3215	1391.35	505.25
921.2653	1880.9637	1380.55	493.5
921.4046	1882.6051	1386.1	501.85
921.5439	1884.2458	1388.05	497.75
921.6832	1885.8858	1381.9	495.55
921.8225	1887.525	1386.85	498.9
921.9617	1889.1634	1377.65	490.85
922.101	1890.8011	1384.95	496.8
922.2402	1892.4381	1374.4	488.75
922.3794	1894.0743	1376.35	490.3
922.5185	1895.7098	1371.55	486.65
922.6577	1897.3446	1379.65	492.35
922.7968	1898.9786	1376.9	484.15
922.9359	1900.6118	1363.45	477.9
923.075	1902.2443	1369.65	481.85
923.214	1903.8761	1368.65	480.4
923.3531	1905.5071	1367.55	480.75
923.4921	1907.1374	1362	475.9
923.6311	1908.7669	1364.45	478.15
923.77	1910.3957	1365.65	480.3
923.909	1912.0237	1354.6	468.6
924.0479	1913.651	1357.6	470.05
924.1868	1915.2776	1359.45	475.35
924.3257	1916.9034	1353.1	468.95
924.4646	1918.5285	1352.25	466.8
924.6034	1920.1528	1358.15	471.55
924.7422	1921.7764	1349.15	462.55
924.881	1923.3992	1347.85	463.4
925.0198	1925.0213	1341.65	455.9
925.1586	1926.6427	1347.65	462.25
925.2973	1928.2633	1408.15	452.7
925.436	1929.8832	1346.2	460.1
925.5747	1931.5023	1347.65	461.05
925.7134	1933.1207	1340	454.4
925.852	1934.7383	1339.35	452.45
925.9906	1936.3552	1332.65	445.6
926.1292	1937.9714	1333.1	444.35
926.2678	1939.5868	1340.75	452.6
926.4064	1941.2015	1331.75	444.75
926.5449	1942.8154	1332.15	445.3
926.6834	1944.4286	1324.4	437.95
926.8219	1946.041	1351.95	443.15
926.9604	1947.6528	1325.4	433.8
927.0988	1949.2637	1327.9	441.4
927.2372	1950.8739	1330.05	442.7
927.3756	1952.4834	1323.35	436.15
927.514	1954.0921	1327	440
927.6523	1955.7001	1322.85	430.15
927.7907	1957.3074	1318.25	432.4
927.929	1958.9139	1320.05	433.8
928.0673	1960.5197	1321.4	433.9
928.2055	1962.1247	1318.55	432.7
928.3438	1963.729	1307.65	423.95
928.482	1965.3325	1332.45	422.4
928.6202	1966.9353	1313.25	427.4
928.7584	1968.5374	1313.5	426.15
928.8965	1970.1387	1308.1	422.1
929.0346	1971.7393	1312.7	427.15
929.1727	1973.3392	1307.7	421.05
929.3108	1974.9383	1300	415.35
929.4489	1976.5366	1300.75	414
929.5869	1978.1342	1302.45	417.6
929.7249	1979.7311	1297.15	410.8
929.8629	1981.3273	1303.2	417.3
930.0009	1982.9227	1302.4	416.05
930.1388	1984.5173	1296.45	411.2
930.2767	1986.1112	1292.85	407.7
930.4146	1987.7044	1294.45	411.05
930.5525	1989.2968	1296.85	410.55
930.6904	1990.8885	1296.05	407.15
930.8282	1992.4795	1292.85	404.9
930.966	1994.0697	1285.75	400.6
931.1038	1995.6592	1287.35	403.6
931.2415	1997.2479	1282.85	398.45
931.3793	1998.8359	1283.6	398.7
931.517	2000.4232	1283.9	399.25
931.6547	2002.0097	1280.65	399.35
931.7923	2003.5955	1282.6	395.8
931.93	2005.1805	1288.95	402.7
932.0676	2006.7648	1281.65	395.6
932.2052	2008.3484	1279.1	394.25
932.3427	2009.9312	1281.7	394.2
932.4803	2011.5133	1276.15	391.75
932.6178	2013.0946	1278.75	393.45
932.7553	2014.6752	1273.65	388.1
932.8928	2016.2551	1276.15	389.75
933.0302	2017.8342	1273.3	388.25
933.1676	2019.4126	1275.9	392.5
933.305	2020.9902	1274.65	388.6
933.4424	2022.5672	1273.65	387.65
933.5798	2024.1433	1274.8	381
933.7171	2025.7188	1261.8	377.05
933.8544	2027.2935	1267.15	381.6
933.9917	2028.8674	1263.8	380.4
934.129	2030.4406	1264.4	382.4
934.2662	2032.0131	1263.25	379.5
934.4034	2033.5849	1273.4	385.2
934.5406	2035.1559	1262.3	378.3
934.6778	2036.7261	1262.7	377.95
934.8149	2038.2957	1266.3	381.3
934.952	2039.8645	1258.9	375.25
935.0891	2041.4325	1265.75	377.95
935.2262	2042.9998	1260.3	375.75
935.3632	2044.5664	1263.1	376.9
935.5002	2046.1323	1252.9	368.25
935.6372	2047.6974	1259.3	375.3
935.7742	2049.2617	1256.8	372.4
935.9111	2050.8254	1264.15	374.95
936.048	2052.3883	1259.85	372.65
936.1849	2053.9504	1260.5	375.3
936.3218	2055.5118	1256.5	373.1
936.4586	2057.0725	1259.25	371.25
936.5955	2058.6325	1251	365.7
936.7323	2060.1917	1250.95	366.15
936.869	2061.7502	1252.25	361.65
937.0058	2063.3079	1248.4	365.25
937.1425	2064.8649	1251.75	362.55
937.2792	2066.4212	1246.8	361.55
937.4159	2067.9767	1249.75	366.95
937.5525	2069.5315	1250.4	366.3
937.6891	2071.0856	1243.7	357.55
937.8257	2072.6389	1246.45	359.7
937.9623	2074.1915	1242.8	361.2
938.0989	2075.7433	1248.3	361.45
938.2354	2077.2945	1237.85	354.3
938.3719	2078.8448	1243.7	359.7
938.5084	2080.3945	1245.8	362.4
938.6448	2081.9434	1246.3	363.25
938.7812	2083.4916	1245.35	360.05
938.9176	2085.039	1239.95	353.2
939.054	2086.5857	1238.8	353.2
939.1903	2088.1317	1230.05	344.35
939.3267	2089.677	1242.55	356.4
939.463	2091.2215	1241.25	357.45
939.5992	2092.7652	1234.25	348.2
939.7355	2094.3083	1239.2	353.35
939.8717	2095.8506	1235.65	351.7
940.0079	2097.3921	1235.65	350.45
940.1441	2098.933	1233.45	348.85
940.2802	2100.4731	1230.15	344.9
940.4163	2102.0124	1252.4	350.95
940.5524	2103.5511	1237.4	352.75
940.6885	2105.089	1231.2	345.55
940.8245	2106.6261	1234.1	349
940.9606	2108.1626	1230.95	345.3
941.0965	2109.6983	1257.05	346.1
941.2325	2111.2332	1233.45	346.2
941.3684	2112.7675	1233.6	345.65
941.5044	2114.301	1228.45	343.05
941.6403	2115.8337	1222.8	339.6
941.7761	2117.3657	1226.35	342.25
941.912	2118.897	1233.3	347.75
942.0478	2120.4276	1233.8	345.35
942.1835	2121.9575	1228.7	342.65
942.3193	2123.4866	1235.6	336.65
942.455	2125.0149	1229.15	342.35
942.5907	2126.5426	1225.3	340.35
942.7264	2128.0695	1227.2	338.2
942.8621	2129.5956	1220.5	336.7
942.9977	2131.1211	1226.3	335.95
943.1333	2132.6458	1221.55	335.4
943.2689	2134.1698	1221.45	337.2
943.4044	2135.693	1217.6	330.55
943.54	2137.2155	1220.65	332.35
943.6755	2138.7373	1221.75	336.35
943.8109	2140.2584	1218.5	332.9
943.9464	2141.7787	1227.2	335.9
944.0818	2143.2983	1211.15	328.45
944.2172	2144.8171	1211	328.05
944.3526	2146.3353	1211.5	324.75
944.4879	2147.8527	1209.8	326.4
944.6232	2149.3693	1211.05	325.65
944.7585	2150.8853	1216.4	331.25
944.8938	2152.4005	1217.65	331.9
945.029	2153.9149	1205.6	321.45
945.1642	2155.4287	1311.8	326.95
945.2994	2156.9417	1212.55	325.35
945.4346	2158.454	1207.4	320.3
945.5697	2159.9655	1200.7	315.1
945.7048	2161.4764	1210.3	324.7
945.8399	2162.9865	1202.5	317.7
945.9749	2164.4958	1200.25	313.1
946.1099	2166.0045	1208.25	320.15
946.2449	2167.5124	1203.6	319.45
946.3799	2169.0195	1203.45	319.65
946.5148	2170.526	1202.25	316.25
946.6498	2172.0317	1200.7	315.95
946.7846	2173.5367	1198.6	314.2
946.9195	2175.0409	1198.35	314.5
947.0543	2176.5445	1200	315.85
947.1891	2178.0473	1199.75	312.85
947.3239	2179.5494	1200.85	312.2
947.4587	2181.0507	1192.8	308.2
947.5934	2182.5513	1195	310.4
947.7281	2184.0512	1199.85	315.3
947.8628	2185.5504	1192.7	309.8
947.9974	2187.0488	1188.3	302.7
948.132	2188.5465	1191.9	309.1
948.2666	2190.0435	1187.55	301.15
948.4012	2191.5397	1187.6	303.25
948.5357	2193.0353	1192.55	307.55
948.6702	2194.5301	1184.2	297.2
948.8047	2196.0241	1193	305.8
948.9392	2197.5175	1184.55	301.9
949.0736	2199.0101	1189.8	300.85
949.208	2200.502	1180.45	296.95
949.3424	2201.9931	1183.4	297.45
949.4767	2203.4835	1183.15	296.8
949.611	2204.9733	1207.45	306.1
949.7453	2206.4622	1180.5	296.2
949.8796	2207.9505	1178.05	291.1
950.0138	2209.438	1176.2	293.95
950.148	2210.9248	1177.7	292.9
950.2822	2212.4109	1180.35	297.15
950.4164	2213.8962	1180.75	292.7
950.5505	2215.3809	1176.35	288.55
950.6846	2216.8648	1171.35	286.35
950.8186	2218.3479	1174	286.1
950.9527	2219.8304	1181.1	294.2
951.0867	2221.3121	1176.95	290.2
951.2207	2222.7931	1173.85	289.9
951.3546	2224.2733	1167	281.8
951.4886	2225.7529	1168.1	282.5
951.6225	2227.2317	1170.7	284.8
951.7563	2228.7098	1168.4	283.95
951.8902	2230.1872	1166.35	280.7
952.024	2231.6638	1168.5	283.05
952.1578	2233.1397	1167.4	278.8
952.2916	2234.6149	1163.55	279.15
952.4253	2236.0894	1169.5	283.8
952.559	2237.5632	1164.65	278.6
952.6927	2239.0362	1161.7	277.95
952.8263	2240.5085	1163.55	277.65
952.9599	2241.9801	1159.35	273.1
953.0935	2243.4509	1160.4	274.9
953.2271	2244.921	1163.75	278.9
953.3606	2246.3904	1156.3	268.1
953.4941	2247.8591	1154	270
953.6276	2249.3271	1155.35	270.85
953.7611	2250.7943	1156.2	268.6
953.8945	2252.2608	1154.1	269.15
954.0279	2253.7266	1152.7	268.3
954.1612	2255.1917	1149.3	265.8
954.2946	2256.656	1150.05	263.3
954.4279	2258.1197	1149.7	265.2
954.5612	2259.5826	1153.8	265.5
954.6944	2261.0447	1152.25	263.9
954.8276	2262.5062	1149	263.15
954.9608	2263.9669	1149.45	263.35
955.094	2265.4269	1145.2	262.15
955.2271	2266.8862	1144.8	260.9
955.3602	2268.3448	1148.3	262.3
955.4933	2269.8026	1150.8	264.6
955.6264	2271.2598	1143.35	258.4
955.7594	2272.7162	1140.5	256.7
955.8924	2274.1719	1144.5	261.75
956.0253	2275.6268	1140.4	255.45
956.1583	2277.0811	1141.9	256.65
956.2912	2278.5346	1138.55	253.9
956.4241	2279.9874	1143.7	259.2
956.5569	2281.4395	1141.15	258.05
956.6897	2282.8908	1137.7	247.9
956.8225	2284.3414	1142.1	253.55
956.9553	2285.7914	1137.65	253.9
957.088	2287.2406	1141.3	254.15
957.2207	2288.689	1142.1	256.15
957.3534	2290.1368	1135.35	248.95
957.486	2291.5838	1137.6	251.8
957.6186	2293.0302	1135.7	248.85
957.7512	2294.4758	1131.05	243.8
957.8838	2295.9206	1134.45	246.35
958.0163	2297.3648	1131.85	247.75
958.1488	2298.8082	1133.8	247.45
958.2813	2300.251	1132.1	248.05
958.4137	2301.693	1128	239.5
958.5461	2303.1343	1129.9	243.65
958.6785	2304.5748	1132.1	246.7
958.8108	2306.0147	1128.9	242.35
958.9432	2307.4538	1126.9	240.15
959.0754	2308.8922	1125.8	241.95
959.2077	2310.3299	1124.45	240.55
959.3399	2311.7669	1130.05	245.8
959.4721	2313.2031	1125.25	241.25
959.6043	2314.6387	1124.05	239
959.7365	2316.0735	1127.15	242.35
959.8686	2317.5076	1124.35	237.45
960.0006	2318.941	1122.25	236.05
960.1327	2320.3737	1121.7	236.75
960.2647	2321.8056	1125.15	239.3
960.3967	2323.2369	1121.55	235.8
960.5287	2324.6674	1125.75	238.9
960.6606	2326.0972	1122.25	235.45
960.7925	2327.5263	1124.45	241.55
960.9244	2328.9547	1122.7	236.75
961.0562	2330.3823	1124.25	237.35
961.1881	2331.8092	1117.35	230.65
961.3198	2333.2355	1116.55	232.15
961.4516	2334.661	1116.1	229.35
961.5833	2336.0858	1114	228.25
961.715	2337.5098	1113	229.3
961.8467	2338.9332	1112.55	226.55
961.9783	2340.3558	1120.9	232.6
962.1099	2341.7778	1107.9	220.5
962.2415	2343.199	1117.55	232.05
962.373	2344.6195	1111.75	226.75
962.5045	2346.0393	1110.7	226
962.636	2347.4583	1109.55	222.55
962.7675	2348.8767	1112.95	226.35
962.8989	2350.2943	1108.75	222.55
963.0303	2351.7113	1105.8	218.4
963.1617	2353.1275	1107.65	221.05
963.293	2354.543	1132.6	221.6
963.4243	2355.9578	1111.4	225.1
963.5556	2357.3718	1107.7	223.05
963.6868	2358.7852	1108.15	219.45
963.818	2360.1978	1105.6	219.4
963.9492	2361.6098	1098.35	213.85
964.0803	2363.021	1106.9	215.7
964.2114	2364.4315	1104.4	219
964.3425	2365.8413	1111.7	219.15
964.4736	2367.2504	1101.5	216.75
964.6046	2368.6587	1101.25	216.2
964.7356	2370.0664	1097.8	212.4
964.8666	2371.4733	1098.45	212.1
964.9975	2372.8795	1099.25	214.4
965.1284	2374.285	1095.5	209.4
965.2593	2375.6899	1096.25	212.35
965.3901	2377.0939	1093.25	207.85
965.5209	2378.4973	1088.05	203.5
965.6517	2379.9	1098.3	212.15
965.7825	2381.3019	1094.05	210
965.9132	2382.7032	1092.8	208.5
966.0439	2384.1037	1093.55	207.6
966.1745	2385.5035	1090.95	206.6
966.3051	2386.9027	1085.9	202
966.4357	2388.3011	1095.85	207.4
966.5663	2389.6987	1090.1	206.4
966.6968	2391.0957	1091.15	203.5
966.8273	2392.492	1087.45	201.1
966.9578	2393.8876	1088.05	201.45
967.0882	2395.2824	1084.6	198.1
967.2186	2396.6765	1082.05	196.95
967.349	2398.07	1081.3	195.65
967.4793	2399.4627	1084	195.4
967.6097	2400.8547	1081.6	195.6
967.7399	2402.246	1093.3	200.9
967.8702	2403.6366	1083.75	198.35
968.0004	2405.0265	1076.05	189.7
968.1306	2406.4156	1085.7	195.7
968.2607	2407.8041	1084.05	195.05
968.3909	2409.1918	1080.85	191.75
968.521	2410.5789	1078.1	193.6
968.651	2411.9652	1078.35	187.8
968.781	2413.3508	1081	195.9
968.911	2414.7358	1076.65	190
969.041	2416.12	1075.8	190.8
969.1709	2417.5035	1072.7	185.95
969.3008	2418.8863	1073.4	186.85
969.4307	2420.2684	1068.9	183.9
969.5606	2421.6497	1073.5	186.8
969.6904	2423.0304	1071.3	185.25
969.8201	2424.4104	1074.55	189.35
969.9499	2425.7896	1071.3	183.7
970.0796	2427.1682	1066.8	180.55
970.2093	2428.546	1072.85	185.75
970.3389	2429.9232	1070.15	182.9
970.4685	2431.2996	1069.5	183.8
970.5981	2432.6753	1064.75	180
970.7277	2434.0503	1065	178.7
970.8572	2435.4246	1061.85	178.15
970.9867	2436.7982	1064.5	178.3
971.1161	2438.1711	1063.55	178
971.2456	2439.5433	1063.6	177.8
971.375	2440.9148	1069.15	178.85
971.5043	2442.2856	1065.6	180.85
971.6336	2443.6557	1068.35	180.45
971.7629	2445.025	1061.25	175.2
971.8922	2446.3937	1064	175.95
972.0214	2447.7617	1059	171.1
972.1506	2449.1289	1059.65	174.35
972.2798	2450.4955	1064.25	174.75
972.4089	2451.8613	1056.5	172.25
972.538	2453.2265	1060.45	175.1
972.6671	2454.5909	1060.55	173.1
972.7961	2455.9546	1056.9	171
972.9251	2457.3177	1061.85	176.75
973.0541	2458.68	1058.8	170.75
973.1831	2460.0416	1058.05	172.55
973.312	2461.4025	1056.8	168.55
973.4408	2462.7627	1063.05	165.3
973.5697	2464.1222	1053.8	168.8
973.6985	2465.4811	1056.05	169.3
973.8273	2466.8392	1055.9	169.85
973.956	2468.1966	1057.65	170.4
974.0847	2469.5533	1056.45	167.35
974.2134	2470.9093	1053.6	168.15
974.3421	2472.2645	1055.4	168.85
974.4707	2473.6191	1053.8	169.3
974.5993	2474.973	1054.05	170.35
974.7278	2476.3262	1051	163.8
974.8563	2477.6787	1047.4	161.55
974.9848	2479.0305	1050.95	164.6
975.1132	2480.3816	1052.15	164.35
975.2417	2481.7319	1048.6	162.8
975.37	2483.0816	1050.35	163.2
975.4984	2484.4306	1048.8	160.8
975.6267	2485.7789	1045.3	161
975.755	2487.1264	1050.35	162.6
975.8833	2488.4733	1043.15	157.8
976.0115	2489.8195	1052.65	159.05
976.1397	2491.165	1048	160.35
976.2678	2492.5097	1048.25	160.1
976.3959	2493.8538	1043.7	157.95
976.524	2495.1972	1041.1	155.3
976.6521	2496.5398	1043.9	157.3
976.7801	2497.8818	1046.45	159.8
976.9081	2499.2231	1042.45	155.8
977.036	2500.5637	1042.6	156
977.164	2501.9035	1036.45	149.1
977.2918	2503.2427	1045.45	155.1
977.4197	2504.5812	1039.75	154.95
977.5475	2505.919	1041.35	153.25
977.6753	2507.256	1036.8	150.7
977.8031	2508.5924	1040.8	156.3
977.9308	2509.9281	1044.2	152.65
978.0585	2511.2631	1038.75	154.95
978.1861	2512.5974	1035.6	150.45
978.3137	2513.9309	1035.05	148.1
978.4413	2515.2638	1062.4	151.95
978.5689	2516.596	1036.55	151.65
978.6964	2517.9275	1033.8	147.85
978.8239	2519.2583	1037.3	149.45
978.9513	2520.5884	1030.35	141.2
979.0788	2521.9178	1032.7	145.85
979.2062	2523.2465	1034.2	149.45
979.3335	2524.5745	1031.15	146.25
979.4608	2525.9018	1031.15	145.35
979.5881	2527.2284	1027.3	142.65
979.7154	2528.5543	1027.05	142.45
979.8426	2529.8796	1028.65	142.05
979.9698	2531.2041	1029.8	144.5
980.0969	2532.5279	1030.4	146.75
980.224	2533.851	1031.9	145.85
980.3511	2535.1735	1028.35	143.75
980.4781	2536.4952	1026.1	138.3
980.6052	2537.8163	1026.15	138.4
980.7321	2539.1366	1026.2	139.75
980.8591	2540.4562	1027.95	141.2
980.986	2541.7752	1030.5	147.15
981.1129	2543.0935	1028.6	141.8
981.2397	2544.411	1026.65	141.75
981.3665	2545.7279	1030.45	146.95
981.4933	2547.0441	1023.5	136.35
981.62	2548.3596	1026.65	140.4
981.7467	2549.6744	1028.8	141.8
981.8734	2550.9885	1030.8	138.65
982.0001	2552.3019	1022.4	136.85
982.1267	2553.6146	1027.6	140.9
982.2532	2554.9266	1018.1	131.1
982.3798	2556.2379	1027.05	139.5
982.5063	2557.5485	1024.15	137.95
982.6327	2558.8585	1026.3	132.8
982.7592	2560.1677	1024.25	133.15
982.8856	2561.4762	1022.1	135.35
983.0119	2562.7841	1025.25	135.65
983.1383	2564.0913	1018.2	135.7
983.2646	2565.3977	1020.15	136.2
983.3908	2566.7035	1018.75	131.55
983.517	2568.0086	1017.9	130.95
983.6432	2569.313	1018.55	130.9
983.7694	2570.6167	1024.1	135.35
983.8955	2571.9197	1019.6	134.6
984.0216	2573.222	1021.25	129.25
984.1476	2574.5236	1017.3	130.6
984.2737	2575.8246	1018.75	130.8
984.3996	2577.1248	1020.65	132
984.5256	2578.4244	1017.45	133.85
984.6515	2579.7232	1014.6	128.15
984.7774	2581.0214	1045.05	129.45
984.9032	2582.3189	1016.85	133.05
985.029	2583.6157	1026.3	127.8
985.1548	2584.9118	1015.85	130.3
985.2806	2586.2072	1012.2	127.55
985.4063	2587.5019	1016.1	131.3
985.5319	2588.7959	1015.1	128
985.6576	2590.0893	1012.7	124.7
985.7832	2591.3819	1009.9	124.65
985.9087	2592.6739	1008.85	124.25
986.0343	2593.9652	1014.95	129.5
986.1597	2595.2557	1013.95	128.4
986.2852	2596.5456	1013.65	127.1
986.4106	2597.8348	1012	128.55
986.536	2599.1234	1010.65	125.9
986.6614	2600.4112	1011.65	125.45
986.7867	2601.6983	1016	127.85
986.912	2602.9848	1013.55	127.4
987.0372	2604.2705	1018.55	126.45
987.1624	2605.5556	1013.3	127.35
987.2876	2606.84	1011.5	126.05
987.4128	2608.1237	1009.8	122.1
987.5379	2609.4067	1006.75	120.85
987.6629	2610.689	1016.55	122.85
987.788	2611.9707	1015.2	124.35
987.913	2613.2516	1010.4	119.45
988.0379	2614.5319	1006.7	119.85
988.1629	2615.8115	1007.3	123.05
988.2878	2617.0903	1005.35	119.95
988.4126	2618.3685	1003.95	118.65
988.5375	2619.6461	1005.55	117.2
988.6622	2620.9229	1003.8	118.9
988.787	2622.199	1007.25	120.25
988.9117	2623.4745	1004.05	118.05
989.0364	2624.7493	1000.55	114.8
989.161	2626.0234	1002.75	119.05
989.2857	2627.2968	999.35	115.05
989.4102	2628.5695	1005.25	117.15
989.5348	2629.8415	1006.9	120.95
989.6593	2631.1128	1003.35	116
989.7837	2632.3835	998.6	113.7
989.9082	2633.6535	1000.8	115.3
990.0326	2634.9228	997.8	112.3
990.1569	2636.1914	999	112.65
990.2812	2637.4593	1004.35	113.25
990.4055	2638.7265	1000.3	113.95
990.5298	2639.9931	1000.6	116.75
990.654	2641.259	998.1	110.75
990.7782	2642.5242	995.05	108.05
990.9023	2643.7887	998.65	110.9
991.0264	2645.0525	999.05	113.05
991.1505	2646.3156	1008.45	108
991.2745	2647.5781	992.65	108.3
991.3985	2648.8398	992.2	107.75
991.5225	2650.1009	998.95	107.5
991.6464	2651.3613	991.2	106.9
991.7703	2652.6211	992.25	104.85
991.8942	2653.8801	992.6	107.65
992.018	2655.1385	996.45	109.1
992.1418	2656.3961	993.6	106.9
992.2655	2657.6531	994.3	107.6
992.3892	2658.9094	987.65	101.6
992.5129	2660.1651	990.65	104.25
992.6366	2661.42	993.6	106.45
992.7602	2662.6743	995.2	106.9
992.8837	2663.9279	993.15	106.35
993.0073	2665.1808	993.7	107.7
993.1307	2666.433	985.4	97.4
993.2542	2667.6846	989.4	105.6
993.3776	2668.9354	995.45	106.2
993.501	2670.1856	991.05	103.65
993.6244	2671.4351	991.9	107.4
993.7477	2672.6839	991.35	105.15
993.8709	2673.9321	990.5	106.15
993.9942	2675.1795	990.45	105.75
994.1174	2676.4263	989.35	104
994.2405	2677.6724	989	104.75
994.3637	2678.9179	990.35	105.6
994.4868	2680.1626	990.65	106.2
994.6098	2681.4067	985.85	99
994.7328	2682.6501	990.35	105.45
994.8558	2683.8928	988.75	102.35
994.9788	2685.1348	985.8	97.95
995.1017	2686.3761	983.45	98.7
995.2245	2687.6168	984.2	99.6
995.3474	2688.8568	982.65	95.25
995.4702	2690.0961	984.55	101.15
995.5929	2691.3348	983.1	97.5
995.7156	2692.5727	985.1	100.15
995.8383	2693.81	983.65	99.15
995.961	2695.0466	978.95	93.75
996.0836	2696.2826	984.45	96.4
996.2062	2697.5178	984.15	95
996.3287	2698.7524	982.95	99.25
996.4512	2699.9863	983.95	95.6
996.5737	2701.2195	980.45	94.8
996.6961	2702.452	983.4	97.45
996.8185	2703.6839	981.15	97.05
996.9408	2704.9151	980.1	95.5
997.0631	2706.1456	980.7	95.25
997.1854	2707.3755	982.95	97.25
997.3077	2708.6046	984.55	96.85
997.4299	2709.8331	986	99.9
997.552	2711.0609	981.95	96.9
997.6742	2712.2881	980.75	96.4
997.7963	2713.5145	986.15	98.7
997.9183	2714.7403	982	96.7
998.0403	2715.9654	984.35	98.55
998.1623	2717.1899	998.25	95.4
998.2842	2718.4136	984.05	99.2
998.4062	2719.6367	983.9	99.7
998.528	2720.8591	992.35	101.75
998.6498	2722.0809	985.15	98.9
998.7716	2723.3019	990.2	101.8
998.8934	2724.5223	988	101.25
999.0151	2725.7421	984.95	96.5
999.1368	2726.9611	987.1	99.5
999.2584	2728.1795	991.5	100.65
999.38	2729.3972	982.3	94.8
999.5016	2730.6142	990.45	98.35
999.6231	2731.8306	979.45	92.85
999.7446	2733.0462	979.45	92.85
999.8661	2734.2612	984.25	95.55
999.9875	2735.4756	978.15	91.35
1000.1089	2736.6892	979.8	95.2
1000.2302	2737.9022	973.7	88.5
1000.3515	2739.1145	971.9	86.3
1000.4728	2740.3262	981.15	88.95
1000.594	2741.5372	975.15	88.15
1000.7152	2742.7475	972.25	85.5
1000.8363	2743.9571	976.05	89.9
1000.9575	2745.1661	975.95	86.9
1001.0785	2746.3744	972.25	86.65
1001.1996	2747.582	970.5	86.95
1001.3206	2748.7889	969.25	83.9
1001.4415	2749.9952	969.15	85.2
1001.5625	2751.2008	968.3	81.05
1001.6833	2752.4057	970.2	82.1
1001.8042	2753.61	972.15	85.2
1001.925	2754.8136	969.15	81.65
1002.0458	2756.0165	968.4	84.25
1002.1665	2757.2188	963.8	79.95
1002.2872	2758.4204	965.8	80.05
1002.4078	2759.6213	967.15	78.95
1002.5285	2760.8215	969	78.35
1002.649	2762.0211	968.5	82.65
1002.7696	2763.22	971.05	82.7
1002.8901	2764.4182	964.45	77.9
1003.0106	2765.6158	963.1	77.1
1003.131	2766.8127	962.45	78.15
1003.2514	2768.009	963.7	77.75
1003.3717	2769.2045	964.65	76.75
1003.492	2770.3994	965.85	75.9
1003.6123	2771.5936	961.85	75.3
1003.7325	2772.7872	958.85	73.75
1003.8527	2773.9801	960.7	73.85
1003.9729	2775.1723	976.75	74.6
1004.093	2776.3639	960.05	75.6
1004.2131	2777.5548	960.45	72.35
1004.3331	2778.745	961.55	75.2
1004.4531	2779.9346	957.25	73.65
1004.5731	2781.1235	961.5	74.3
1004.693	2782.3117	958.95	75.75
1004.8129	2783.4992	958.5	71.4
1004.9328	2784.6861	960.65	75.25
1005.0526	2785.8723	962	77.1
1005.1723	2787.0579	962.15	75.85
1005.2921	2788.2428	955.5	71.15
1005.4118	2789.427	960.1	76.35
1005.5314	2790.6106	958.95	74.75
1005.651	2791.7935	960.65	72.5
1005.7706	2792.9757	954.9	68.85
1005.8902	2794.1573	959.85	72.5
1006.0097	2795.3382	956.3	71.7
1006.1291	2796.5184	957.25	71.5
1006.2485	2797.698	957.8	70.75
1006.3679	2798.8769	958.4	72.8
1006.4873	2800.0551	960.1	74.75
1006.6066	2801.2327	960.4	73.45
1006.7258	2802.4096	955.8	71.75
1006.8451	2803.5859	960.05	74.6
1006.9642	2804.7615	959.6	73.1
1007.0834	2805.9364	958	75
1007.2025	2807.1106	958.75	73.15
1007.3216	2808.2842	963	78
1007.4406	2809.4572	959.25	75.6
1007.5596	2810.6294	963.45	78.6
1007.6785	2811.801	963.4	81.5
1007.7975	2812.972	964.45	81.3
1007.9163	2814.1423	962.1	79.55
1008.0352	2815.3119	966.8	81.75
1008.154	2816.4808	967.4	84.6
1008.2727	2817.6491	970.1	84.4
1008.3914	2818.8167	970.05	86.95
1008.5101	2819.9837	982.05	90.65
1008.6288	2821.15	981.75	96
1008.7474	2822.3157	983.55	98.3
1008.8659	2823.4807	989.75	104.6
1008.9844	2824.645	997.55	112.1
1009.1029	2825.8086	1001.15	118.05
1009.2214	2826.9716	1007.1	124.4
1009.3398	2828.134	1012.4	129.35
1009.4581	2829.2957	1019.25	132.7
1009.5764	2830.4567	1029.2	145.95
1009.6947	2831.617	1032.85	145.85
1009.813	2832.7767	1027.95	145.5
1009.9312	2833.9358	1033.9	149.05
1010.0493	2835.0941	1035.15	148.85
1010.1675	2836.2519	1030.2	145.3
1010.2855	2837.4089	1026.3	140.75
1010.4036	2838.5653	1021.45	136.8
1010.5216	2839.7211	1019.1	136.05
1010.6396	2840.8761	1019.7	133.35
1010.7575	2842.0306	1014.9	131.25
1010.8754	2843.1843	1017.65	131.2
1010.9932	2844.3374	1017.4	132.9
1011.111	2845.4899	1019.15	131.85
1011.2288	2846.6417	1018.45	132.3
1011.3465	2847.7928	1020.95	136.85
1011.4642	2848.9433	1021.95	136.1
1011.5818	2850.0931	1024.7	142.55
1011.6995	2851.2422	1023	136.75
1011.817	2852.3907	1021.6	134.95
1011.9345	2853.5385	1025.6	140.1
1012.052	2854.6857	1035.1	141.45
1012.1695	2855.8323	1028.4	144.85
1012.2869	2856.9781	1029.65	146.6
1012.4042	2858.1233	1033.85	146.8
1012.5216	2859.2679	1033.75	148.85
1012.6389	2860.4118	1039	154.6
1012.7561	2861.555	1042.4	152.7
1012.8733	2862.6976	1043.55	156.85
1012.9905	2863.8395	1050.05	165.35
1013.1076	2864.9808	1044.2	160.2
1013.2247	2866.1214	1047.45	163.15
1013.3417	2867.2614	1049.2	162.8
1013.4587	2868.4007	1048.15	162.5
1013.5757	2869.5393	1051.65	165.05
1013.6926	2870.6773	1058.45	170.4
1013.8095	2871.8146	1064.5	177.3
1013.9263	2872.9513	1059.4	171.35
1014.0431	2874.0874	1060.9	176.3
1014.1599	2875.2227	1056.4	170.65
1014.2766	2876.3574	1058.65	175.45
1014.3933	2877.4915	1062.8	177.55
1014.51	2878.6249	1061.25	176.3
1014.6266	2879.7577	1068.75	183.35
1014.7431	2880.8898	1078.5	182.65
1014.8596	2882.0212	1069.6	187.1
1014.9761	2883.152	1071.5	186.5
1015.0925	2884.2821	1074.05	190.6
1015.2089	2885.4116	1076.9	193.15
1015.3253	2886.5405	1079.25	193.15
1015.4416	2887.6686	1080.9	191.95
1015.5579	2888.7962	1075.3	190.7
1015.6741	2889.923	1075	191.45
1015.7903	2891.0493	1078.1	193.4
1015.9065	2892.1748	1075.6	190.5
1016.0226	2893.2997	1074.8	188.4
1016.1387	2894.424	1078.55	194.65
1016.2547	2895.5476	1074.5	191.1
1016.3707	2896.6706	1074.35	190.35
1016.4866	2897.7929	1078.35	193.1
1016.6025	2898.9145	1078.6	191.5
1016.7184	2900.0355	1076.7	190.15
1016.8342	2901.1559	1077.25	191.05
1016.95	2902.2756	1073.85	186.9
1017.0658	2903.3946	1075.8	189.8
1017.1815	2904.513	1075.7	186.7
1017.2971	2905.6308	1069.15	183.55
1017.4127	2906.7479	1072	185.2
1017.5283	2907.8643	1071.8	185.75
1017.6439	2908.9801	1066.6	183.75
1017.7594	2910.0953	1067.85	184.45
1017.8748	2911.2098	1069.1	181.05
1017.9902	2912.3236	1078.8	185.2
1018.1056	2913.4368	1070.8	183.35
1018.2209	2914.5494	1069.35	185.3
1018.3362	2915.6613	1068.7	177.9
1018.4515	2916.7725	1065.75	178.1
1018.5667	2917.8831	1064.35	178.55
1018.6819	2918.9931	1061.6	175.8
1018.797	2920.1024	1057.55	170.65
1018.9121	2921.211	1057.1	171.45
1019.0271	2922.319	1047.95	162.15
1019.1421	2923.4264	1051.25	166.45
1019.2571	2924.5331	1050.65	164.7
1019.372	2925.6391	1051.4	168.05
1019.4869	2926.7445	1048.5	166.15
1019.6017	2927.8493	1048.5	163.95
1019.7165	2928.9534	1049.75	163
1019.8313	2930.0569	1054	166.95
1019.946	2931.1597	1053.9	168.35
1020.0606	2932.2619	1050.9	165.4
1020.1753	2933.3634	1052.7	169.2
1020.2899	2934.4643	1058.45	166.6
1020.4044	2935.5645	1066	176.55
1020.5189	2936.6641	1060.8	172.35
1020.6334	2937.763	1056.35	171.95
1020.7478	2938.8613	1061.35	178.3
1020.8622	2939.959	1060.25	169.7
1020.9765	2941.056	1052.25	167.95
1021.0908	2942.1523	1046.25	160.3
1021.2051	2943.248	1043.15	157.2
1021.3193	2944.3431	1034.75	149.5
1021.4334	2945.4375	1025	137.45
1021.5476	2946.5313	1024.55	139.95
1021.6617	2947.6244	1016.05	131.35
1021.7757	2948.7169	1012.25	127.8
1021.8897	2949.8087	1004.85	122.4
1022.0037	2950.8999	997.95	112.4
1022.1176	2951.9904	992.4	107.35
1022.2315	2953.0803	991.1	106.15
1022.3453	2954.1696	985.5	99.85
1022.4591	2955.2582	979.8	96.45
1022.5728	2956.3462	981.5	96.65
1022.6865	2957.4335	978.95	93.9
1022.8002	2958.5202	983.35	98.15
1022.9138	2959.6062	976.35	91.25
1023.0274	2960.6916	981.6	96.35
1023.141	2961.7764	976.95	90
1023.2545	2962.8605	979.7	93.1
1023.3679	2963.9439	978.6	94.7
1023.4813	2965.0267	978.9	92.95
1023.5947	2966.1089	999.55	93.55
1023.708	2967.1905	976.15	90.8
1023.8213	2968.2714	977.25	93.45
1023.9346	2969.3516	970.9	86.8
1024.0478	2970.4312	980.9	87.9
1024.1609	2971.5102	973.5	87.3
1024.274	2972.5885	976.45	90.45
1024.3871	2973.6662	979.9	88.7
1024.5002	2974.7432	972.35	86.75
1024.6132	2975.8196	974.8	87.65
1024.7261	2976.8954	973.65	90.25
1024.839	2977.9705	976.65	93.1
1024.9519	2979.045	973.2	89.05
1025.0647	2980.1188	973.2	89.9
1025.1775	2981.192	972.05	86.25
1025.2902	2982.2645	975.05	91.1
1025.4029	2983.3364	975.15	90.6
1025.5156	2984.4077	968.8	83.6
1025.6282	2985.4783	973.3	83.45
1025.7407	2986.5483	964.3	81.35
1025.8532	2987.6177	959.4	74.2
1025.9657	2988.6864	960.75	76.25
1026.0782	2989.7545	962.2	75.6
1026.1906	2990.8219	957.05	73.75
1026.3029	2991.8887	957.35	67.95
1026.4152	2992.9548	953.45	67.7
1026.5275	2994.0204	950.45	66.7
1026.6397	2995.0852	946.45	63.5
1026.7519	2996.1495	944.8	60.4
1026.864	2997.2131	942.8	56.7
1026.9761	2998.276	939.85	54.2
1027.0882	2999.3383	940.75	54.75
1027.2002	3000.4	938.75	54.2
1027.3122	3001.4611	937.05	51.9
1027.4241	3002.5215	934.7	49.2
1027.536	3003.5812	932.45	46.65
1027.6478	3004.6404	932.75	49.3
1027.7596	3005.6989	934.7	46.1
1027.8714	3006.7567	932.25	48.15
1027.9831	3007.8139	948.85	43.8
1028.0947	3008.8705	930.6	46.95
1028.2064	3009.9264	931.9	46.55
1028.3179	3010.9818	926.7	42.3
1028.4295	3012.0364	924.65	39.75
1028.541	3013.0905	925.5	41.75
1028.6524	3014.1439	924.45	40.15
1028.7638	3015.1966	927.25	45.55
1028.8752	3016.2487	925.95	42.95
1028.9865	3017.3002	931.25	41.1
1029.0978	3018.3511	922.85	38.1
1029.209	3019.4013	925.05	39.85
1029.3202	3020.4509	925	40.8
1029.4314	3021.4998	924.75	40.6
1029.5425	3022.5481	922.4	38.2
1029.6535	3023.5958	922.4	39.45
1029.7645	3024.6428	924.65	39.7
1029.8755	3025.6892	924.75	42.05
1029.9864	3026.735	921.9	36.7
1030.0973	3027.7802	922.8	38.3
1030.2082	3028.8247	920.8	33.8
1030.319	3029.8685	923.15	38.1
1030.4297	3030.9118	922.25	36.8
1030.5404	3031.9544	919.9	35.1
1030.6511	3032.9963	920	36.2
1030.7617	3034.0376	920.65	35.65
1030.8723	3035.0783	924.4	36.05
1030.9829	3036.1184	924.9	40.25
1031.0934	3037.1578	922.3	38.45
1031.2038	3038.1966	921.15	34.8
1031.3142	3039.2348	921.85	37.9
1031.4246	3040.2723	932.45	39.3
1031.5349	3041.3092	921	37.7
1031.6452	3042.3455	921.9	38.4
1031.7554	3043.3811	921.25	35.4
1031.8656	3044.4161	924	40
1031.9758	3045.4505	923.9	41.7
1032.0859	3046.4842	923.05	37.55
1032.1959	3047.5173	921.25	37.95
1032.3059	3048.5498	922.8	36.75
1032.4159	3049.5816	920.05	34.35
1032.5258	3050.6128	921.4	35.2
1032.6357	3051.6434	922.25	36.6
1032.7455	3052.6734	921.4	37.25
1032.8553	3053.7027	923.75	38.55
1032.9651	3054.7314	921.85	36.85
1033.0748	3055.7594	920.8	34.55
1033.1845	3056.7868	922.95	36.45
1033.2941	3057.8136	920.15	36.75
1033.4037	3058.8398	919.9	38.35
1033.5132	3059.8653	919.15	34.4
1033.6227	3060.8902	920.5	34.25
1033.7321	3061.9145	922.45	39.7
1033.8415	3062.9381	923.05	37.55
1033.9509	3063.9612	940.9	39
1034.0602	3064.9835	922.8	38.15
1034.1694	3066.0053	923.95	37.9
1034.2787	3067.0264	921.45	36.25
1034.3878	3068.0469	923.35	37.3
1034.497	3069.0668	923.85	37.1
1034.6061	3070.086	921.2	36.25
1034.7151	3071.1046	924.2	37.2
1034.8241	3072.1226	924.35	38.85
1034.9331	3073.1399	922.2	38.4
1035.042	3074.1567	918.7	33.65
1035.1508	3075.1727	919.65	34.5
1035.2597	3076.1882	917.85	33.25
1035.3684	3077.203	920.15	34.65
1035.4772	3078.2173	919.85	35.55
1035.5859	3079.2308	921.2	34.55
1035.6945	3080.2438	918.5	31.15
1035.8031	3081.2561	917.35	32.55
1035.9117	3082.2678	917.65	34.5
1036.0202	3083.2789	916.4	32.05
1036.1286	3084.2893	914.15	30.15
1036.2371	3085.2991	916.1	31.55
1036.3454	3086.3083	918.6	29.25
1036.4538	3087.3169	912.55	27.65
1036.562	3088.3248	915.95	30.55
1036.6703	3089.3321	914.2	27.1
1036.7785	3090.3388	912.9	29.5
1036.8866	3091.3449	911.75	26.8
1036.9948	3092.3503	914.7	26.85
1037.1028	3093.3551	910.5	27.85
1037.2108	3094.3593	910.25	26.95
1037.3188	3095.3629	911.55	27.55
1037.4267	3096.3658	913.65	26.55
1037.5346	3097.3681	910.2	27.8
1037.6425	3098.3698	912.1	28.1
1037.7503	3099.3708	918.65	26.8
1037.858	3100.3713	912.55	28.15
1037.9657	3101.3711	910.85	25.3
1038.0734	3102.3702	1043.15	23.85
1038.181	3103.3688	911.6	25.8
1038.2886	3104.3667	909.1	24.85
1038.3961	3105.364	908.85	24.9
1038.5036	3106.3607	911.3	25.4
1038.611	3107.3568	911.25	26.75
1038.7184	3108.3522	912.15	29.9
1038.8257	3109.347	910.2	24.05
1038.933	3110.3412	911.75	23.75
1039.0403	3111.3348	906.6	23.1
1039.1475	3112.3277	906.6	22.65
1039.2547	3113.32	908.35	24.7
1039.3618	3114.3117	907.25	22.25
1039.4689	3115.3028	907.6	22.25
1039.5759	3116.2932	912.6	26.55
1039.6829	3117.2831	913.7	24.85
1039.7898	3118.2723	907.05	21.8
1039.8967	3119.2608	906.25	21.5
1040.0035	3120.2488	906.65	22.95
1040.1103	3121.2361	904.6	20.6
1040.2171	3122.2229	906.6	20.35
1040.3238	3123.209	906.9	21.1
1040.4305	3124.1944	904.25	22.15
1040.5371	3125.1793	908.15	19.9
1040.6437	3126.1635	904.3	18.55
1040.7502	3127.1471	907.2	22.1
1040.8567	3128.1301	905.85	22.8
1040.9631	3129.1125	904	20.5
1041.0695	3130.0942	906.2	22.7
1041.1759	3131.0753	912.85	20.45
1041.2822	3132.0558	909	21.75
1041.3884	3133.0357	906.65	20.35
1041.4946	3134.015	904.55	18
1041.6008	3134.9936	902.4	16.3
1041.7069	3135.9716	925.15	20.4
1041.813	3136.949	904.4	17.95
1041.919	3137.9258	921.3	17.45
1042.025	3138.902	908.3	16.5
1042.1309	3139.8775	901.4	19.2
1042.2368	3140.8524	902.6	19.7
1042.3427	3141.8267	904.5	19.35
1042.4485	3142.8004	905.6	21.85
1042.5542	3143.7735	910.4	19.45
1042.6599	3144.7459	906.15	20.35
1042.7656	3145.7178	903.35	17.1
1042.8712	3146.689	901.9	19.5
1042.9768	3147.6596	904.15	16.45
1043.0823	3148.6295	902.2	16.9
1043.1878	3149.5989	901.5	17.5
1043.2932	3150.5676	902.7	20.25
1043.3986	3151.5357	902.35	19.95
1043.5039	3152.5032	903.1	18.95
1043.6092	3153.4701	901.05	16.3
1043.7145	3154.4364	903.9	16.1
1043.8197	3155.402	900.9	17.45
1043.9248	3156.367	899.4	12.3
1044.03	3157.3315	937.55	17.85
1044.135	3158.2952	901.9	17.15
1044.24	3159.2584	900.5	16
1044.345	3160.221	902.35	16.95
1044.4499	3161.1829	900.05	14.95
1044.5548	3162.1442	900.1	15.45
1044.6596	3163.105	902.05	18.3
1044.7644	3164.065	898.7	13.15
1044.8692	3165.0245	903.5	18.3
1044.9739	3165.9834	899.55	17.4
1045.0785	3166.9416	901.85	17.85
1045.1831	3167.8993	901.05	14.1
1045.2877	3168.8563	901.2	15.45
1045.3922	3169.8127	898.05	14.7
1045.4966	3170.7684	900.45	14.1
1045.6011	3171.7236	900.55	15.95
1045.7054	3172.6782	900.8	15.75
1045.8098	3173.6321	902	16.7
1045.914	3174.5854	906.7	19.4
1046.0183	3175.5381	901.3	17.95
1046.1224	3176.4902	898.8	13.95
1046.2266	3177.4417	897.3	14.35
1046.3307	3178.3926	898.4	14.6
1046.4347	3179.3428	898.55	16.5
1046.5387	3180.2924	897.45	15.45
1046.6427	3181.2415	899.6	13.25
1046.7466	3182.1899	902.35	16.4
1046.8504	3183.1377	901	16.15
1046.9542	3184.0848	902.05	15.4
1047.058	3185.0314	900.3	17.35
1047.1617	3185.9773	898.25	12.65
1047.2654	3186.9227	901.05	15.4
1047.369	3187.8674	897.85	12.4
1047.4726	3188.8115	901.45	13.35
1047.5761	3189.755	897.2	13.15
1047.6796	3190.6979	899.75	14.9
1047.783	3191.6402	899	14.3
1047.8864	3192.5818	897.7	11.8
1047.9898	3193.5229	902.75	11.55
1048.0931	3194.4633	899.45	15.75
1048.1963	3195.4031	896.95	13.9
1048.2995	3196.3423	897.05	15.65
1048.4027	3197.2809	896.3	11
1048.5058	3198.2189	898.65	14.85
1048.6089	3199.1563	903.55	14.05
1048.7119	3200.0931	896.05	10.75
1048.8148	3201.0292	895.95	11.75
1048.9178	3201.9648	899.25	13.3
1049.0206	3202.8997	902.35	14.55
1049.1235	3203.834	898.55	15.1
1049.2262	3204.7677	899.5	14.6
1049.329	3205.7008	898.15	10.7
1049.4317	3206.6333	893.5	12.2
1049.5343	3207.5652	899.3	12.95
1049.6369	3208.4964	897.4	11.4
1049.7394	3209.4271	896.1	11.65
1049.8419	3210.3571	896.9	13.45
1049.9444	3211.2865	897.45	11.7
1050.0468	3212.2154	896.65	11.25
1050.1491	3213.1436	900.7	11.6
1050.2514	3214.0712	905	12.75
1050.3537	3214.9982	897.1	14.3
1050.4559	3215.9246	896.25	12
1050.5581	3216.8503	896.25	12.45
1050.6602	3217.7755	894.1	10.05
1050.7623	3218.7001	898.35	13.35
1050.8643	3219.624	897	13.15
1050.9663	3220.5473	896.65	12.95
1051.0682	3221.4701	898.65	13.9
1051.1701	3222.3922	897.65	11.55
1051.2719	3223.3137	896.8	10.8
1051.3737	3224.2346	896.45	10.05
1051.4754	3225.1549	893.35	8.85
1051.5771	3226.0746	896.05	12.65
1051.6788	3226.9937	897.85	13.95
1051.7804	3227.9121	895.5	10.8
1051.8819	3228.83	896.9	12.8
1051.9834	3229.7473	896.4	13.15
1052.0849	3230.6639	895.85	8.1
1052.1863	3231.5799	895.95	11.9
1052.2876	3232.4954	895.95	10.95
1052.3889	3233.4102	896.25	12.35
1052.4902	3234.3244	895.25	9.3
1052.5914	3235.238	896.2	12.5
1052.6926	3236.151	910.1	10
1052.7937	3237.0634	894.5	11
1052.8948	3237.9752	894.8	10.3
1052.9958	3238.8864	897.75	13.15
1053.0968	3239.797	894.9	11.45
1053.1977	3240.7069	896.3	12.1
1053.2986	3241.6163	897.7	11.85
1053.3994	3242.5251	894.2	10.1
1053.5002	3243.4332	895.15	11.8
1053.6009	3244.3408	893.3	8.5
1053.7016	3245.2477	895.25	11.95
1053.8022	3246.154	895.6	9.15
1053.9028	3247.0598	894.25	8.3
1054.0034	3247.9649	893.25	9.25
1054.1039	3248.8694	894.65	11.7
1054.2043	3249.7733	895.1	11.65
1054.3047	3250.6766	893.95	8.6
1054.4051	3251.5793	897.2	13.15
1054.5054	3252.4814	894.65	10.85
1054.6056	3253.3829	895.6	11.85
1054.7058	3254.2838	893.75	10.85
1054.806	3255.1841	892.3	9
1054.9061	3256.0838	893	8
1055.0061	3256.9829	894.65	12.85
1055.1062	3257.8814	897.15	10.5
1055.2061	3258.7792	895.45	9.35
1055.306	3259.6765	894.6	9.15
1055.4059	3260.5731	894.15	9.15
1055.5057	3261.4692	892.9	7.3
1055.6055	3262.3647	895.1	12.65
1055.7052	3263.2595	890.85	5.65
1055.8049	3264.1538	891	7.8
1055.9045	3265.0474	892.4	7
1056.0041	3265.9404	891.85	7.65
1056.1036	3266.8329	891.8	7.15
1056.2031	3267.7247	902.55	7.75
1056.3025	3268.616	890.6	8
1056.4019	3269.5066	892.4	7.65
1056.5013	3270.3966	895.75	10.1
1056.6005	3271.286	890.1	6.6
