Software Version:	3.9.2.0
Unit SN:	10000200
Spectrometer SN:	6960
Date:	3/26/2024 1:34:45 PM
Data Line Index:	25
Spectral Points:	2048
Integration time (ms):	125
Averages:	20
Delay (ms):	30000
Sequence Number:	1
Processing:	dark subtract
Laser Power (mW):	305
Laser Current (mA):	820
Laser Diode Temp (C):	25
Laser Case Temp (C):	27
System Temp (C):	27
Spectrometer Temp (C):	24.9
CCD Temp (C):	0.01
Secondary Temp (C):	20.003
Heatsink Temp (C):	22.372
CCDPCB Temp (C):	36.485
SecondaryPCB Temp (C):	34.128

Wavelength	RamanShift	Raw Counts	Dark Subtracted
787.061	30.1047	576.55	166.1
787.2016	32.3739	581.85	171.4
787.3422	34.6426	590.6	177.9
787.4828	36.9109	608.75	196.95
787.6235	39.1787	623.7	206.05
787.7642	41.4461	640.2	218.9
787.9049	43.7131	653.85	229.05
788.0456	45.9796	674.2	247.5
788.1863	48.2456	689.65	256.4
788.3271	50.5112	718.1	281.6
788.4679	52.7764	736.3	297.9
788.6087	55.0411	758.4	317.35
788.7496	57.3054	777.9	331.55
788.8904	59.5692	802.45	354.95
789.0313	61.8326	825.5	371.65
789.1722	64.0955	857.85	401.85
789.3132	66.3579	895.1	434.35
789.4541	68.6199	932.65	468.5
789.5951	70.8815	1005	538.35
789.7361	73.1426	1160.1	688.85
789.8771	75.4032	1567.25	1092
790.0181	77.6634	2559.7	2077.3
790.1592	79.9231	4988.05	4495.15
790.3003	82.1824	10522.35	10016.6
790.4414	84.4412	21606.35	21074.35
790.5825	86.6995	38475.5	37906.35
790.7237	88.9574	50849.2	50243
790.8648	91.2148	58187.2	57560.75
791.006	93.4717	59763.25	59121.05
791.1472	95.7282	60416.2	59767.75
791.2885	97.9842	60667.15	60014.3
791.4297	100.2398	60492.35	59834.4
791.571	102.4949	60357.4	59698.5
791.7123	104.7495	60252.3	59586.7
791.8536	107.0036	59870.1	59208
791.9949	109.2573	60102.5	59442.7
792.1363	111.5105	59700.35	59033.1
792.2777	113.7632	59635.5	58968.75
792.4191	116.0154	59727.2	59046.35
792.5605	118.2672	59924.7	59251.3
792.7019	120.5185	59856.15	59186.05
792.8434	122.7693	59837.15	59161.1
792.9849	125.0197	59281	58604.2
793.1264	127.2696	60113.6	59435.25
793.2679	129.519	59879.15	59194
793.4094	131.7679	60190.2	59504.85
793.551	134.0163	59263.85	58571.65
793.6926	136.2642	59551.05	58854.6
793.8342	138.5117	60012.25	59304.95
793.9758	140.7587	59722.95	59021.5
794.1175	143.0052	59630.35	58926
794.2591	145.2512	59118.65	58413.75
794.4008	147.4967	59653.9	58948.45
794.5425	149.7417	59429.1	58725
794.6842	151.9863	59416.65	58706.35
794.826	154.2304	59037.1	58321.5
794.9677	156.4739	59174.25	58456.9
795.1095	158.717	59564.55	58844.95
795.2513	160.9596	59221.25	58494.95
795.3931	163.2017	58649.85	57924.65
795.535	165.4433	59152.55	58421.7
795.6768	167.6844	58756.75	58028.1
795.8187	169.925	58966.65	58235.3
795.9606	172.1651	58530.75	57797.2
796.1025	174.4047	58661.85	57930.8
796.2445	176.6439	58533.65	57799.7
796.3864	178.8825	58264.65	57524.1
796.5284	181.1206	58781.5	58034.15
796.6704	183.3582	58619.75	57869.8
796.8124	185.5954	58355.95	57606.55
796.9544	187.832	58408.85	57651.4
797.0965	190.0681	57953.85	57198.7
797.2386	192.3037	58664.95	57904.55
797.3806	194.5388	59336.15	58572.4
797.5228	196.7734	57605.5	56838.7
797.6649	199.0075	59156.1	58383.55
797.807	201.2411	58600.55	57826.2
797.9492	203.4742	59417.8	58642.7
798.0914	205.7068	59237.3	58462.9
798.2336	207.9389	59176.3	58400.05
798.3758	210.1704	59145.05	58365.6
798.518	212.4015	59692.85	58912.3
798.6603	214.632	59066.75	58284.65
798.8025	216.862	59729.7	58954.75
798.9448	219.0915	59424.15	58657.75
799.0871	221.3205	59349.5	58584.75
799.2294	223.549	59839.1	59082.8
799.3718	225.777	59821.5	59063.6
799.5141	228.0044	60033.8	59270.45
799.6565	230.2314	59842.25	59082.85
799.7989	232.4578	59843.75	59086.95
799.9413	234.6837	59951.4	59187.45
800.0837	236.909	60734.05	59962.7
800.2262	239.1339	59529.75	58734.2
800.3687	241.3582	60054.55	59274.9
800.5111	243.582	60061.85	59249.65
800.6536	245.8053	60017.95	59218.7
800.7961	248.0281	60021.15	59224.7
800.9387	250.2503	60193.5	59395.25
801.0812	252.472	59855.95	59052.1
801.2238	254.6932	60146.5	59344.75
801.3664	256.9139	59985.95	59182.6
801.509	259.134	60705.45	59892.6
801.6516	261.3536	59943.55	59138.65
801.7942	263.5727	60463.95	59650.95
801.9369	265.7912	60258	59448.35
802.0795	268.0092	60356.35	59548.85
802.2222	270.2267	60478.85	59664.8
802.3649	272.4436	60148.55	59337.2
802.5076	274.6601	60455.1	59637
802.6504	276.8759	60575.95	59763.85
802.7931	279.0913	60348.35	59527.15
802.9359	281.3061	60373.6	59555.95
803.0787	283.5204	60381.25	59556.4
803.2215	285.7341	60371.35	59547.05
803.3643	287.9473	60702.8	59865.8
803.5071	290.16	60442.7	59612.2
803.6499	292.3721	60655.5	59830
803.7928	294.5837	60388.95	59561.05
803.9357	296.7947	60204.1	59374.2
804.0786	299.0052	60709.7	59881.4
804.2215	301.2152	60456.85	59624.4
804.3644	303.4246	60619.2	59792.6
804.5074	305.6334	60532.2	59708.1
804.6503	307.8418	60061.2	59234.65
804.7933	310.0495	60044.55	59212.65
804.9363	312.2568	59949.45	59116.25
805.0793	314.4635	59840.85	59008.5
805.2223	316.6696	59981.4	59147.5
805.3653	318.8752	60152.95	59313.15
805.5084	321.0802	59296.1	58462.65
805.6514	323.2847	59721.75	58887.8
805.7945	325.4887	59670.75	58829.8
805.9376	327.692	59489	58651.7
806.0807	329.8949	59668.7	58830.05
806.2238	332.0972	59409.8	58569.1
806.367	334.2989	59517.6	58671.95
806.5101	336.5001	59713.3	58872.8
806.6533	338.7007	59025.25	58176.35
806.7965	340.9008	59376.2	58524.85
806.9397	343.1003	59368.2	58520.05
807.0829	345.2992	59519	58671.95
807.2261	347.4976	59145.35	58295.5
807.3693	349.6955	59298.8	58447.95
807.5126	351.8927	59005.85	58147.4
807.6559	354.0895	59295.65	58430.65
807.7991	356.2856	59222.3	58365.95
807.9424	358.4812	59450.8	58594.5
808.0857	360.6763	58893.6	58034.55
808.2291	362.8707	59380.4	58521.2
808.3724	365.0646	59060.7	58202.25
808.5158	367.258	59096.1	58235.35
808.6591	369.4508	58761.25	57895.95
808.8025	371.643	59320.05	58453.45
808.9459	373.8346	59078.4	58208.5
809.0893	376.0257	59151.85	58276.35
809.2327	378.2162	59002.2	58130.7
809.3762	380.4062	58525.7	57655.35
809.5196	382.5956	58881	58007.45
809.6631	384.7844	58818.8	57949.15
809.8066	386.9726	58927.8	58053.75
809.9501	389.1603	58864.45	57994.65
810.0936	391.3474	58432.8	57520.9
810.2371	393.5339	58783.4	57907.3
810.3806	395.7199	58191.3	57320.6
810.5241	397.9052	58315.8	57451.4
810.6677	400.09	58467	57602.45
810.8113	402.2743	58849.85	57991.7
810.9548	404.4579	58386.35	57521.1
811.0984	406.641	58469	57609
811.2421	408.8235	58707.7	57843.85
811.3857	411.0054	58723.25	57858.2
811.5293	413.1868	58865.35	57995.4
811.673	415.3675	58690.7	57817.4
811.8166	417.5477	58725.6	57854.6
811.9603	419.7273	58725.9	57856.15
812.104	421.9064	58615.25	57730.2
812.2477	424.0848	58637.65	57762.8
812.3914	426.2627	58862.9	57986.1
812.5351	428.4399	58294.2	57413.9
812.6788	430.6166	57729.75	56846.35
812.8226	432.7928	58219.6	57337.75
812.9663	434.9683	57665.9	56784.75
813.1101	437.1432	57543.8	56662.6
813.2539	439.3176	57896.4	57018.55
813.3977	441.4914	57191.85	56314.15
813.5415	443.6645	57281.8	56402.3
813.6853	445.8371	57290.05	56407.7
813.8291	448.0091	56994.45	56108.75
813.973	450.1806	56718.3	55837.6
814.1168	452.3514	56867.75	55987.95
814.2607	454.5216	56467.55	55582.75
814.4046	456.6913	56845.7	55959.95
814.5485	458.8603	56973.55	56092.8
814.6924	461.0288	56402.85	55521.85
814.8363	463.1967	56915.95	56040.05
814.9802	465.3639	56866.95	55984.15
815.1241	467.5306	55898.55	55016.95
815.2681	469.6967	56421.9	55544.55
815.412	471.8622	56768.5	55890.8
815.556	474.0271	56361.05	55480.35
815.7	476.1914	56499.55	55611.1
815.844	478.3551	56504.85	55620.45
815.988	480.5182	57087.25	56206.35
816.132	482.6807	56280.85	55399.65
816.276	484.8426	56459.5	55587.9
816.4201	487.0039	57233.4	56354.6
816.5641	489.1647	57279.65	56396.65
816.7082	491.3248	56639.3	55751.65
816.8522	493.4843	57434.65	56552.2
816.9963	495.6432	57421.75	56538.05
817.1404	497.8015	56547.95	55653.25
817.2845	499.9592	56977.9	56081.85
817.4286	502.1163	56896.2	55997.9
817.5727	504.2728	56643.55	55753.8
817.7168	506.4287	56518.7	55637.5
817.861	508.5839	55969.5	55087.45
818.0051	510.7386	56198.75	55312.75
818.1493	512.8927	56345.95	55449
818.2935	515.0461	56129.15	55236.65
818.4377	517.199	56524.35	55628.35
818.5818	519.3512	56158.3	55264.3
818.726	521.5029	56230.7	55333.45
818.8703	523.6539	56399.65	55507.1
819.0145	525.8043	55820.4	54921.35
819.1587	527.9541	56339.8	55442.3
819.303	530.1033	56207.9	55313.55
819.4472	532.2519	55833.7	54937.85
819.5915	534.3999	56253.5	55357.65
819.7357	536.5472	56540.6	55643
819.88	538.694	55785.45	54894.05
820.0243	540.8401	56317.05	55419.45
820.1686	542.9856	56443.45	55540.7
820.3129	545.1305	56701.7	55792.45
820.4572	547.2748	56112	55199.3
820.6016	549.4185	56053.8	55137.35
820.7459	551.5615	56383.6	55471.8
820.8902	553.704	56202.65	55294.45
821.0346	555.8458	55860.5	54955.5
821.1789	557.987	56092.9	55185.35
821.3233	560.1276	56400	55492.4
821.4677	562.2675	56255.7	55347.4
821.6121	564.4069	56538.4	55628.8
821.7565	566.5456	56913.85	56004.95
821.9009	568.6837	56359	55451.35
822.0453	570.8212	56414.4	55509.15
822.1897	572.958	55440.35	54535.9
822.3342	575.0942	55834.6	54934
822.4786	577.2299	55204.25	54306.75
822.6231	579.3648	55042.25	54149.9
822.7675	581.4992	54868.9	53984.95
822.912	583.6329	54878.8	53997.95
823.0565	585.766	54898.1	54011.05
823.201	587.8985	55118.75	54229.25
823.3454	590.0304	54381.75	53471.05
823.4899	592.1616	54883.55	53976.5
823.6345	594.2922	54493.6	53584.75
823.779	596.4222	54128.15	53214.9
823.9235	598.5515	54159.5	53245.8
824.068	600.6802	54299.7	53389.5
824.2126	602.8083	53699.55	52789.45
824.3571	604.9358	53674.9	52764.2
824.5017	607.0626	54033.15	53117.35
824.6462	609.1888	53467.8	52546.5
824.7908	611.3144	53925.25	53005.85
824.9354	613.4393	53711.4	52792.25
825.08	615.5636	53465.95	52548.35
825.2246	617.6873	53705.7	52790.2
825.3692	619.8103	53323.15	52407.1
825.5138	621.9327	53556.85	52641.2
825.6584	624.0544	53570.7	52662.15
825.803	626.1756	53249.5	52338.5
825.9477	628.2961	53143.8	52231.85
826.0923	630.4159	52878.2	51961.25
826.237	632.5351	52816.85	51898.25
826.3816	634.6537	53457.8	52539.65
826.5263	636.7716	52725.6	51803.25
826.6709	638.8889	52857.5	51932.95
826.8156	641.0056	52812.2	51887.65
826.9603	643.1216	52911.5	51989.7
827.105	645.237	53017.75	52094.15
827.2497	647.3518	52593.5	51681.65
827.3944	649.4659	52624.2	51713
827.5391	651.5793	52628	51717.75
827.6838	653.6922	52650.7	51738.7
827.8285	655.8043	52214.65	51302.05
827.9733	657.9159	52825.65	51911.3
828.118	660.0268	51766.05	50847.3
828.2627	662.137	52271.15	51350.6
828.4075	664.2466	52345.8	51420.35
828.5522	666.3556	52108.4	51182.5
828.697	668.4639	52137.35	51221.2
828.8418	670.5716	51967.3	51052.25
828.9865	672.6786	52124.4	51203.8
829.1313	674.785	51733.95	50809.9
829.2761	676.8907	51713.85	50794.45
829.4209	678.9958	51823.45	50908
829.5657	681.1002	51848.3	50927.8
829.7105	683.204	51508.85	50581.35
829.8553	685.3072	51338.35	50412.6
830.0001	687.4097	51416.65	50492.5
830.1449	689.5115	51395.95	50470.2
830.2898	691.6127	51506.05	50584.55
830.4346	693.7132	51264.45	50342.15
830.5794	695.8131	51339.15	50402.75
830.7243	697.9123	51358.5	50428.65
830.8691	700.0109	51445.85	50515.65
831.014	702.1089	51007.4	50081.4
831.1588	704.2061	51131.65	50204.15
831.3037	706.3028	51143.65	50217.15
831.4486	708.3987	51129.4	50203.7
831.5935	710.4941	50968.3	50041.6
831.7383	712.5887	51211.65	50286.4
831.8832	714.6827	51103.45	50175.95
832.0281	716.7761	51319.45	50400.75
832.173	718.8688	51414.95	50488.15
832.3179	720.9608	51215.05	50280.3
832.4628	723.0522	51293.2	50358.9
832.6077	725.1429	51045.75	50115.8
832.7527	727.233	51586.55	50657.95
832.8976	729.3224	50830.2	49903.65
833.0425	731.4112	50931.15	50003.4
833.1874	733.4993	50803.5	49871.8
833.3324	735.5867	50692.45	49761.3
833.4773	737.6735	50458.9	49527
833.6222	739.7596	50148.5	49217.85
833.7672	741.845	50054.95	49124.55
833.9122	743.9298	50135.6	49207.55
834.0571	746.014	49921.9	48993.8
834.2021	748.0974	49732.05	48798.6
834.347	750.1802	49888.75	48950.55
834.492	752.2624	49431.35	48493.1
834.637	754.3439	49490.5	48556.1
834.782	756.4247	49499.95	48557.95
834.9269	758.5048	49361.65	48428.4
835.0719	760.5843	49518.5	48582.95
835.2169	762.6631	49661.15	48722.65
835.3619	764.7413	49802.75	48871.35
835.5069	766.8188	50213.05	49274.8
835.6519	768.8956	50438	49504.7
835.7969	770.9718	50528.9	49597.7
835.9419	773.0473	50341.4	49407.3
836.0869	775.1221	50067	49134.55
836.232	777.1962	49848.25	48914.55
836.377	779.2697	49585.5	48647.25
836.522	781.3426	49669.45	48722.2
836.667	783.4147	49682.95	48748.75
836.8121	785.4862	49574.1	48642.3
836.9571	787.557	49380.85	48446.05
837.1021	789.6271	49229.4	48288.3
837.2472	791.6966	48694.55	47760.15
837.3922	793.7654	48120.45	47184.3
837.5373	795.8335	47962	47026.85
837.6823	797.901	47714.85	46780.3
837.8274	799.9678	47613.85	46673.05
837.9724	802.0339	47439.3	46501.3
838.1175	804.0993	47390.55	46440.8
838.2626	806.1641	47192.35	46253.25
838.4076	808.2282	47078.7	46139.9
838.5527	810.2916	47070.15	46130.65
838.6978	812.3544	47051.2	46117.25
838.8428	814.4164	46809.4	45872.7
838.9879	816.4778	46830.4	45890.7
839.133	818.5385	46731.85	45791.55
839.2781	820.5986	46778.85	45836.55
839.4232	822.658	46927.1	45989.8
839.5682	824.7166	46964.65	46026.5
839.7133	826.7747	47133.6	46194.4
839.8584	828.832	47445.55	46509.6
840.0035	830.8886	47539.7	46596.7
840.1486	832.9446	47591.85	46650.75
840.2937	834.9999	47153.25	46216.1
840.4388	837.0545	47092.75	46149.15
840.5839	839.1085	46882.35	45943.35
840.729	841.1618	46658.85	45714.05
840.8741	843.2143	46297.5	45357.45
841.0192	845.2662	46164.75	45225
841.1643	847.3175	46103	45163.1
841.3095	849.368	45852.65	44911.75
841.4546	851.4179	45804.35	44865.8
841.5997	853.467	45576.85	44637.35
841.7448	855.5155	45572.3	44633.5
841.8899	857.5633	45375.9	44435.55
842.0351	859.6105	45195.05	44253.95
842.1802	861.6569	45125.5	44182.25
842.3253	863.7027	44915.3	43969.45
842.4704	865.7478	44938.1	43991.8
842.6156	867.7922	44807.1	43863.25
842.7607	869.8359	44795.4	43853.95
842.9058	871.8789	44629.8	43687.05
843.0509	873.9212	44755.25	43781.8
843.1961	875.9629	44597.55	43651.35
843.3412	878.0039	44672.2	43729.05
843.4863	880.0441	44629.25	43687.4
843.6315	882.0837	44628.3	43685.6
843.7766	884.1226	44579.75	43635.55
843.9218	886.1609	44543.35	43606.5
844.0669	888.1984	44544.1	43601.25
844.212	890.2352	44719.95	43776.35
844.3572	892.2714	44482.7	43533.45
844.5023	894.3069	44441.75	43500.35
844.6475	896.3416	44221.35	43274.9
844.7926	898.3757	44047.25	43101.9
844.9377	900.4091	43874.8	42928.35
845.0829	902.4418	43857.75	42906.85
845.228	904.4739	43710	42761.7
845.3732	906.5052	43807.6	42863.6
845.5183	908.5358	43613.85	42670.7
845.6635	910.5658	43484.55	42535.3
845.8086	912.595	43233.5	42289.25
845.9538	914.6236	43004.75	42060.25
846.0989	916.6515	42998.4	42055.3
846.2441	918.6786	42722.25	41774.85
846.3892	920.7051	42744.75	41797.45
846.5344	922.7309	42709.75	41766.4
846.6795	924.756	42588.9	41646.15
846.8246	926.7804	42557.8	41610.45
846.9698	928.8041	42248.25	41305.45
847.1149	930.8272	42353.9	41407.7
847.2601	932.8495	42174.9	41226.65
847.4052	934.8711	42098.2	41150.6
847.5504	936.892	41928.55	40979.4
847.6955	938.9123	41788.25	40840.85
847.8407	940.9318	41679.75	40733.3
847.9858	942.9506	41564.95	40618.55
848.131	944.9688	41507.1	40561.35
848.2761	946.9862	41263.6	40318.9
848.4213	949.003	41013.05	40068.55
848.5664	951.019	40866.25	39923.3
848.7115	953.0344	40802.95	39860.15
848.8567	955.0491	40702.3	39753.95
849.0018	957.063	40716.7	39772.75
849.147	959.0763	40767.05	39817.7
849.2921	961.0888	40580.4	39632.45
849.4373	963.1007	40674.4	39733.5
849.5824	965.1119	40576.5	39638.25
849.7275	967.1223	40482	39552.85
849.8727	969.1321	40451.35	39520.25
850.0178	971.1412	40408.75	39471.25
850.1629	973.1495	40230.15	39289.15
850.3081	975.1572	40215.7	39253.6
850.4532	977.1641	40166.05	39220.7
850.5983	979.1704	40033.45	39086.6
850.7435	981.1759	39903.45	38950.8
850.8886	983.1808	39831.1	38883.65
851.0337	985.1849	39773.15	38822.65
851.1788	987.1884	39702.15	38756.1
851.324	989.1911	39723.15	38778.3
851.4691	991.1932	39689.5	38746.85
851.6142	993.1945	39547.65	38604.45
851.7593	995.1951	39369	38423.45
851.9045	997.1951	39296.1	38343.5
852.0496	999.1943	39143.15	38196.3
852.1947	1001.1928	39061.15	38116.2
852.3398	1003.1906	38948.95	38004.7
852.4849	1005.1877	38906.25	37958.55
852.63	1007.1841	38746.1	37802.05
852.7751	1009.1798	38663.95	37720.1
852.9202	1011.1748	38519.6	37573.15
853.0653	1013.1691	38336.3	37387.95
853.2104	1015.1627	38093.1	37148.4
853.3555	1017.1556	37745	36800.55
853.5006	1019.1477	37623.65	36681.75
853.6457	1021.1392	37365.55	36429.65
853.7908	1023.1299	37223.7	36289
853.9359	1025.12	37145.15	36214.5
854.081	1027.1093	37029.35	36107.45
854.2261	1029.0979	36984.9	36064.45
854.3712	1031.0859	36922.15	35997.35
854.5163	1033.0731	36835.75	35902.5
854.6613	1035.0596	36656.2	35719.05
854.8064	1037.0454	36457.55	35516.45
854.9515	1039.0304	36348.05	35406.1
855.0965	1041.0148	36158.7	35218.7
855.2416	1042.9985	36000.4	35055.3
855.3867	1044.9814	35867.05	34926.65
855.5317	1046.9636	35728.05	34784.05
855.6768	1048.9452	35611.95	34670.7
855.8219	1050.926	35556.6	34612.4
855.9669	1052.9061	35519.7	34575.85
856.112	1054.8855	35448.6	34507.65
856.257	1056.8642	35436.8	34496.1
856.4021	1058.8421	35407.1	34456.1
856.5471	1060.8194	35313.95	34371.2
856.6921	1062.7959	35293.95	34349.1
856.8372	1064.7717	35222.2	34278.7
856.9822	1066.7469	35155.1	34214.65
857.1272	1068.7213	35182.85	34241.8
857.2723	1070.695	35209.85	34269.5
857.4173	1072.6679	35057.6	34117.5
857.5623	1074.6402	35004.05	34062.5
857.7073	1076.6117	34915.45	33965.3
857.8523	1078.5826	34798.7	33856.15
857.9973	1080.5527	34635.85	33691.1
858.1423	1082.5221	34496.2	33554.15
858.2873	1084.4908	34413.3	33471.55
858.4323	1086.4587	34406.3	33465.9
858.5773	1088.426	34303.55	33362.2
858.7223	1090.3925	34237.15	33290
858.8673	1092.3584	34210.95	33269.9
859.0123	1094.3235	34059.55	33119.7
859.1573	1096.2879	34012.55	33072.25
859.3022	1098.2515	33993.55	33054.8
859.4472	1100.2145	34076.6	33134.2
859.5922	1102.1767	34096.95	33152.2
859.7371	1104.1382	34134.25	33191.2
859.8821	1106.099	34254.5	33314.15
860.027	1108.0591	34288.55	33349.2
860.172	1110.0185	34250.25	33311.15
860.3169	1111.9771	34293.75	33353.4
860.4619	1113.9351	34068.6	33130
860.6068	1115.8923	33893.55	32952.5
860.7517	1117.8488	33742.6	32802.35
860.8967	1119.8045	33483.05	32541.8
861.0416	1121.7596	33321.7	32383.15
861.1865	1123.7139	33196.15	32258.4
861.3314	1125.6675	33117.75	32179.4
861.4763	1127.6204	33146.8	32205.9
861.6212	1129.5726	33037.95	32096.05
861.7661	1131.524	32938.3	31994.1
861.911	1133.4748	32800.25	31859.35
862.0559	1135.4248	32612.15	31668.2
862.2008	1137.3741	32425.35	31486.4
862.3457	1139.3226	32308.6	31364.8
862.4905	1141.2705	32282.9	31340.4
862.6354	1143.2176	32080.9	31134.05
862.7803	1145.164	32043	31100.75
862.9251	1147.1097	31901.6	30961.25
863.07	1149.0546	31821.1	30882.05
863.2148	1150.9989	31719.35	30778.35
863.3597	1152.9424	31607.6	30666.25
863.5045	1154.8852	31474.65	30533.2
863.6493	1156.8272	31428.75	30490.25
863.7942	1158.7686	31426.65	30477.05
863.939	1160.7092	31325.9	30386.15
864.0838	1162.6491	31225.45	30284.45
864.2286	1164.5883	31252.5	30310.85
864.3734	1166.5267	31247.3	30305.35
864.5182	1168.4644	31307.85	30368.55
864.663	1170.4014	31351.4	30410.7
864.8078	1172.3377	31522.8	30584.35
864.9526	1174.2732	31610.2	30674.1
865.0974	1176.2081	31886	30948.55
865.2421	1178.1421	32122.7	31178
865.3869	1180.0755	32388.85	31450.05
865.5317	1182.0082	32483.95	31545.8
865.6764	1183.9401	32529.2	31590.3
865.8212	1185.8713	32353.3	31419.1
865.9659	1187.8017	32061.1	31133.05
866.1106	1189.7315	31793.9	30872.95
866.2554	1191.6605	31383.3	30462.05
866.4001	1193.5888	31153.65	30226.65
866.5448	1195.5163	31048.8	30116.05
866.6895	1197.4432	30876.8	29940.55
866.8342	1199.3693	30770.8	29837.4
866.9789	1201.2947	30636.6	29699.15
867.1236	1203.2193	30530.4	29592.35
867.2683	1205.1432	30455	29517.75
867.413	1207.0664	30392.95	29459.1
867.5576	1208.9889	30281.6	29343.3
867.7023	1210.9106	30176.75	29240
867.847	1212.8316	30109.1	29171.95
867.9916	1214.7519	30047.75	29102.25
868.1363	1216.6715	29958.8	29022.85
868.2809	1218.5903	30020.45	29083.4
868.4255	1220.5084	29966.4	29029.55
868.5701	1222.4257	30016.25	29078.35
868.7148	1224.3424	29920.8	28988.55
868.8594	1226.2583	29927.1	28989.15
869.004	1228.1735	29950.05	29015.75
869.1486	1230.0879	29912.65	28974.65
869.2932	1232.0016	29981.8	29047.25
869.4377	1233.9146	30022.2	29083.25
869.5823	1235.8269	29879.55	28943.35
869.7269	1237.7384	29894.95	28959.7
869.8715	1239.6492	29666.65	28733.1
870.016	1241.5592	29598.5	28663.35
870.1606	1243.4686	29610.95	28678.7
870.3051	1245.3772	29608.25	28672.25
870.4496	1247.285	29676.7	28738.05
870.5941	1249.1922	29690.3	28755
870.7387	1251.0986	29773.65	28839.8
870.8832	1253.0042	29682.95	28748.8
871.0277	1254.9092	29688.1	28752.65
871.1722	1256.8134	29668.5	28737.2
871.3167	1258.7169	29837.2	28902.55
871.4611	1260.6196	29858	28922.45
871.6056	1262.5216	29911.75	28981.8
871.7501	1264.4229	30003.9	29071.3
871.8945	1266.3234	30114.35	29180.4
872.039	1268.2232	30110.45	29176.8
872.1834	1270.1223	30083.2	29148.4
872.3278	1272.0207	30019	29084.8
872.4723	1273.9183	29987.6	29045.35
872.6167	1275.8151	29848	28915.05
872.7611	1277.7113	29851.25	28916.85
872.9055	1279.6067	29784.4	28853.4
873.0499	1281.5014	29826.85	28893.5
873.1943	1283.3953	30113.85	29177.5
873.3386	1285.2885	30402.05	29468.25
873.483	1287.181	30677.35	29745.15
873.6274	1289.0727	31018.4	30088.6
873.7717	1290.9637	31004.8	30072.75
873.9161	1292.854	31226.15	30291.95
874.0604	1294.7435	31122.3	30187.5
874.2047	1296.6323	31059.7	30126.4
874.349	1298.5204	30953.3	30018.6
874.4933	1300.4077	30751.2	29817.2
874.6376	1302.2943	30492.25	29560.3
874.7819	1304.1802	30283.7	29351.7
874.9262	1306.0653	29905.25	28970.25
875.0705	1307.9497	29601.95	28670.2
875.2147	1309.8333	29272.95	28337.95
875.359	1311.7162	29022.25	28089
875.5032	1313.5984	28897.6	27963.25
875.6475	1315.4798	28702.6	27756.4
875.7917	1317.3605	28594	27646.2
875.9359	1319.2405	28549.5	27615.05
876.0801	1321.1197	28308.6	27373.95
876.2243	1322.9982	28062	27121.5
876.3685	1324.876	27864.65	26932
876.5127	1326.753	27603.85	26669.5
876.6569	1328.6293	27504.4	26569.85
876.801	1330.5048	27332.9	26395.15
876.9452	1332.3796	27159.05	26227.45
877.0893	1334.2537	27041.6	26086.5
877.2335	1336.127	26961.7	26029.3
877.3776	1337.9996	26829.5	25895.5
877.5217	1339.8714	26814.05	25879.55
877.6658	1341.7426	26706.1	25730.6
877.8099	1343.6129	26715.55	25780.05
877.954	1345.4826	26664.95	25730.35
878.0981	1347.3515	26661.6	25723.75
878.2422	1349.2196	26612.6	25677.35
878.3862	1351.087	26595.05	25663.45
878.5303	1352.9537	26589.95	25655.65
878.6743	1354.8197	26643.9	25707.45
878.8184	1356.6849	26721.3	25788.25
878.9624	1358.5493	26775.35	25840.85
879.1064	1360.4131	26816.75	25884.35
879.2504	1362.276	26915.35	25979.65
879.3944	1364.1383	26822.15	25888.5
879.5384	1365.9998	26595.3	25656.1
879.6823	1367.8606	26360.85	25426.25
879.8263	1369.7206	26087.45	25153.05
879.9702	1371.5799	25789.15	24852.4
880.1142	1373.4384	25535.7	24602.25
880.2581	1375.2962	25383.15	24447.6
880.402	1377.1533	25007.45	24078.05
880.5459	1379.0096	24713.2	23784.1
880.6898	1380.8652	24449.4	23519.9
880.8337	1382.7201	24168.9	23242.15
880.9776	1384.5742	23936.9	23004.65
881.1215	1386.4275	23721.85	22788.3
881.2653	1388.2802	23559.45	22627
881.4092	1390.132	23413.1	22478.85
881.553	1391.9832	23360.5	22427.35
881.6968	1393.8336	23180.1	22248.35
881.8406	1395.6832	23125.25	22191.1
881.9844	1397.5322	23019.9	22091
882.1282	1399.3803	22926.65	21989.5
882.272	1401.2278	22789.9	21859.75
882.4158	1403.0745	22742.05	21812.1
882.5595	1404.9204	22645.3	21717.85
882.7033	1406.7656	22645.15	21714.45
882.847	1408.6101	22531.25	21598.75
882.9908	1410.4538	22467.7	21537.5
883.1345	1412.2968	22428.85	21497.2
883.2782	1414.139	22364.5	21435.35
883.4219	1415.9805	22428.7	21501.35
883.5656	1417.8213	22401.25	21450.2
883.7092	1419.6613	22392.8	21463.2
883.8529	1421.5006	22427.95	21497.5
883.9965	1423.3391	22475	21543.4
884.1402	1425.1769	22611	21680.55
884.2838	1427.0139	22897.5	21965.55
884.4274	1428.8502	23200	22268.05
884.571	1430.6858	23516.45	22585.4
884.7146	1432.5206	23661.1	22729.85
884.8582	1434.3547	23766.8	22833.45
885.0018	1436.188	23787.7	22858.55
885.1453	1438.0206	23704.25	22774.3
885.2889	1439.8524	23493.25	22563.05
885.4324	1441.6835	23458.1	22524.15
885.5759	1443.5139	23305.7	22372.25
885.7194	1445.3435	23203.9	22274.3
885.8629	1447.1724	23182.4	22254.95
886.0064	1449.0005	23087.45	22163.05
886.1499	1450.8279	23024.1	22093
886.2933	1452.6545	22951.05	22025.8
886.4368	1454.4804	22989.7	22064.2
886.5802	1456.3056	22892.55	21960.75
886.7237	1458.13	22817.35	21892.9
886.8671	1459.9536	22745.05	21819.35
887.0105	1461.7766	22556.45	21628.05
887.1539	1463.5987	22266.3	21336.6
887.2972	1465.4202	21980.7	21054.9
887.4406	1467.2409	21701.4	20773.8
887.584	1469.0608	21545.55	20623.45
887.7273	1470.88	21318.55	20386.55
887.8706	1472.6984	21198.1	20271.45
888.0139	1474.5161	20925.15	19998.75
888.1572	1476.3331	20821.65	19895.45
888.3005	1478.1493	20708.25	19778.95
888.4438	1479.9648	20657.65	19732.1
888.5871	1481.7795	20550.65	19623.05
888.7303	1483.5935	20479.15	19552.65
888.8736	1485.4067	20368.4	19441.8
889.0168	1487.2192	20397.25	19469.05
889.16	1489.031	20349.45	19420.3
889.3032	1490.842	20246.75	19321.7
889.4464	1492.6522	20157.25	19232.2
889.5896	1494.4618	20115.25	19189.75
889.7327	1496.2705	20091.55	19165.1
889.8759	1498.0785	20004.7	19079.35
890.019	1499.8858	19933.4	19008.3
890.1622	1501.6924	19879.75	18954.45
890.3053	1503.4981	19812.65	18887.5
890.4484	1505.3032	19774.15	18850.45
890.5914	1507.1075	19717.65	18795.1
890.7345	1508.911	19671.2	18744.55
890.8776	1510.7138	19577.75	18653.7
891.0206	1512.5159	19494.45	18567.8
891.1637	1514.3172	19415.75	18494
891.3067	1516.1178	19310.8	18387.45
891.4497	1517.9176	19326.55	18399.2
891.5927	1519.7166	19223	18298.45
891.7357	1521.515	19142.55	18213.75
891.8786	1523.3126	19105.5	18180.6
892.0216	1525.1094	19049.35	18123.15
892.1645	1526.9055	18978.35	18056.15
892.3074	1528.7008	18890.1	17970.75
892.4503	1530.4954	18787.95	17860.2
892.5932	1532.2893	18764.1	17845.6
892.7361	1534.0824	18647.4	17720.85
892.879	1535.8747	18689.65	17772.95
893.0218	1537.6663	18619.75	17704.7
893.1647	1539.4572	18571.45	17648.15
893.3075	1541.2473	18560.55	17639.6
893.4503	1543.0367	18465.05	17544.95
893.5931	1544.8253	18381.8	17455.6
893.7359	1546.6132	18416	17493.05
893.8787	1548.4003	18387.7	17457.75
894.0214	1550.1867	18356.6	17428.95
894.1642	1551.9723	18334.85	17411.15
894.3069	1553.7572	18357.55	17438.65
894.4496	1555.5414	18392	17473.5
894.5923	1557.3247	18428.7	17511.55
894.735	1559.1074	18497.95	17582
894.8777	1560.8893	18563.2	17648.9
895.0204	1562.6705	18615.15	17701.7
895.163	1564.4509	18721.4	17807.8
895.3056	1566.2305	18662.3	17750.95
895.4482	1568.0094	18683	17772.25
895.5908	1569.7876	18729.3	17819.15
895.7334	1571.565	18685.4	17770.2
895.876	1573.3417	18632.55	17718.1
896.0186	1575.1176	18569.6	17658.15
896.1611	1576.8928	18558.6	17648.25
896.3036	1578.6672	18457.3	17547.85
896.4461	1580.4409	18438.6	17533.75
896.5886	1582.2138	18385.1	17475.75
896.7311	1583.986	18357.35	17446.15
896.8736	1585.7575	18410.65	17499.3
897.0161	1587.5282	18423.8	17520
897.1585	1589.2981	18460.2	17555.45
897.3009	1591.0673	18396.6	17489.8
897.4433	1592.8358	18486.85	17581.7
897.5857	1594.6035	18527.85	17618
897.7281	1596.3704	18517.55	17608.55
897.8705	1598.1366	18544.5	17637.7
898.0128	1599.9021	18534.55	17626.75
898.1551	1601.6668	18546.7	17638.4
898.2975	1603.4308	18600.9	17688.6
898.4398	1605.194	18669.3	17753.25
898.5821	1606.9564	18764.35	17861.2
898.7243	1608.7182	18900.65	17998.7
898.8666	1610.4791	19035.35	18137.95
899.0088	1612.2394	19204.25	18308.75
899.1511	1613.9988	19389	18491.4
899.2933	1615.7576	19553.6	18649.2
899.4355	1617.5156	19682.3	18768.15
899.5776	1619.2728	19734.2	18824.95
899.7198	1621.0293	19655.55	18750.25
899.862	1622.785	19465.4	18559.45
900.0041	1624.54	19186.85	18282.85
900.1462	1626.2942	18915.45	18010.85
900.2883	1628.0477	18552.35	17645.7
900.4304	1629.8005	18293	17385.65
900.5725	1631.5525	18064	17160.05
900.7145	1633.3037	17834.95	16933.2
900.8566	1635.0542	17657.15	16755.65
900.9986	1636.804	17483.8	16581.4
901.1406	1638.553	17436.85	16478.65
901.2826	1640.3013	17270.9	16367.1
901.4245	1642.0488	17218.4	16313.75
901.5665	1643.7955	17219.95	16319.05
901.7085	1645.5416	17186.7	16282.6
901.8504	1647.2868	17206.85	16304.65
901.9923	1649.0313	17242.25	16336.05
902.1342	1650.7751	17292.05	16384.55
902.2761	1652.5181	17361.95	16460.75
902.4179	1654.2604	17425.25	16524.65
902.5598	1656.0019	17539.65	16640.1
902.7016	1657.7427	17691.95	16789.25
902.8434	1659.4828	17828.6	16925.05
902.9852	1661.222	17915.5	17010.7
903.127	1662.9606	17860.1	16956.7
903.2687	1664.6984	17676.5	16772.7
903.4105	1666.4354	17408.65	16500.3
903.5522	1668.1717	17012	16103.7
903.6939	1669.9072	16572.35	15665.25
903.8356	1671.642	16233.45	15325.85
903.9773	1673.3761	15985.1	15082.1
904.119	1675.1094	15721	14820.7
904.2606	1676.8419	15549.75	14647.35
904.4022	1678.5737	15340.4	14437.8
904.5439	1680.3048	15217.9	14312.8
904.6855	1682.0351	15091.8	14187.1
904.827	1683.7646	14956.75	14048.05
904.9686	1685.4934	14858.4	13954.45
905.1101	1687.2215	14773.75	13869.5
905.2517	1688.9488	14681.25	13779.75
905.3932	1690.6754	14569.2	13668.25
905.5347	1692.4012	14541.65	13639.7
905.6761	1694.1263	14462.65	13559.5
905.8176	1695.8506	14432.95	13529.35
905.9591	1697.5742	14375.25	13473.45
906.1005	1699.297	14297.8	13400.3
906.2419	1701.0191	14201	13302
906.3833	1702.7404	14172.6	13273.1
906.5246	1704.461	14073	13171.45
906.666	1706.1808	14015.8	13112.55
906.8073	1707.8999	13959.9	13062.2
906.9487	1709.6182	13936.9	13040.35
907.09	1711.3358	13887.4	12992.4
907.2313	1713.0527	13825.2	12929.85
907.3725	1714.7688	13774.05	12870.45
907.5138	1716.4841	13712.35	12813.15
907.655	1718.1987	13715.6	12809.5
907.7962	1719.9126	13625.8	12726.95
907.9374	1721.6257	13578.85	12682.45
908.0786	1723.338	13578.15	12681.5
908.2198	1725.0496	13499	12599.95
908.3609	1726.7605	13462.35	12559.85
908.502	1728.4706	13402.65	12504.2
908.6431	1730.18	13350.5	12451.1
908.7842	1731.8886	13326.05	12431.4
908.9253	1733.5964	13276.85	12374.05
909.0664	1735.3036	13262.3	12363.15
909.2074	1737.0099	13215.85	12317.25
909.3484	1738.7156	13180.1	12286.9
909.4894	1740.4204	13109.15	12209.9
909.6304	1742.1246	13099.55	12203.6
909.7714	1743.8279	13057.3	12160.05
909.9123	1745.5306	13023.4	12126.3
910.0532	1747.2325	12970.3	12074.45
910.1941	1748.9336	12942.9	12048.2
910.335	1750.634	12891.9	11992.4
910.4759	1752.3336	12845.2	11951.85
910.6168	1754.0325	12830.25	11937.7
910.7576	1755.7307	12802.2	11907.85
910.8984	1757.4281	12798.3	11900.65
911.0392	1759.1247	12796.05	11888.3
911.18	1760.8206	12749.3	11845.9
911.3208	1762.5158	12730.3	11826.45
911.4615	1764.2102	12678.75	11782.35
911.6022	1765.9039	12632.4	11738.25
911.7429	1767.5968	12597.4	11701.35
911.8836	1769.289	12576.25	11681.5
912.0243	1770.9804	12512.45	11613.35
912.1649	1772.6711	12519.9	11619.9
912.3056	1774.361	12496.15	11596.75
912.4462	1776.0502	12499	11600.35
912.5868	1777.7386	12438.15	11537.65
912.7274	1779.4263	12401	11503.15
912.8679	1781.1132	12403.85	11511.35
913.0084	1782.7994	12353.55	11459
913.149	1784.4849	12311.65	11416.75
913.2895	1786.1696	12295.8	11394.55
913.4299	1787.8535	12240.05	11347.35
913.5704	1789.5367	12241.1	11348.2
913.7108	1791.2192	12216.45	11321.9
913.8513	1792.9009	12181.25	11258.45
913.9917	1794.5818	12154.4	11256.6
914.132	1796.2621	12121.1	11226.35
914.2724	1797.9415	12083.4	11185.5
914.4128	1799.6202	12068.85	11171.2
914.5531	1801.2982	12038.8	11141.65
914.6934	1802.9755	12008.55	11109.95
914.8337	1804.6519	12004.15	11105.55
914.9739	1806.3277	11916.95	11022.35
915.1142	1808.0027	11900.4	11008.35
915.2544	1809.6769	11884.4	10991.85
915.3946	1811.3504	11861.9	10970
915.5348	1813.0231	11812.75	10920.1
915.675	1814.6951	11808.75	10914.05
915.8151	1816.3664	11811.2	10913.1
915.9553	1818.0369	11787.3	10890.15
916.0954	1819.7067	11705.65	10811.8
916.2355	1821.3757	11729	10831.7
916.3755	1823.044	11680.45	10783.75
916.5156	1824.7115	11677.2	10776.55
916.6556	1826.3783	11618.85	10723.95
916.7956	1828.0443	11594.05	10701.2
916.9356	1829.7096	11572.8	10677.3
917.0756	1831.3741	11580.55	10682.55
917.2155	1833.0379	11543.15	10650.7
917.3555	1834.701	11496.95	10603.45
917.4954	1836.3633	11474.7	10581.55
917.6353	1838.0248	11450.65	10554.8
917.7751	1839.6856	11418	10524.4
917.915	1841.3457	11425.35	10532.35
918.0548	1843.005	11392.55	10497.8
918.1946	1844.6636	11374.8	10479.7
918.3344	1846.3214	11320.3	10424.9
918.4742	1847.9785	11330.3	10434.95
918.6139	1849.6349	11311.8	10412.6
918.7537	1851.2904	11291.1	10383.55
918.8934	1852.9453	11244	10346.35
919.0331	1854.5994	11205.3	10306.15
919.1727	1856.2528	11206.3	10304.1
919.3124	1857.9054	11200.5	10303.6
919.452	1859.5572	11177.6	10285.7
919.5916	1861.2083	11134.9	10240.45
919.7312	1862.8587	11129.5	10234.6
919.8708	1864.5084	11100.35	10201
920.0103	1866.1572	11083.85	10185.35
920.1498	1867.8054	11046.5	10147.6
920.2893	1869.4528	11009.8	10110.7
920.4288	1871.0994	10984.65	10090.15
920.5683	1872.7453	10979.75	10083.2
920.7077	1874.3905	10933.95	10032.9
920.8471	1876.0349	10908.15	10011.85
920.9865	1877.6786	10906.45	10010.2
921.1259	1879.3215	10879.4	9983.7
921.2653	1880.9637	10855.1	9958.8
921.4046	1882.6051	10840.1	9947.6
921.5439	1884.2458	10831.45	9936.15
921.6832	1885.8858	10783.5	9885.25
921.8225	1887.525	10743.95	9847.05
921.9617	1889.1634	10708.6	9810.5
922.101	1890.8011	10661.25	9764.95
922.2402	1892.4381	10650.8	9755.9
922.3794	1894.0743	10644.25	9748.65
922.5185	1895.7098	10600.25	9705.5
922.6577	1897.3446	10602.65	9706.9
922.7968	1898.9786	10554	9652.6
922.9359	1900.6118	10567.1	9672.3
923.075	1902.2443	10495.1	9597.75
923.214	1903.8761	10493.15	9597.2
923.3531	1905.5071	10445.1	9550.35
923.4921	1907.1374	10415.55	9519.15
923.6311	1908.7669	10361.25	9469.15
923.77	1910.3957	10353.05	9459.9
923.909	1912.0237	10329.95	9433.95
924.0479	1913.651	10310.7	9414.45
924.1868	1915.2776	10281.45	9388.15
924.3257	1916.9034	10237.7	9346.45
924.4646	1918.5285	10169.9	9277.1
924.6034	1920.1528	10155.9	9261.65
924.7422	1921.7764	10149.15	9255.45
924.881	1923.3992	10123.2	9229.85
925.0198	1925.0213	10053.6	9159.9
925.1586	1926.6427	10015.95	9123.55
925.2973	1928.2633	10059.55	9095.75
925.436	1929.8832	9982.65	9087.45
925.5747	1931.5023	9951.2	9056.55
925.7134	1933.1207	9930.35	9034.1
925.852	1934.7383	9912.8	9017.75
925.9906	1936.3552	9856.3	8964.5
926.1292	1937.9714	9846	8952.15
926.2678	1939.5868	9802.45	8908.4
926.4064	1941.2015	9783.4	8889.2
926.5449	1942.8154	9749.1	8855.65
926.6834	1944.4286	9679.8	8783.65
926.8219	1946.041	9679.05	8759.6
926.9604	1947.6528	9602.8	8702.55
927.0988	1949.2637	9599	8705.35
927.2372	1950.8739	9572.7	8678.75
927.3756	1952.4834	9566.3	8671.05
927.514	1954.0921	9542.05	8647.95
927.6523	1955.7001	9499.05	8601.45
927.7907	1957.3074	9466.3	8573.85
927.929	1958.9139	9412	8520.55
928.0673	1960.5197	9398.35	8504.8
928.2055	1962.1247	9379.5	8485.75
928.3438	1963.729	9325.25	8434.2
928.482	1965.3325	9331	8416.7
928.6202	1966.9353	9289.9	8399.85
928.7584	1968.5374	9240.05	8349.65
928.8965	1970.1387	9241	8348.3
929.0346	1971.7393	9191.85	8300.7
929.1727	1973.3392	9167.55	8276.9
929.3108	1974.9383	9139.6	8249.2
929.4489	1976.5366	9088.8	8198.9
929.5869	1978.1342	9083.7	8193.65
929.7249	1979.7311	9072.2	8181.7
929.8629	1981.3273	9004.95	8113.55
930.0009	1982.9227	9005.25	8113.2
930.1388	1984.5173	8967.85	8079.05
930.2767	1986.1112	8950.1	8061.1
930.4146	1987.7044	8921.95	8033.8
930.5525	1989.2968	8908.25	8017.15
930.6904	1990.8885	8897.85	8006.15
930.8282	1992.4795	8859.05	7969.75
930.966	1994.0697	8851	7962.35
931.1038	1995.6592	8794.85	7905.7
931.2415	1997.2479	8800.5	7910.4
931.3793	1998.8359	8765.25	7876.25
931.517	2000.4232	8721.15	7832.2
931.6547	2002.0097	8694.85	7811
931.7923	2003.5955	8651.15	7763.2
931.93	2005.1805	8638.15	7750.25
932.0676	2006.7648	8645.85	7759.55
932.2052	2008.3484	8613.8	7726.75
932.3427	2009.9312	8616.75	7729.3
932.4803	2011.5133	8586	7698.9
932.6178	2013.0946	8551.4	7663.6
932.7553	2014.6752	8531.85	7645.7
932.8928	2016.2551	8510.2	7621.5
933.0302	2017.8342	8481.9	7594.45
933.1676	2019.4126	8461.05	7573.5
933.305	2020.9902	8415	7531.75
933.4424	2022.5672	8395.05	7508.65
933.5798	2024.1433	8381.95	7488.2
933.7171	2025.7188	8344.3	7460.9
933.8544	2027.2935	8329.7	7444.6
933.9917	2028.8674	8315.3	7429.8
934.129	2030.4406	8283.4	7399.85
934.2662	2032.0131	8256.85	7373.45
934.4034	2033.5849	8218.6	7329
934.5406	2035.1559	8224.95	7339.5
934.6778	2036.7261	8238.1	7351.35
934.8149	2038.2957	8189.3	7301.75
934.952	2039.8645	8149.2	7260.15
935.0891	2041.4325	8154	7263.5
935.2262	2042.9998	8118.5	7230.15
935.3632	2044.5664	8099.4	7212.65
935.5002	2046.1323	8098.2	7213.15
935.6372	2047.6974	8068.85	7185.3
935.7742	2049.2617	8041.3	7157.6
935.9111	2050.8254	8030.15	7140.5
936.048	2052.3883	8037.15	7150.25
936.1849	2053.9504	7994.95	7106.8
936.3218	2055.5118	7960.25	7072.2
936.4586	2057.0725	7936.3	7046.25
936.5955	2058.6325	7924.3	7037.7
936.7323	2060.1917	7897	7010.8
936.869	2061.7502	7905.7	7016.5
937.0058	2063.3079	7849.15	6965.05
937.1425	2064.8649	7843.5	6954.85
937.2792	2066.4212	7804.7	6917.8
937.4159	2067.9767	7814.3	6927.9
937.5525	2069.5315	7783.15	6897.05
937.6891	2071.0856	7730	6844.55
937.8257	2072.6389	7696	6810
937.9623	2074.1915	7663.45	6778.75
938.0989	2075.7433	7644.9	6755.8
938.2354	2077.2945	7618.8	6732.55
938.3719	2078.8448	7593.75	6704.35
938.5084	2080.3945	7599.45	6711.75
938.6448	2081.9434	7592.25	6706.25
938.7812	2083.4916	7556.25	6665.6
938.9176	2085.039	7521.8	6629.2
939.054	2086.5857	7521.7	6628.55
939.1903	2088.1317	7514.6	6624.5
939.3267	2089.677	7513.9	6619.7
939.463	2091.2215	7464.1	6569.7
939.5992	2092.7652	7459.35	6565.35
939.7355	2094.3083	7437.15	6544.05
939.8717	2095.8506	7433.05	6541.45
940.0079	2097.3921	7441.7	6554
940.1441	2098.933	7407.3	6518.15
940.2802	2100.4731	7375.2	6486.3
940.4163	2102.0124	7389.15	6491.6
940.5524	2103.5511	7357.65	6467.5
940.6885	2105.089	7334.2	6443.5
940.8245	2106.6261	7332.75	6443.3
940.9606	2108.1626	7307.45	6417.9
941.0965	2109.6983	7315.6	6396.25
941.2325	2111.2332	7267.7	6375.45
941.3684	2112.7675	7257.7	6366.2
941.5044	2114.301	7244.05	6349.6
941.6403	2115.8337	7227.95	6338.5
941.7761	2117.3657	7179.15	6288.2
941.912	2118.897	7182.85	6288.6
942.0478	2120.4276	7168.6	6269.85
942.1835	2121.9575	7104.15	6211.6
942.3193	2123.4866	7141.5	6247.2
942.455	2125.0149	7123.55	6232.3
942.5907	2126.5426	7078.3	6191
942.7264	2128.0695	7052.85	6161.85
942.8621	2129.5956	7048.7	6161.8
942.9977	2131.1211	7039.1	6148.4
943.1333	2132.6458	7014.6	6125.8
943.2689	2134.1698	7016	6122.4
943.4044	2135.693	7000.3	6106.2
943.54	2137.2155	6970.3	6074.1
943.6755	2138.7373	6944.85	6054.6
943.8109	2140.2584	6928.35	6041.95
943.9464	2141.7787	6914.2	6023.55
944.0818	2143.2983	6873.3	5989.65
944.2172	2144.8171	6857.55	5973.15
944.3526	2146.3353	6848.55	5958.5
944.4879	2147.8527	6813.1	5925.5
944.6232	2149.3693	6812.15	5922.25
944.7585	2150.8853	6772	5881.35
944.8938	2152.4005	6752	5860.85
945.029	2153.9149	6770.5	5878.05
945.1642	2155.4287	6839.15	5841.45
945.2994	2156.9417	6739.65	5847.1
945.4346	2158.454	6705.45	5814.45
945.5697	2159.9655	6678.45	5790.4
945.7048	2161.4764	6680.7	5793.5
945.8399	2162.9865	6659.7	5769.85
945.9749	2164.4958	6643	5754.9
946.1099	2166.0045	6619.8	5729.25
946.2449	2167.5124	6600	5709.85
946.3799	2169.0195	6611.45	5720.1
946.5148	2170.526	6595.5	5707.05
946.6498	2172.0317	6561.25	5671.8
946.7846	2173.5367	6559.2	5668.65
946.9195	2175.0409	6530.4	5639.4
947.0543	2176.5445	6525.3	5634.4
947.1891	2178.0473	6502.75	5611.3
947.3239	2179.5494	6472.3	5577.9
947.4587	2181.0507	6467.8	5578.3
947.5934	2182.5513	6447.15	5555.25
947.7281	2184.0512	6423.05	5532.15
947.8628	2185.5504	6393.9	5504.1
947.9974	2187.0488	6368.6	5478.6
948.132	2188.5465	6361.55	5473.55
948.2666	2190.0435	6323.65	5433.9
948.4012	2191.5397	6316.45	5426.05
948.5357	2193.0353	6293.25	5400.5
948.6702	2194.5301	6288.65	5394.9
948.8047	2196.0241	6275.75	5381.7
948.9392	2197.5175	6252.65	5358.4
949.0736	2199.0101	6240.65	5342.5
949.208	2200.502	6209.45	5319.4
949.3424	2201.9931	6179.85	5290.15
949.4767	2203.4835	6166.45	5277.9
949.611	2204.9733	6169.7	5265.4
949.7453	2206.4622	6144.85	5258.15
949.8796	2207.9505	6123.95	5235.75
950.0138	2209.438	6078.3	5191.9
950.148	2210.9248	6092	5203.25
950.2822	2212.4109	6045.35	5156.05
950.4164	2213.8962	6047.35	5151.7
950.5505	2215.3809	6038.45	5139.55
950.6846	2216.8648	6022.85	5124.3
950.8186	2218.3479	5996.25	5099
950.9527	2219.8304	5982.7	5084.75
951.0867	2221.3121	5959.85	5065.8
951.2207	2222.7931	5936.9	5044.35
951.3546	2224.2733	5908.4	5014.95
951.4886	2225.7529	5894.8	5002.1
951.6225	2227.2317	5876.3	4984.2
951.7563	2228.7098	5892.05	5005.25
951.8902	2230.1872	5851.5	4962.8
952.024	2231.6638	5848.25	4959.55
952.1578	2233.1397	5818.55	4927.25
952.2916	2234.6149	5802.5	4915.4
952.4253	2236.0894	5792.05	4901.55
952.559	2237.5632	5775	4884.35
952.6927	2239.0362	5760.35	4869.05
952.8263	2240.5085	5743.8	4855
952.9599	2241.9801	5716.35	4824.45
953.0935	2243.4509	5707.95	4813.4
953.2271	2244.921	5685.3	4793.5
953.3606	2246.3904	5677.2	4781.8
953.4941	2247.8591	5653.45	4759.9
953.6276	2249.3271	5651.1	4761.5
953.7611	2250.7943	5623.05	4729.45
953.8945	2252.2608	5612.3	4720.7
954.0279	2253.7266	5599.35	4707.05
954.1612	2255.1917	5579.4	4687
954.2946	2256.656	5554.7	4663.65
954.4279	2258.1197	5534.9	4645.05
954.5612	2259.5826	5524	4630.95
954.6944	2261.0447	5533.4	4641
954.8276	2262.5062	5497.45	4602.4
954.9608	2263.9669	5514.15	4620.6
955.094	2265.4269	5466.4	4572.7
955.2271	2266.8862	5455.75	4564.8
955.3602	2268.3448	5442.3	4551
955.4933	2269.8026	5446.5	4556.95
955.6264	2271.2598	5432.6	4543.25
955.7594	2272.7162	5421.8	4529.7
955.8924	2274.1719	5429.7	4538.3
956.0253	2275.6268	5380.15	4487.8
956.1583	2277.0811	5394.15	4502.05
956.2912	2278.5346	5379.75	4489.75
956.4241	2279.9874	5362.6	4472.75
956.5569	2281.4395	5339.7	4452.05
956.6897	2282.8908	5325.35	4430.7
956.8225	2284.3414	5319.25	4427.15
956.9553	2285.7914	5321.65	4431.2
957.088	2287.2406	5299.85	4407
957.2207	2288.689	5289.9	4397.25
957.3534	2290.1368	5263.35	4367.4
957.486	2291.5838	5247.55	4348.9
957.6186	2293.0302	5230.75	4336.2
957.7512	2294.4758	5221.05	4328
957.8838	2295.9206	5205.85	4311
958.0163	2297.3648	5194.45	4304.05
958.1488	2298.8082	5192.4	4300.4
958.2813	2300.251	5186.9	4294.55
958.4137	2301.693	5159.6	4264
958.5461	2303.1343	5158.75	4263.65
958.6785	2304.5748	5129.7	4239.5
958.8108	2306.0147	5098.5	4209.15
958.9432	2307.4538	5102.65	4211.85
959.0754	2308.8922	5081.4	4195.05
959.2077	2310.3299	5061.35	4172.05
959.3399	2311.7669	5054.65	4164.75
959.4721	2313.2031	5050.35	4159.55
959.6043	2314.6387	5018	4125.25
959.7365	2316.0735	5004	4112.35
959.8686	2317.5076	4994.75	4101.45
960.0006	2318.941	5001.4	4108.75
960.1327	2320.3737	4984.05	4091.7
960.2647	2321.8056	4974.9	4078.4
960.3967	2323.2369	4958.5	4064.65
960.5287	2324.6674	4939.7	4045.15
960.6606	2326.0972	4922.65	4029.3
960.7925	2327.5263	4917.85	4026.85
960.9244	2328.9547	4907.8	4013.2
961.0562	2330.3823	4883.1	3989.4
961.1881	2331.8092	4885.45	3987.35
961.3198	2333.2355	4853.5	3956.3
961.4516	2334.661	4860.8	3968
961.5833	2336.0858	4840.45	3943.8
961.715	2337.5098	4829	3936.15
961.8467	2338.9332	4812.25	3917.5
961.9783	2340.3558	4795.1	3901.5
962.1099	2341.7778	4780.6	3888.2
962.2415	2343.199	4782.25	3889.85
962.373	2344.6195	4775.35	3884.6
962.5045	2346.0393	4746.95	3857.1
962.636	2347.4583	4744.05	3850.3
962.7675	2348.8767	4723.1	3829.65
962.8989	2350.2943	4725.85	3831.3
963.0303	2351.7113	4709.35	3813.1
963.1617	2353.1275	4712.3	3815.3
963.293	2354.543	4708.15	3789.5
963.4243	2355.9578	4685.6	3791.15
963.5556	2357.3718	4658.6	3769.1
963.6868	2358.7852	4625.3	3731.1
963.818	2360.1978	4625.1	3732.45
963.9492	2361.6098	4613.3	3720.05
964.0803	2363.021	4617.7	3723
964.2114	2364.4315	4605.15	3713.45
964.3425	2365.8413	4575.9	3682.3
964.4736	2367.2504	4557.55	3666.95
964.6046	2368.6587	4554.85	3664.85
964.7356	2370.0664	4535.5	3644.9
964.8666	2371.4733	4523.8	3631.4
964.9975	2372.8795	4497.85	3607.25
965.1284	2374.285	4499.05	3604.65
965.2593	2375.6899	4475.85	3585.6
965.3901	2377.0939	4461.8	3571.05
965.5209	2378.4973	4453.5	3563.35
965.6517	2379.9	4437.75	3548.25
965.7825	2381.3019	4432.5	3542.65
965.9132	2382.7032	4404.7	3513.65
966.0439	2384.1037	4389.95	3501.2
966.1745	2385.5035	4390.7	3500.85
966.3051	2386.9027	4384.1	3493.7
966.4357	2388.3011	4356.95	3464.4
966.5663	2389.6987	4353.5	3463.55
966.6968	2391.0957	4332.5	3443.4
966.8273	2392.492	4314.9	3426.3
966.9578	2393.8876	4307.05	3416.25
967.0882	2395.2824	4299.45	3408.95
967.2186	2396.6765	4282.95	3393.15
967.349	2398.07	4266.4	3376.1
967.4793	2399.4627	4263.55	3370.6
967.6097	2400.8547	4253.65	3359.6
967.7399	2402.246	4251.15	3352.35
967.8702	2403.6366	4245.65	3352.85
968.0004	2405.0265	4193.45	3303.05
968.1306	2406.4156	4201.45	3305.35
968.2607	2407.8041	4194.35	3300.9
968.3909	2409.1918	4180.2	3289.35
968.521	2410.5789	4153.4	3261.3
968.651	2411.9652	4148.3	3255.25
968.781	2413.3508	4139.5	3248.05
968.911	2414.7358	4124.6	3234.3
969.041	2416.12	4102.05	3209.9
969.1709	2417.5035	4104.45	3213.75
969.3008	2418.8863	4080.25	3188
969.4307	2420.2684	4077.75	3185.35
969.5606	2421.6497	4067.95	3173.85
969.6904	2423.0304	4042.95	3152.65
969.8201	2424.4104	4032.95	3138.85
969.9499	2425.7896	4037.55	3146.15
970.0796	2427.1682	4017.1	3125.1
970.2093	2428.546	4005.85	3113.55
970.3389	2429.9232	3990.15	3096.65
970.4685	2431.2996	3985.3	3094.15
970.5981	2432.6753	3984.9	3092.75
970.7277	2434.0503	3962.3	3069.95
970.8572	2435.4246	3955.95	3064
970.9867	2436.7982	3924.75	3031.95
971.1161	2438.1711	3939.85	3048.6
971.2456	2439.5433	3921.5	3028.85
971.375	2440.9148	3921.9	3025.6
971.5043	2442.2856	3894	3004
971.6336	2443.6557	3898.85	3005.35
971.7629	2445.025	3874.95	2983.95
971.8922	2446.3937	3870.9	2978.6
972.0214	2447.7617	3862.05	2969.45
972.1506	2449.1289	3850.2	2956.7
972.2798	2450.4955	3845.85	2951.2
972.4089	2451.8613	3828.7	2937.4
972.538	2453.2265	3833.75	2941.3
972.6671	2454.5909	3811.45	2919.6
972.7961	2455.9546	3794.1	2901.45
972.9251	2457.3177	3793.1	2902.1
973.0541	2458.68	3782.75	2891.1
973.1831	2460.0416	3776.2	2885.2
973.312	2461.4025	3758	2867.65
973.4408	2462.7627	3766.1	2863
973.5697	2464.1222	3749.4	2859.9
973.6985	2465.4811	3734.25	2843.7
973.8273	2466.8392	3738.25	2846.5
973.956	2468.1966	3728.25	2835.45
974.0847	2469.5533	3732.25	2836.95
974.2134	2470.9093	3710.95	2820.4
974.3421	2472.2645	3696.15	2804.1
974.4707	2473.6191	3692.65	2800.5
974.5993	2474.973	3680.7	2788.1
974.7278	2476.3262	3678.25	2785.05
974.8563	2477.6787	3655.8	2765.45
974.9848	2479.0305	3645.85	2753.1
975.1132	2480.3816	3639.9	2745.25
975.2417	2481.7319	3632.2	2741.9
975.37	2483.0816	3631.5	2736.75
975.4984	2484.4306	3614.8	2723.9
975.6267	2485.7789	3603.7	2714.45
975.755	2487.1264	3587	2695.45
975.8833	2488.4733	3574.95	2683.5
976.0115	2489.8195	3582.45	2674.45
976.1397	2491.165	3551.85	2656.45
976.2678	2492.5097	3542.25	2651.2
976.3959	2493.8538	3530.8	2640.9
976.524	2495.1972	3509.2	2619.8
976.6521	2496.5398	3503.8	2611.65
976.7801	2497.8818	3502.75	2608.3
976.9081	2499.2231	3486.05	2594.7
977.036	2500.5637	3483.25	2588.75
977.164	2501.9035	3481.45	2589.6
977.2918	2503.2427	3470.1	2576.05
977.4197	2504.5812	3465.55	2572.45
977.5475	2505.919	3452.4	2562.4
977.6753	2507.256	3452.45	2560.8
977.8031	2508.5924	3430.85	2537.85
977.9308	2509.9281	3423.95	2525.35
978.0585	2511.2631	3410.1	2519.2
978.1861	2512.5974	3409.1	2518.1
978.3137	2513.9309	3399.9	2508.25
978.4413	2515.2638	3413	2493.1
978.5689	2516.596	3386.55	2496.4
978.6964	2517.9275	3378.15	2486.15
978.8239	2519.2583	3360.15	2468.45
978.9513	2520.5884	3361.15	2470.15
979.0788	2521.9178	3350.6	2458.15
979.2062	2523.2465	3340.3	2450.15
979.3335	2524.5745	3325.75	2433.9
979.4608	2525.9018	3311.4	2418.15
979.5881	2527.2284	3310.3	2418.25
979.7154	2528.5543	3305.95	2415.85
979.8426	2529.8796	3294.35	2402.75
979.9698	2531.2041	3287.55	2394
980.0969	2532.5279	3265.65	2375.4
980.224	2533.851	3277.3	2385.65
980.3511	2535.1735	3255.45	2362.75
980.4781	2536.4952	3261.3	2368.35
980.6052	2537.8163	3258.75	2365.05
980.7321	2539.1366	3244.1	2352.7
980.8591	2540.4562	3230	2339.1
980.986	2541.7752	3241.1	2348.65
981.1129	2543.0935	3227.95	2335.55
981.2397	2544.411	3222.1	2327.2
981.3665	2545.7279	3230	2338.15
981.4933	2547.0441	3209.9	2316.65
981.62	2548.3596	3203.45	2308.95
981.7467	2549.6744	3198.15	2306.35
981.8734	2550.9885	3186.8	2294.25
982.0001	2552.3019	3192	2299.1
982.1267	2553.6146	3178.4	2286.45
982.2532	2554.9266	3176.3	2283.4
982.3798	2556.2379	3163.7	2270.6
982.5063	2557.5485	3156.5	2267.3
982.6327	2558.8585	3148.3	2249.05
982.7592	2560.1677	3157.9	2261
982.8856	2561.4762	3146.8	2254.15
983.0119	2562.7841	3136	2242.5
983.1383	2564.0913	3136	2245.35
983.2646	2565.3977	3127.25	2236.25
983.3908	2566.7035	3115.1	2222.9
983.517	2568.0086	3129.35	2233.15
983.6432	2569.313	3132.35	2238.1
983.7694	2570.6167	3120.05	2224.8
983.8955	2571.9197	3109.85	2218.25
984.0216	2573.222	3106.6	2210.95
984.1476	2574.5236	3096.65	2204.15
984.2737	2575.8246	3075.65	2181
984.3996	2577.1248	3088	2193.35
984.5256	2578.4244	3081.8	2190.7
984.6515	2579.7232	3072.25	2181.55
984.7774	2581.0214	3088.1	2166.55
984.9032	2582.3189	3064	2172.9
985.029	2583.6157	3062.95	2166.5
985.1548	2584.9118	3055.75	2163.6
985.2806	2586.2072	3049	2155.6
985.4063	2587.5019	3031.85	2140.85
985.5319	2588.7959	3028.6	2136.7
985.6576	2590.0893	3037.85	2144.2
985.7832	2591.3819	3009.95	2120.8
985.9087	2592.6739	3013.15	2122.45
986.0343	2593.9652	3016.05	2121.15
986.1597	2595.2557	2996.5	2106.15
986.2852	2596.5456	2996	2100.65
986.4106	2597.8348	2990	2099.2
986.536	2599.1234	2983.95	2093.65
986.6614	2600.4112	2979.95	2088.25
986.7867	2601.6983	2983.7	2090.8
986.912	2602.9848	2955.35	2062.4
987.0372	2604.2705	2966.75	2068.8
987.1624	2605.5556	2946.9	2056.3
987.2876	2606.84	2936.45	2045.65
987.4128	2608.1237	2928.05	2038.35
987.5379	2609.4067	2929	2039.35
987.6629	2610.689	2931.25	2031.2
987.788	2611.9707	2927.05	2032.4
987.913	2613.2516	2901.45	2003.15
988.0379	2614.5319	2872.6	1981.9
988.1629	2615.8115	2870.75	1979.7
988.2878	2617.0903	2875.6	1982.3
988.4126	2618.3685	2861.35	1971.25
988.5375	2619.6461	2859.3	1969.9
988.6622	2620.9229	2851.25	1961.35
988.787	2622.199	2846.1	1952.4
988.9117	2623.4745	2848.9	1956.15
989.0364	2624.7493	2825.45	1936.05
989.161	2626.0234	2813.95	1922.5
989.2857	2627.2968	2824.4	1934.2
989.4102	2628.5695	2809.5	1917.95
989.5348	2629.8415	2797.25	1905.1
989.6593	2631.1128	2792.8	1899.25
989.7837	2632.3835	2783.4	1892.1
989.9082	2633.6535	2767.1	1878.3
990.0326	2634.9228	2757.6	1867.25
990.1569	2636.1914	2764.4	1870.9
990.2812	2637.4593	2759.7	1868.85
990.4055	2638.7265	2746.4	1855.45
990.5298	2639.9931	2737.8	1847.9
990.654	2641.259	2734.8	1844.4
990.7782	2642.5242	2718.45	1828.2
990.9023	2643.7887	2726.75	1837.65
991.0264	2645.0525	2719.9	1830.85
991.1505	2646.3156	2725.25	1820.75
991.2745	2647.5781	2709.25	1821.35
991.3985	2648.8398	2707.3	1816.65
991.5225	2650.1009	2712.25	1797.85
991.6464	2651.3613	2687.2	1797.2
991.7703	2652.6211	2687.45	1797.7
991.8942	2653.8801	2675.65	1787.25
992.018	2655.1385	2679.25	1786.3
992.1418	2656.3961	2665.45	1777.8
992.2655	2657.6531	2654.9	1764.45
992.3892	2658.9094	2652.95	1761.1
992.5129	2660.1651	2656.85	1767.75
992.6366	2661.42	2641.75	1752.2
992.7602	2662.6743	2645	1754.1
992.8837	2663.9279	2648.45	1759.75
993.0073	2665.1808	2636.8	1746.65
993.1307	2666.433	2631.45	1741.4
993.2542	2667.6846	2631.95	1741.65
993.3776	2668.9354	2630.1	1735.85
993.501	2670.1856	2619.65	1729.3
993.6244	2671.4351	2615.5	1726.1
993.7477	2672.6839	2624.7	1734.3
993.8709	2673.9321	2607.55	1717.3
993.9942	2675.1795	2614.8	1724.15
994.1174	2676.4263	2604.65	1714.65
994.2405	2677.6724	2600.55	1711.5
994.3637	2678.9179	2588	1697.9
994.4868	2680.1626	2596.85	1706.75
994.6098	2681.4067	2598.2	1707.8
994.7328	2682.6501	2586.6	1696.3
994.8558	2683.8928	2572.2	1682.7
994.9788	2685.1348	2556.25	1666.55
995.1017	2686.3761	2551.65	1661.55
995.2245	2687.6168	2550.45	1660.1
995.3474	2688.8568	2543.55	1653.8
995.4702	2690.0961	2518.85	1628.5
995.5929	2691.3348	2525.95	1635.8
995.7156	2692.5727	2518.6	1631.1
995.8383	2693.81	2511.35	1622.35
995.961	2695.0466	2512.1	1623.55
996.0836	2696.2826	2501.6	1609.85
996.2062	2697.5178	2504.05	1613.8
996.3287	2698.7524	2496.9	1605.95
996.4512	2699.9863	2494.1	1602
996.5737	2701.2195	2487.45	1597.3
996.6961	2702.452	2483.15	1592.4
996.8185	2703.6839	2485.6	1596.1
996.9408	2704.9151	2485.85	1596.15
997.0631	2706.1456	2484.35	1593.8
997.1854	2707.3755	2478.65	1586.9
997.3077	2708.6046	2482	1589.05
997.4299	2709.8331	2481.8	1590.8
997.552	2711.0609	2473.45	1586.25
997.6742	2712.2881	2480.6	1593.2
997.7963	2713.5145	2477.45	1586.8
997.9183	2714.7403	2466.75	1575.5
998.0403	2715.9654	2468.8	1578.7
998.1623	2717.1899	2492.25	1589.25
998.2842	2718.4136	2484.9	1594.25
998.4062	2719.6367	2491.45	1601.9
998.528	2720.8591	2484.35	1587.9
998.6498	2722.0809	2476.05	1583.6
998.7716	2723.3019	2491	1598.6
998.8934	2724.5223	2487.45	1595.95
999.0151	2725.7421	2481.55	1589.3
999.1368	2726.9611	2483.95	1593.7
999.2584	2728.1795	2475.15	1580.2
999.38	2729.3972	2470.35	1582.05
999.5016	2730.6142	2459.65	1566.15
999.6231	2731.8306	2441.25	1551.5
999.7446	2733.0462	2423.7	1533.9
999.8661	2734.2612	2414.8	1520.05
999.9875	2735.4756	2398.35	1506.6
1000.1089	2736.6892	2378.55	1488.25
1000.2302	2737.9022	2364.85	1478.05
1000.3515	2739.1145	2360.1	1472.1
1000.4728	2740.3262	2344.85	1448.7
1000.594	2741.5372	2330.5	1442.3
1000.7152	2742.7475	2311.05	1423.45
1000.8363	2743.9571	2308.9	1418.3
1000.9575	2745.1661	2293.5	1400.05
1001.0785	2746.3744	2296.75	1405.9
1001.1996	2747.582	2278.1	1389.7
1001.3206	2748.7889	2264.8	1374.6
1001.4415	2749.9952	2262.25	1375.9
1001.5625	2751.2008	2267.8	1377.75
1001.6833	2752.4057	2252.8	1361.75
1001.8042	2753.61	2239.35	1349.2
1001.925	2754.8136	2238.6	1347.25
1002.0458	2756.0165	2228.2	1340.75
1002.1665	2757.2188	2227.85	1340.6
1002.2872	2758.4204	2223.4	1335.95
1002.4078	2759.6213	2210.6	1320.05
1002.5285	2760.8215	2219.35	1326.4
1002.649	2762.0211	2208.05	1317.85
1002.7696	2763.22	2208	1317
1002.8901	2764.4182	2199.95	1308.35
1003.0106	2765.6158	2195.25	1305.2
1003.131	2766.8127	2195.15	1306.95
1003.2514	2768.009	2190.2	1302.4
1003.3717	2769.2045	2187.8	1299.75
1003.492	2770.3994	2179.65	1288.2
1003.6123	2771.5936	2172.55	1282.95
1003.7325	2772.7872	2155.85	1267.45
1003.8527	2773.9801	2157.85	1267.75
1003.9729	2775.1723	2165.35	1259.75
1004.093	2776.3639	2149.55	1261.6
1004.2131	2777.5548	2145	1254.65
1004.3331	2778.745	2144.4	1255.1
1004.4531	2779.9346	2131.25	1245.15
1004.5731	2781.1235	2125.2	1234
1004.693	2782.3117	2138.6	1250.8
1004.8129	2783.4992	2123.4	1236
1004.9328	2784.6861	2124.65	1236.4
1005.0526	2785.8723	2113.3	1223.7
1005.1723	2787.0579	2117.45	1229.55
1005.2921	2788.2428	2124.25	1236.6
1005.4118	2789.427	2124.75	1237.6
1005.5314	2790.6106	2120.45	1233.95
1005.651	2791.7935	2127.6	1238.8
1005.7706	2792.9757	2109.85	1223.4
1005.8902	2794.1573	2118.05	1226.4
1006.0097	2795.3382	2114.25	1227.2
1006.1291	2796.5184	2120.05	1233.05
1006.2485	2797.698	2129.65	1238.75
1006.3679	2798.8769	2136.5	1247.6
1006.4873	2800.0551	2130.75	1243.45
1006.6066	2801.2327	2135.4	1245.2
1006.7258	2802.4096	2141.25	1255.6
1006.8451	2803.5859	2149.5	1260.3
1006.9642	2804.7615	2148.1	1260.3
1007.0834	2805.9364	2154.35	1268.5
1007.2025	2807.1106	2169.3	1282.5
1007.3216	2808.2842	2187.95	1299.35
1007.4406	2809.4572	2201.25	1311.55
1007.5596	2810.6294	2211.95	1323.5
1007.6785	2811.801	2233.95	1347.15
1007.7975	2812.972	2252	1364.85
1007.9163	2814.1423	2271.95	1383.95
1008.0352	2815.3119	2304.45	1416.5
1008.154	2816.4808	2321.25	1436.1
1008.2727	2817.6491	2352.3	1464.65
1008.3914	2818.8167	2386.05	1500.05
1008.5101	2819.9837	2423.95	1532.45
1008.6288	2821.15	2447.35	1557.8
1008.7474	2822.3157	2485.65	1596.6
1008.8659	2823.4807	2516.75	1631.7
1008.9844	2824.645	2556.25	1668.6
1009.1029	2825.8086	2589.4	1702.2
1009.2214	2826.9716	2614.75	1729.35
1009.3398	2828.134	2647.8	1760.4
1009.4581	2829.2957	2686.65	1800.3
1009.5764	2830.4567	2688.55	1802.85
1009.6947	2831.617	2703.95	1817.4
1009.813	2832.7767	2723	1837
1009.9312	2833.9358	2712.2	1825.75
1010.0493	2835.0941	2711.8	1822.2
1010.1675	2836.2519	2695.4	1807.6
1010.2855	2837.4089	2676.7	1788.7
1010.4036	2838.5653	2665.7	1778.75
1010.5216	2839.7211	2655.4	1771
1010.6396	2840.8761	2655.05	1767.7
1010.7575	2842.0306	2659.75	1775.35
1010.8754	2843.1843	2659.7	1771.9
1010.9932	2844.3374	2687.3	1798.75
1011.111	2845.4899	2708.4	1821.1
1011.2288	2846.6417	2746.5	1860.45
1011.3465	2847.7928	2779.8	1893.4
1011.4642	2848.9433	2817.45	1932.75
1011.5818	2850.0931	2849.45	1965.6
1011.6995	2851.2422	2894.95	2006.05
1011.817	2852.3907	2911.4	2026.4
1011.9345	2853.5385	2951.85	2060.7
1012.052	2854.6857	2989.95	2094.35
1012.1695	2855.8323	3012.7	2127.15
1012.2869	2856.9781	3038	2149.4
1012.4042	2858.1233	3081.8	2195.1
1012.5216	2859.2679	3094.5	2207.65
1012.6389	2860.4118	3137.15	2250.15
1012.7561	2861.555	3153.5	2261.75
1012.8733	2862.6976	3173.6	2283.4
1012.9905	2863.8395	3191.7	2303.9
1013.1076	2864.9808	3220	2333.65
1013.2247	2866.1214	3227.55	2342.1
1013.3417	2867.2614	3246.25	2358.9
1013.4587	2868.4007	3252.85	2366.05
1013.5757	2869.5393	3257.55	2371.1
1013.6926	2870.6773	3259.8	2372.5
1013.8095	2871.8146	3269.85	2378.9
1013.9263	2872.9513	3258.25	2370.3
1014.0431	2874.0874	3246.3	2359.45
1014.1599	2875.2227	3238.1	2350.1
1014.2766	2876.3574	3218.9	2333.9
1014.3933	2877.4915	3208.25	2323.95
1014.51	2878.6249	3184.3	2301.25
1014.6266	2879.7577	3172.85	2283.55
1014.7431	2880.8898	3162.8	2265.3
1014.8596	2882.0212	3153.2	2266.1
1014.9761	2883.152	3119.55	2233.2
1015.0925	2884.2821	3112.45	2228.75
1015.2089	2885.4116	3110.2	2224.8
1015.3253	2886.5405	3101.8	2217.75
1015.4416	2887.6686	3119.3	2229.75
1015.5579	2888.7962	3115.2	2229.85
1015.6741	2889.923	3122.55	2239.6
1015.7903	2891.0493	3129.4	2244.2
1015.9065	2892.1748	3124.25	2236.15
1016.0226	2893.2997	3141.25	2253.85
1016.1387	2894.424	3133.15	2249.85
1016.2547	2895.5476	3145.95	2258.7
1016.3707	2896.6706	3151.05	2267.9
1016.4866	2897.7929	3157.05	2270.05
1016.6025	2898.9145	3175.85	2290.05
1016.7184	2900.0355	3188	2301.6
1016.8342	2901.1559	3191.5	2305.15
1016.95	2902.2756	3214.05	2326.85
1017.0658	2903.3946	3222.6	2334.2
1017.1815	2904.513	3248.15	2361.35
1017.2971	2905.6308	3248.3	2362.7
1017.4127	2906.7479	3272.45	2384.95
1017.5283	2907.8643	3288	2401.85
1017.6439	2908.9801	3287.3	2402.65
1017.7594	2910.0953	3296.15	2411.05
1017.8748	2911.2098	3297.8	2407.95
1017.9902	2912.3236	3278.65	2386.7
1018.1056	2913.4368	3274.4	2385.9
1018.2209	2914.5494	3267.95	2380.95
1018.3362	2915.6613	3234	2341.3
1018.4515	2916.7725	3204.8	2317.3
1018.5667	2917.8831	3193.5	2307.5
1018.6819	2918.9931	3158.7	2271
1018.797	2920.1024	3149.35	2261.75
1018.9121	2921.211	3124.25	2239.5
1019.0271	2922.319	3112.6	2226.3
1019.1421	2923.4264	3099.35	2216.45
1019.2571	2924.5331	3091.05	2207.95
1019.372	2925.6391	3098.35	2214.5
1019.4869	2926.7445	3100.5	2217.2
1019.6017	2927.8493	3089.5	2203.05
1019.7165	2928.9534	3083.95	2199.4
1019.8313	2930.0569	3094.7	2204.6
1019.946	2931.1597	3088	2201.1
1020.0606	2932.2619	3079.6	2194.65
1020.1753	2933.3634	3079.8	2194.25
1020.2899	2934.4643	3100.6	2206.6
1020.4044	2935.5645	3081.05	2188.4
1020.5189	2936.6641	3064.8	2176.4
1020.6334	2937.763	3032	2147.6
1020.7478	2938.8613	3017.8	2132.3
1020.8622	2939.959	2993.8	2103.9
1020.9765	2941.056	2945.8	2062.55
1021.0908	2942.1523	2903.75	2016.1
1021.2051	2943.248	2849.15	1964.85
1021.3193	2944.3431	2780.7	1896.55
1021.4334	2945.4375	2723.65	1838.5
1021.5476	2946.5313	2654.15	1769.65
1021.6617	2947.6244	2593.4	1708.85
1021.7757	2948.7169	2523.65	1636.35
1021.8897	2949.8087	2472.15	1585.4
1022.0037	2950.8999	2404.35	1518.35
1022.1176	2951.9904	2347.35	1464.1
1022.2315	2953.0803	2306.55	1421.85
1022.3453	2954.1696	2270.35	1384.2
1022.4591	2955.2582	2233.55	1348.45
1022.5728	2956.3462	2200.75	1314.2
1022.6865	2957.4335	2167	1279.15
1022.8002	2958.5202	2144.2	1256.05
1022.9138	2959.6062	2125.3	1239.95
1023.0274	2960.6916	2112.9	1229.25
1023.141	2961.7764	2091.75	1206.35
1023.2545	2962.8605	2081.65	1196.85
1023.3679	2963.9439	2072.65	1188.55
1023.4813	2965.0267	2053.45	1169.6
1023.5947	2966.1089	2071.45	1162.25
1023.708	2967.1905	2041.9	1156.95
1023.8213	2968.2714	2043.6	1159.8
1023.9346	2969.3516	2032.3	1147
1024.0478	2970.4312	2048.05	1157.8
1024.1609	2971.5102	2038.5	1154.75
1024.274	2972.5885	2039.55	1154.15
1024.3871	2973.6662	2053.25	1165.75
1024.5002	2974.7432	2043.45	1160.15
1024.6132	2975.8196	2030.05	1146.45
1024.7261	2976.8954	2028.8	1145.15
1024.839	2977.9705	2024.85	1139.3
1024.9519	2979.045	2007.35	1125.5
1025.0647	2980.1188	2004.9	1119.35
1025.1775	2981.192	1990.3	1106.1
1025.2902	2982.2645	1976.4	1091.3
1025.4029	2983.3364	1957.45	1071.8
1025.5156	2984.4077	1938.4	1054
1025.6282	2985.4783	1927	1035.7
1025.7407	2986.5483	1905.35	1022.25
1025.8532	2987.6177	1883.1	1000.3
1025.9657	2988.6864	1862.5	976.75
1026.0782	2989.7545	1829.9	944
1026.1906	2990.8219	1812.4	928.25
1026.3029	2991.8887	1784.9	898.55
1026.4152	2992.9548	1756.95	872.6
1026.5275	2994.0204	1748.95	864.45
1026.6397	2995.0852	1726.15	842.75
1026.7519	2996.1495	1703.65	818.85
1026.864	2997.2131	1682.55	798.25
1026.9761	2998.276	1666.05	781.75
1027.0882	2999.3383	1656.5	770.45
1027.2002	3000.4	1640.4	755.55
1027.3122	3001.4611	1625	739.45
1027.4241	3002.5215	1614	728.6
1027.536	3003.5812	1603	718.95
1027.6478	3004.6404	1585.6	701.95
1027.7596	3005.6989	1588.75	701.2
1027.8714	3006.7567	1572.25	686.4
1027.9831	3007.8139	1581.25	677.55
1028.0947	3008.8705	1558.2	673.3
1028.2064	3009.9264	1564.8	661.8
1028.3179	3010.9818	1545.3	660.5
1028.4295	3012.0364	1537.3	653.55
1028.541	3013.0905	1529.9	644.3
1028.6524	3014.1439	1527.95	644.15
1028.7638	3015.1966	1513.75	629.8
1028.8752	3016.2487	1523.9	639.9
1028.9865	3017.3002	1519.85	631.75
1029.0978	3018.3511	1508.9	624.4
1029.209	3019.4013	1504.65	621.4
1029.3202	3020.4509	1504.05	620.3
1029.4314	3021.4998	1495.75	612
1029.5425	3022.5481	1501.3	616.35
1029.6535	3023.5958	1492.75	609.8
1029.7645	3024.6428	1495.9	610.1
1029.8755	3025.6892	1484.35	600.35
1029.9864	3026.735	1492.35	606.35
1030.0973	3027.7802	1480.9	596.75
1030.2082	3028.8247	1480.75	597.8
1030.319	3029.8685	1482.25	596.45
1030.4297	3030.9118	1483.5	599.45
1030.5404	3031.9544	1483.1	599.6
1030.6511	3032.9963	1484.35	600.65
1030.7617	3034.0376	1478.25	596.2
1030.8723	3035.0783	1488.2	600.1
1030.9829	3036.1184	1480.15	595.55
1031.0934	3037.1578	1481.1	596.55
1031.2038	3038.1966	1479.6	594.65
1031.3142	3039.2348	1478	595.95
1031.4246	3040.2723	1490.85	599.1
1031.5349	3041.3092	1476.65	593.2
1031.6452	3042.3455	1475.45	591.8
1031.7554	3043.3811	1475.95	592.6
1031.8656	3044.4161	1464.65	578.3
1031.9758	3045.4505	1468.95	585.7
1032.0859	3046.4842	1476.1	590.15
1032.1959	3047.5173	1456.2	571.75
1032.3059	3048.5498	1460.55	577.35
1032.4159	3049.5816	1459.55	574.6
1032.5258	3050.6128	1459.8	572.35
1032.6357	3051.6434	1451.8	568.15
1032.7455	3052.6734	1448.7	563.45
1032.8553	3053.7027	1446.35	562.2
1032.9651	3054.7314	1441.05	558.1
1033.0748	3055.7594	1434.4	552.55
1033.1845	3056.7868	1432.3	548.4
1033.2941	3057.8136	1430.65	546.75
1033.4037	3058.8398	1424.15	541.95
1033.5132	3059.8653	1430.7	546.7
1033.6227	3060.8902	1419.5	536.35
1033.7321	3061.9145	1423.6	539.15
1033.8415	3062.9381	1417.25	532.1
1033.9509	3063.9612	1430.25	530.85
1034.0602	3064.9835	1402.75	516
1034.1694	3066.0053	1403.45	517.65
1034.2787	3067.0264	1401.35	518
1034.3878	3068.0469	1394.2	508.7
1034.497	3069.0668	1398.4	513.4
1034.6061	3070.086	1389.8	509.45
1034.7151	3071.1046	1386.5	499.5
1034.8241	3072.1226	1387.3	503.9
1034.9331	3073.1399	1368.2	486
1035.042	3074.1567	1375	491.65
1035.1508	3075.1727	1361.7	474.7
1035.2597	3076.1882	1363	478.7
1035.3684	3077.203	1353.8	469.25
1035.4772	3078.2173	1347.45	462.1
1035.5859	3079.2308	1347.45	460.8
1035.6945	3080.2438	1338.65	455.2
1035.8031	3081.2561	1332.75	449.4
1035.9117	3082.2678	1325.1	443.5
1036.0202	3083.2789	1328.4	445.15
1036.1286	3084.2893	1321.65	438.55
1036.2371	3085.2991	1317.55	432.6
1036.3454	3086.3083	1307.2	419.9
1036.4538	3087.3169	1304.9	421.85
1036.562	3088.3248	1298.85	414.95
1036.6703	3089.3321	1299.2	413
1036.7785	3090.3388	1290.55	407.25
1036.8866	3091.3449	1294.35	408.3
1036.9948	3092.3503	1288.2	402
1037.1028	3093.3551	1286.9	405.45
1037.2108	3094.3593	1276.85	392.15
1037.3188	3095.3629	1274.65	390.7
1037.4267	3096.3658	1275.8	388.05
1037.5346	3097.3681	1271.8	389.45
1037.6425	3098.3698	1269.25	383.35
1037.7503	3099.3708	1266.05	379.75
1037.858	3100.3713	1258.45	376.5
1037.9657	3101.3711	1265.05	380.7
1038.0734	3102.3702	1397	372.2
1038.181	3103.3688	1251.15	364.25
1038.2886	3104.3667	1243.15	361.8
1038.3961	3105.364	1242.85	361.15
1038.5036	3106.3607	1238.3	352.65
1038.611	3107.3568	1241.1	354.95
1038.7184	3108.3522	1235.25	349.95
1038.8257	3109.347	1236.95	349.8
1038.933	3110.3412	1238.45	351.6
1039.0403	3111.3348	1226.7	343.85
1039.1475	3112.3277	1230.3	347.85
1039.2547	3113.32	1221.7	338.65
1039.3618	3114.3117	1222.1	338.45
1039.4689	3115.3028	1221.3	336.3
1039.5759	3116.2932	1222.65	337.7
1039.6829	3117.2831	1222.65	332.6
1039.7898	3118.2723	1213.65	331.05
1039.8967	3119.2608	1209.2	328.2
1040.0035	3120.2488	1203.6	320.4
1040.1103	3121.2361	1204.7	321.35
1040.2171	3122.2229	1206.05	320.6
1040.3238	3123.209	1201.15	318
1040.4305	3124.1944	1197.55	313.05
1040.5371	3125.1793	1204.85	322.45
1040.6437	3126.1635	1197.4	313.75
1040.7502	3127.1471	1190.75	308.35
1040.8567	3128.1301	1190.1	306.4
1040.9631	3129.1125	1187.65	303.35
1041.0695	3130.0942	1195.7	310.75
1041.1759	3131.0753	1192.8	300.7
1041.2822	3132.0558	1186.75	301.3
1041.3884	3133.0357	1181.55	297.9
1041.4946	3134.015	1181.95	295.6
1041.6008	3134.9936	1182.15	296.85
1041.7069	3135.9716	1197.35	290.8
1041.813	3136.949	1175.3	290.6
1041.919	3137.9258	1199.05	296.95
1042.025	3138.902	1173.7	285.1
1042.1309	3139.8775	1173.35	289.8
1042.2368	3140.8524	1179.35	298.45
1042.3427	3141.8267	1173.6	288.5
1042.4485	3142.8004	1166.15	282
1042.5542	3143.7735	1174.3	285.7
1042.6599	3144.7459	1166.45	281.85
1042.7656	3145.7178	1163.35	279.9
1042.8712	3146.689	1163.85	281
1042.9768	3147.6596	1166.95	283.85
1043.0823	3148.6295	1161.8	278.3
1043.1878	3149.5989	1160.4	277.75
1043.2932	3150.5676	1155.5	274.5
1043.3986	3151.5357	1151.45	271.25
1043.5039	3152.5032	1155.95	272.95
1043.6092	3153.4701	1146.65	262.4
1043.7145	3154.4364	1147.1	261.1
1043.8197	3155.402	1146.85	263.95
1043.9248	3156.367	1141	255
1044.03	3157.3315	1172.1	252.25
1044.135	3158.2952	1140.9	259
1044.24	3159.2584	1138.5	255.8
1044.345	3160.221	1135.45	251.7
1044.4499	3161.1829	1136.75	252.8
1044.5548	3162.1442	1136.35	253.45
1044.6596	3163.105	1132.5	249.05
1044.7644	3164.065	1128.1	244.6
1044.8692	3165.0245	1133.7	247.45
1044.9739	3165.9834	1126.75	246.9
1045.0785	3166.9416	1127.8	245.1
1045.1831	3167.8993	1128.25	245.25
1045.2877	3168.8563	1123.1	240.55
1045.3922	3169.8127	1122.1	241.25
1045.4966	3170.7684	1121.7	238.6
1045.6011	3171.7236	1123.15	241.7
1045.7054	3172.6782	1121.55	237.85
1045.8098	3173.6321	1120.85	236.4
1045.914	3174.5854	1121.05	232.6
1046.0183	3175.5381	1113.05	230.9
1046.1224	3176.4902	1116.75	235.35
1046.2266	3177.4417	1117.6	234.8
1046.3307	3178.3926	1111.1	229.85
1046.4347	3179.3428	1111.05	226.5
1046.5387	3180.2924	1108.35	225.8
1046.6427	3181.2415	1111.6	228.35
1046.7466	3182.1899	1109.35	225.15
1046.8504	3183.1377	1103.3	219.1
1046.9542	3184.0848	1109.2	222.5
1047.058	3185.0314	1106	222.9
1047.1617	3185.9773	1103.1	220.75
1047.2654	3186.9227	1105.35	222.25
1047.369	3187.8674	1100.15	218.1
1047.4726	3188.8115	1100.9	215.15
1047.5761	3189.755	1098.3	215.05
1047.6796	3190.6979	1098.8	216.45
1047.783	3191.6402	1094.35	211.5
1047.8864	3192.5818	1092.1	209.55
1047.9898	3193.5229	1103.15	213.4
1048.0931	3194.4633	1096.35	213.85
1048.1963	3195.4031	1090.3	206.35
1048.2995	3196.3423	1087.3	203.3
1048.4027	3197.2809	1090.4	208.2
1048.5058	3198.2189	1085.6	200.3
1048.6089	3199.1563	1094.5	208
1048.7119	3200.0931	1082.25	199.6
1048.8148	3201.0292	1078.9	198.25
1048.9178	3201.9648	1082.6	199.7
1049.0206	3202.8997	1082.7	198.5
1049.1235	3203.834	1077.75	194.1
1049.2262	3204.7677	1084.7	201.3
1049.329	3205.7008	1079.85	195.85
1049.4317	3206.6333	1075.45	191
1049.5343	3207.5652	1077.45	193.55
1049.6369	3208.4964	1079.05	197.65
1049.7394	3209.4271	1072.15	189.55
1049.8419	3210.3571	1075.4	192.8
1049.9444	3211.2865	1069.85	187.2
1050.0468	3212.2154	1071.95	187.15
1050.1491	3213.1436	1077.1	190.55
1050.2514	3214.0712	1074.5	183.6
1050.3537	3214.9982	1066.7	184.8
1050.4559	3215.9246	1064.3	180.25
1050.5581	3216.8503	1067.8	184.75
1050.6602	3217.7755	1065.2	183.05
1050.7623	3218.7001	1066.45	185.95
1050.8643	3219.624	1061	178.35
1050.9663	3220.5473	1065.5	182.05
1051.0682	3221.4701	1063.25	178.85
1051.1701	3222.3922	1064.9	180.45
1051.2719	3223.3137	1059.3	177.7
1051.3737	3224.2346	1059.7	177.75
1051.4754	3225.1549	1057.4	176.1
1051.5771	3226.0746	1058.2	175.65
1051.6788	3226.9937	1054.95	172.25
1051.7804	3227.9121	1054.45	173.95
1051.8819	3228.83	1050.75	167.75
1051.9834	3229.7473	1053.25	170.7
1052.0849	3230.6639	1052.45	168.3
1052.1863	3231.5799	1048.8	165.7
1052.2876	3232.4954	1048.35	163.95
1052.3889	3233.4102	1049.35	166.6
1052.4902	3234.3244	1047.55	165.05
1052.5914	3235.238	1046.4	164.75
1052.6926	3236.151	1069.4	162.8
1052.7937	3237.0634	1045.75	164.85
1052.8948	3237.9752	1041.5	159.3
1052.9958	3238.8864	1044.45	161.4
1053.0968	3239.797	1044.55	161.7
1053.1977	3240.7069	1044.95	160.9
1053.2986	3241.6163	1041.65	157.05
1053.3994	3242.5251	1038.65	155.1
1053.5002	3243.4332	1036.05	154.75
1053.6009	3244.3408	1038.6	156.6
1053.7016	3245.2477	1040.8	159.6
1053.8022	3246.154	1033.9	152.55
1053.9028	3247.0598	1033.3	148.75
1054.0034	3247.9649	1031.45	148.8
1054.1039	3248.8694	1030.3	147.95
1054.2043	3249.7733	1032.7	148.55
1054.3047	3250.6766	1025.55	144.6
1054.4051	3251.5793	1035.1	152.35
1054.5054	3252.4814	1027.1	143.55
1054.6056	3253.3829	1027.45	145.3
1054.7058	3254.2838	1026.9	144.85
1054.806	3255.1841	1023.9	141.4
1054.9061	3256.0838	1023.1	140.05
1055.0061	3256.9829	1020.35	139.4
1055.1062	3257.8814	1022.7	136.9
1055.2061	3258.7792	1022.95	139.5
1055.306	3259.6765	1017.75	132.35
1055.4059	3260.5731	1018.55	137.8
1055.5057	3261.4692	1019.15	134.75
1055.6055	3262.3647	1011.45	128.45
1055.7052	3263.2595	1013.8	130.35
1055.8049	3264.1538	1009.4	128.25
1055.9045	3265.0474	1011.1	128.25
1056.0041	3265.9404	1006.15	124.55
1056.1036	3266.8329	1004.95	123.05
1056.2031	3267.7247	1013.6	123.55
1056.3025	3268.616	1002.3	122.35
1056.4019	3269.5066	993.7	108.9
1056.5013	3270.3966	994.65	111.3
1056.6005	3271.286	985.9	104.6
