Software Version:	3.9.2.0
Unit SN:	10000200
Spectrometer SN:	6960
Date:	3/26/2024 12:58:09 PM
Data Line Index:	25
Spectral Points:	2048
Integration time (ms):	125
Averages:	20
Delay (ms):	30000
Sequence Number:	1
Processing:	dark subtract
Laser Power (mW):	300
Laser Current (mA):	817
Laser Diode Temp (C):	25
Laser Case Temp (C):	25.4
System Temp (C):	25.3
Spectrometer Temp (C):	23.1
CCD Temp (C):	0.022
Secondary Temp (C):	20.006
Heatsink Temp (C):	21.298
CCDPCB Temp (C):	35.918
SecondaryPCB Temp (C):	28.715

Wavelength	RamanShift	Raw Counts	Dark Subtracted
787.061	30.1047	425.3	14.65
787.2016	32.3739	424.55	14.65
787.3422	34.6426	426.55	14.3
787.4828	36.9109	426.9	12.25
787.6235	39.1787	434.4	16.85
787.7642	41.4461	438.4	15.85
787.9049	43.7131	442.45	16.8
788.0456	45.9796	447.2	19.7
788.1863	48.2456	451.25	20.7
788.3271	50.5112	458.55	21.35
788.4679	52.7764	462.1	24
788.6087	55.0411	466.55	26.15
788.7496	57.3054	471.4	24.4
788.8904	59.5692	475.55	26.55
789.0313	61.8326	481.3	29.85
789.1722	64.0955	488.85	32.9
789.3132	66.3579	495	34.25
789.4541	68.6199	501.7	37.95
789.5951	70.8815	514.15	47.8
789.7361	73.1426	536.9	67.55
789.8771	75.4032	584.7	110.25
790.0181	77.6634	697.6	218.6
790.1592	79.9231	955.35	472.05
790.3003	82.1824	1506.1	1019.65
790.4414	84.4412	2434.15	1943.95
790.5825	86.6995	3657.45	3160.85
790.7237	88.9574	4882.65	4377.75
790.8648	91.2148	5767.25	5260.95
791.006	93.4717	6249.5	5738.75
791.1472	95.7282	6404.2	5889.2
791.2885	97.9842	6460.9	5943.55
791.4297	100.2398	6454.05	5933.9
791.571	102.4949	6426.2	5904.45
791.7123	104.7495	6397.3	5872
791.8536	107.0036	6348.9	5821.8
791.9949	109.2573	6298.5	5772.65
792.1363	111.5105	6237.7	5709.2
792.2777	113.7632	6158.1	5629.15
792.4191	116.0154	6119.2	5578.55
792.5605	118.2672	6054.65	5521.55
792.7019	120.5185	5972.6	5434.75
792.8434	122.7693	5905.95	5368
792.9849	125.0197	5814.2	5272.35
793.1264	127.2696	5768.2	5223.1
793.2679	129.519	5749.6	5203.25
793.4094	131.7679	5703.7	5153.6
793.551	134.0163	5695.55	5142.95
793.6926	136.2642	5695.05	5138.6
793.8342	138.5117	5679.8	5113.15
793.9758	140.7587	5651.45	5091.45
794.1175	143.0052	5623.1	5058.8
794.2591	145.2512	5600.5	5034.95
794.4008	147.4967	5533.7	4970.75
794.5425	149.7417	5501.35	4933.4
794.6842	151.9863	5460.75	4888.05
794.826	154.2304	5438.7	4862.5
794.9677	156.4739	5424.05	4845.05
795.1095	158.717	5436.9	4858.25
795.2513	160.9596	5440.55	4855.2
795.3931	163.2017	5441.9	4855.85
795.535	165.4433	5444.45	4856.85
795.6768	167.6844	5474.45	4883.2
795.8187	169.925	5431.25	4834.6
795.9606	172.1651	5399.65	4801.65
796.1025	174.4047	5356.35	4754.4
796.2445	176.6439	5328.2	4725.1
796.3864	178.8825	5303.35	4695
796.5284	181.1206	5276.65	4666.15
796.6704	183.3582	5256.95	4643.1
796.8124	185.5954	5232.7	4617.05
796.9544	187.832	5237.25	4617.95
797.0965	190.0681	5259.55	4641.2
797.2386	192.3037	5261.35	4636.7
797.3806	194.5388	5235.4	4607.5
797.5228	196.7734	5261.95	4630.35
797.6649	199.0075	5262.45	4628.35
797.807	201.2411	5291.85	4654.15
797.9492	203.4742	5300.05	4663.3
798.0914	205.7068	5339	4701.2
798.2336	207.9389	5331.25	4693.35
798.3758	210.1704	5356.5	4716.7
798.518	212.4015	5363.8	4718.2
798.6603	214.632	5373.45	4729.5
798.8025	216.862	5361.4	4726.5
798.9448	219.0915	5380.45	4752.05
799.0871	221.3205	5367.35	4739.65
799.2294	223.549	5369.35	4747.15
799.3718	225.777	5374.05	4753.05
799.5141	228.0044	5358.95	4730.25
799.6565	230.2314	5373.25	4750.65
799.7989	232.4578	5357.85	4730.05
799.9413	234.6837	5350.25	4714.25
800.0837	236.909	5342.95	4705.15
800.2262	239.1339	5313.2	4654.15
800.3687	241.3582	5314.1	4668.5
800.5111	243.582	5325.2	4649.05
800.6536	245.8053	5334.65	4670.4
800.7961	248.0281	5300.35	4641.75
800.9387	250.2503	5322.6	4656.2
801.0812	252.472	5331	4661.1
801.2238	254.6932	5346.5	4673.95
801.3664	256.9139	5335.6	4661.6
801.509	259.134	5343.4	4665.75
801.6516	261.3536	5354.3	4679.35
801.7942	263.5727	5368.55	4690.05
801.9369	265.7912	5407.5	4730.95
802.0795	268.0092	5449.85	4771.5
802.2222	270.2267	5500.5	4822.1
802.3649	272.4436	5521.55	4840.55
802.5076	274.6601	5544.5	4856.2
802.6504	276.8759	5564.8	4879.8
802.7931	279.0913	5586.75	4899.85
802.9359	281.3061	5610.4	4923.95
803.0787	283.5204	5613.05	4922.7
803.2215	285.7341	5646.9	4955.35
803.3643	287.9473	5683.05	4976.7
803.5071	290.16	5683.8	4984
803.6499	292.3721	5638.15	4944.35
803.7928	294.5837	5589.2	4894.4
803.9357	296.7947	5549.2	4854.95
804.0786	299.0052	5534.75	4838.2
804.2215	301.2152	5512.25	4812.25
804.3644	303.4246	5501.55	4806.35
804.5074	305.6334	5491.5	4793.95
804.6503	307.8418	5492.35	4791.9
804.7933	310.0495	5476.95	4774.6
804.9363	312.2568	5431.2	4731.55
805.0793	314.4635	5399.05	4695.8
805.2223	316.6696	5345.45	4640.3
805.3653	318.8752	5303.3	4589.8
805.5084	321.0802	5281.25	4575
805.6514	323.2847	5263.75	4556.8
805.7945	325.4887	5252.8	4545.5
805.9376	327.692	5268.7	4558.45
806.0807	329.8949	5304.2	4592.4
806.2238	332.0972	5330.45	4615.5
806.367	334.2989	5364.5	4648.1
806.5101	336.5001	5385.85	4667
806.6533	338.7007	5368.55	4650.6
806.7965	340.9008	5324.65	4603.95
806.9397	343.1003	5275.1	4553.35
807.0829	345.2992	5224.4	4503.6
807.2261	347.4976	5191.95	4467.55
807.3693	349.6955	5165.05	4439.5
807.5126	351.8927	5138.65	4407.4
807.6559	354.0895	5130.85	4391.6
807.7991	356.2856	5132.3	4402.45
807.9424	358.4812	5100	4371.55
808.0857	360.6763	5100.8	4369.35
808.2291	362.8707	5086.55	4352.45
808.3724	365.0646	5105.65	4371.3
808.5158	367.258	5095.45	4359.3
808.6591	369.4508	5090.35	4348.65
808.8025	371.643	5114.75	4374.2
808.9459	373.8346	5119.7	4376.25
809.0893	376.0257	5181.25	4435.05
809.2327	378.2162	5205.05	4457.35
809.3762	380.4062	5218.25	4466
809.5196	382.5956	5194.95	4444.25
809.6631	384.7844	5168.1	4417.65
809.8066	386.9726	5097.7	4345.25
809.9501	389.1603	5073.65	4322.35
810.0936	391.3474	5080.15	4287.45
810.2371	393.5339	5040.1	4289.55
810.3806	395.7199	5034.25	4291.55
810.5241	397.9052	5045.55	4303.75
810.6677	400.09	5071.2	4331.1
810.8113	402.2743	5094.8	4349.6
810.9548	404.4579	5128.35	4385.35
811.0984	406.641	5176.15	4430.5
811.2421	408.8235	5218.85	4472.8
811.3857	411.0054	5276.3	4530.75
811.5293	413.1868	5366.75	4616.75
811.673	415.3675	5475.65	4724.45
811.8166	417.5477	5510.15	4757.15
811.9603	419.7273	5460.45	4703.4
812.104	421.9064	5318.3	4553.7
812.2477	424.0848	5213.75	4451.65
812.3914	426.2627	5149.6	4384.55
812.5351	428.4399	5073.05	4308.9
812.6788	430.6166	5045.15	4278.25
812.8226	432.7928	4988.5	4219.8
812.9663	434.9683	4926.45	4159.55
813.1101	437.1432	4902.3	4131.25
813.2539	439.3176	4889.9	4118.75
813.3977	441.4914	4867.8	4095.45
813.5415	443.6645	4864.7	4089.45
813.6853	445.8371	4846.5	4072.6
813.8291	448.0091	4849.85	4078.2
813.973	450.1806	4857.65	4083.1
814.1168	452.3514	4810.45	4033.45
814.2607	454.5216	4841.8	4055.95
814.4046	456.6913	4816.2	4035.45
814.5485	458.8603	4826.25	4049.65
814.6924	461.0288	4823.35	4045.55
814.8363	463.1967	4797.1	4020
814.9802	465.3639	4811.1	4029.65
815.1241	467.5306	4804.45	4023.65
815.2681	469.6967	4797.9	4017.7
815.412	471.8622	4790.1	4010.75
815.556	474.0271	4789.35	4008.5
815.7	476.1914	4776.85	3992.25
815.844	478.3551	4773.85	3990.2
815.988	480.5182	4765.9	3984.1
816.132	482.6807	4786.35	4003.15
816.276	484.8426	4804	4020.35
816.4201	487.0039	4835	4050.9
816.5641	489.1647	4886.65	4101.75
816.7082	491.3248	4941.55	4155.05
816.8522	493.4843	4955.8	4168.45
816.9963	495.6432	4949.2	4163.35
817.1404	497.8015	4914.55	4123.15
817.2845	499.9592	4867.45	4077.1
817.4286	502.1163	4813.95	4023.05
817.5727	504.2728	4772.7	3983.05
817.7168	506.4287	4764.2	3975.45
817.861	508.5839	4743.8	3952.9
818.0051	510.7386	4719.4	3929.25
818.1493	512.8927	4746.8	3948.75
818.2935	515.0461	4745.45	3951.9
818.4377	517.199	4767.2	3973.85
818.5818	519.3512	4795.9	4001.6
818.726	521.5029	4851.3	4052.4
818.8703	523.6539	4898.9	4102.4
819.0145	525.8043	4907.65	4109.1
819.1587	527.9541	4875.8	4076.9
819.303	530.1033	4820.1	4021.85
819.4472	532.2519	4768.55	3970.55
819.5915	534.3999	4749.2	3948.3
819.7357	536.5472	4755.85	3954.65
819.88	538.694	4742.9	3943.6
820.0243	540.8401	4742.6	3941.85
820.1686	542.9856	4770.75	3966.1
820.3129	545.1305	4759.95	3955.25
820.4572	547.2748	4792.45	3984.85
820.6016	549.4185	4795.1	3988.75
820.7459	551.5615	4804.1	4000.05
820.8902	553.704	4808.25	4001.3
821.0346	555.8458	4810.8	4005.3
821.1789	557.987	4850.85	4046.1
821.3233	560.1276	4862.1	4054.7
821.4677	562.2675	4919.75	4115.2
821.6121	564.4069	4979.35	4173.95
821.7565	566.5456	5022.65	4216.25
821.9009	568.6837	5024.3	4216.55
822.0453	570.8212	4935.6	4129.2
822.1897	572.958	4871.4	4060.85
822.3342	575.0942	4813.25	4006.45
822.4786	577.2299	4784.6	3974.5
822.6231	579.3648	4751	3943
822.7675	581.4992	4708	3901.6
822.912	583.6329	4693.25	3885.2
823.0565	585.766	4736.55	3926.7
823.201	587.8985	4739	3930.3
823.3454	590.0304	4791.55	3967.85
823.4899	592.1616	4797.45	3984.25
823.6345	594.2922	4818.35	4004.95
823.779	596.4222	4780.35	3966.45
823.9235	598.5515	4743.05	3929.95
824.068	600.6802	4685.1	3871.8
824.2126	602.8083	4632.5	3819.5
824.3571	604.9358	4625.7	3809.8
824.5017	607.0626	4603.95	3786.95
824.6462	609.1888	4610.9	3791.55
824.7908	611.3144	4621.5	3800.4
824.9354	613.4393	4644.7	3826.6
825.08	615.5636	4696.35	3877.5
825.2246	617.6873	4734.7	3915.7
825.3692	619.8103	4776.4	3955.1
825.5138	621.9327	4791.15	3969.35
825.6584	624.0544	4760.15	3943.85
825.803	626.1756	4704.9	3886.25
825.9477	628.2961	4654.85	3832.4
826.0923	630.4159	4619.65	3800.7
826.237	632.5351	4607.45	3785.65
826.3816	634.6537	4622.35	3801.05
826.5263	636.7716	4595.75	3770.8
826.6709	638.8889	4588.45	3765.55
826.8156	641.0056	4612.15	3788.75
826.9603	643.1216	4631.75	3805.35
827.105	645.237	4639.4	3813.25
827.2497	647.3518	4605.2	3780.85
827.3944	649.4659	4587.45	3762.95
827.5391	651.5793	4566.45	3741.5
827.6838	653.6922	4537.1	3712.85
827.8285	655.8043	4516.25	3692.6
827.9733	657.9159	4529	3701.55
828.118	660.0268	4511.85	3683.35
828.2627	662.137	4499	3672.2
828.4075	664.2466	4510.8	3680.2
828.5522	666.3556	4509.4	3682.4
828.697	668.4639	4517.2	3685
828.8418	670.5716	4500	3670.2
828.9865	672.6786	4486.9	3658.9
829.1313	674.785	4470.45	3639.05
829.2761	676.8907	4445.3	3615.8
829.4209	678.9958	4453.35	3624.6
829.5657	681.1002	4447.4	3616.25
829.7105	683.204	4462.1	3625.1
829.8553	685.3072	4460.45	3623.4
830.0001	687.4097	4448.6	3613.95
830.1449	689.5115	4461.8	3624.75
830.2898	691.6127	4470.25	3637.05
830.4346	693.7132	4432.6	3599.6
830.5794	695.8131	4470.3	3629.15
830.7243	697.9123	4450.9	3614.8
830.8691	700.0109	4448.6	3613.05
831.014	702.1089	4442.25	3606.7
831.1588	704.2061	4456.9	3620.6
831.3037	706.3028	4479.85	3642.2
831.4486	708.3987	4505.5	3668.75
831.5935	710.4941	4508.55	3672.4
831.7383	712.5887	4495.75	3658.05
831.8832	714.6827	4514.25	3672.55
832.0281	716.7761	4497.05	3659.75
832.173	718.8688	4502.2	3664.7
832.3179	720.9608	4492.95	3652.15
832.4628	723.0522	4504.35	3662.35
832.6077	725.1429	4498.25	3661.35
832.7527	727.233	4529.7	3690.55
832.8976	729.3224	4580.1	3739.4
833.0425	731.4112	4629.5	3788.9
833.1874	733.4993	4652.8	3810.45
833.3324	735.5867	4627.55	3785.8
833.4773	737.6735	4550.65	3707.45
833.6222	739.7596	4512.85	3672.5
833.7672	741.845	4481.1	3638.75
833.9122	743.9298	4447.95	3603.9
834.0571	746.014	4493.3	3650.9
834.2021	748.0974	4505.65	3659.65
834.347	750.1802	4494.75	3650.8
834.492	752.2624	4486.05	3642.9
834.637	754.3439	4460	3615.05
834.782	756.4247	4451.8	3598.5
834.9269	758.5048	4395.45	3551.5
835.0719	760.5843	4389.5	3544.45
835.2169	762.6631	4400.6	3555.55
835.3619	764.7413	4435.4	3591.9
835.5069	766.8188	4505.7	3657.45
835.6519	768.8956	4572.9	3726.4
835.7969	770.9718	4631.15	3786.25
835.9419	773.0473	4611.1	3765.65
836.0869	775.1221	4559.9	3713.6
836.232	777.1962	4539.8	3692.55
836.377	779.2697	4586.95	3737.9
836.522	781.3426	4698.65	3834.1
836.667	783.4147	4756.4	3908.5
836.8121	785.4862	4756.4	3909.7
836.9571	787.557	4674.7	3827.2
837.1021	789.6271	4579.05	3730.95
837.2472	791.6966	4448.05	3599.75
837.3922	793.7654	4345.2	3493.5
837.5373	795.8335	4283.85	3432.45
837.6823	797.901	4258.75	3412.2
837.8274	799.9678	4225.9	3375.6
837.9724	802.0339	4224.1	3375.5
838.1175	804.0993	4248.3	3390.05
838.2626	806.1641	4223.85	3371.45
838.4076	808.2282	4199.35	3349.2
838.5527	810.2916	4197.7	3343.9
838.6978	812.3544	4169.15	3319.65
838.8428	814.4164	4140	3292.65
838.9879	816.4778	4156.55	3304.2
839.133	818.5385	4141.25	3289.55
839.2781	820.5986	4184.15	3332.7
839.4232	822.658	4234.05	3380.95
839.5682	824.7166	4287.35	3437.35
839.7133	826.7747	4330.5	3480.65
839.8584	828.832	4402.45	3551.1
840.0035	830.8886	4441.3	3589
840.1486	832.9446	4481.2	3627.45
840.2937	834.9999	4466.65	3616.1
840.4388	837.0545	4409.65	3553.55
840.5839	839.1085	4318.3	3464.8
840.729	841.1618	4233.95	3376.1
840.8741	843.2143	4179.4	3324.85
841.0192	845.2662	4148.35	3293.1
841.1643	847.3175	4128.6	3275.55
841.3095	849.368	4114.75	3262.15
841.4546	851.4179	4098.55	3245.2
841.5997	853.467	4088.75	3233.15
841.7448	855.5155	4098.4	3243.9
841.8899	857.5633	4091.55	3238
842.0351	859.6105	4091.7	3236.5
842.1802	861.6569	4074.6	3221.5
842.3253	863.7027	4062.45	3205.15
842.4704	865.7478	4030.05	3174.9
842.6156	867.7922	4023.25	3167.55
842.7607	869.8359	4007.2	3151.95
842.9058	871.8789	4010.15	3154
843.0509	873.9212	4008.45	3120.05
843.1961	875.9629	3986.8	3131.25
843.3412	878.0039	3992.85	3136.75
843.4863	880.0441	3994.65	3139.6
843.6315	882.0837	4026.9	3167.2
843.7766	884.1226	4026.75	3165.4
843.9218	886.1609	4044.35	3188.6
844.0669	888.1984	4080.9	3222.65
844.212	890.2352	4133.9	3276.1
844.3572	892.2714	4150.55	3288.75
844.5023	894.3069	4132.65	3273.8
844.6475	896.3416	4075.4	3216.35
844.7926	898.3757	4028	3168.95
844.9377	900.4091	3999.1	3139.35
845.0829	902.4418	3989.7	3126.85
845.228	904.4739	3988.6	3128.65
845.3732	906.5052	4019.6	3160.5
845.5183	908.5358	4022.9	3164.05
845.6635	910.5658	4009.4	3146.55
845.8086	912.595	3960.7	3101.35
845.9538	914.6236	3921.15	3061.4
846.0989	916.6515	3892.35	3032.1
846.2441	918.6786	3867.15	3004.75
846.3892	920.7051	3855.45	2992.05
846.5344	922.7309	3854.8	2995.35
846.6795	924.756	3841.5	2980
846.8246	926.7804	3841.85	2979.85
846.9698	928.8041	3830.5	2965.95
847.1149	930.8272	3863.95	3002.15
847.2601	932.8495	3858.7	2996.1
847.4052	934.8711	3851.8	2988.35
847.5504	936.892	3856.1	2993.45
847.6955	938.9123	3866.8	3003.45
847.8407	940.9318	3874.2	3012.2
847.9858	942.9506	3880.6	3016.55
848.131	944.9688	3865.25	3001.95
848.2761	946.9862	3850.95	2987
848.4213	949.003	3816	2952.15
848.5664	951.019	3775.5	2912.85
848.7115	953.0344	3749	2884.4
848.8567	955.0491	3721.9	2856.8
849.0018	957.063	3715.25	2851.75
849.147	959.0763	3733.3	2865.15
849.2921	961.0888	3723.5	2857.1
849.4373	963.1007	3720.35	2857.2
849.5824	965.1119	3709.55	2848.15
849.7275	967.1223	3683.95	2819.45
849.8727	969.1321	3679.85	2816.75
850.0178	971.1412	3654.6	2790.4
850.1629	973.1495	3651.15	2786.15
850.3081	975.1572	3685.5	2775.25
850.4532	977.1641	3645.35	2779.8
850.5983	979.1704	3650.85	2783.25
850.7435	981.1759	3626.3	2757.75
850.8886	983.1808	3615.55	2748.35
851.0337	985.1849	3627.35	2750.7
851.1788	987.1884	3595.9	2726.1
851.324	989.1911	3596.25	2727.8
851.4691	991.1932	3591.7	2723.25
851.6142	993.1945	3594.6	2727.6
851.7593	995.1951	3579.35	2710.2
851.9045	997.1951	3578.5	2707.75
852.0496	999.1943	3550.7	2683.85
852.1947	1001.1928	3547.45	2680.25
852.3398	1003.1906	3538.65	2671.3
852.4849	1005.1877	3565.95	2698.1
852.63	1007.1841	3564.4	2698.15
852.7751	1009.1798	3576.05	2708.75
852.9202	1011.1748	3556.9	2690.05
853.0653	1013.1691	3534.9	2664.85
853.2104	1015.1627	3511.9	2643
853.3555	1017.1556	3478.05	2609.25
853.5006	1019.1477	3432.6	2562.65
853.6457	1021.1392	3422.4	2555.9
853.7908	1023.1299	3401.05	2532.15
853.9359	1025.12	3381.85	2511.65
854.081	1027.1093	3361.05	2493.85
854.2261	1029.0979	3378.3	2511.5
854.3712	1031.0859	3400.65	2533.15
854.5163	1033.0731	3418.95	2551.2
854.6613	1035.0596	3414.15	2545.75
854.8064	1037.0454	3396.4	2526.35
854.9515	1039.0304	3368.4	2497.35
855.0965	1041.0148	3339.4	2468.45
855.2416	1042.9985	3325.85	2454.2
855.3867	1044.9814	3304.35	2434.7
855.5317	1046.9636	3282.15	2410.35
855.6768	1048.9452	3274.15	2406.85
855.8219	1050.926	3300	2429.7
855.9669	1052.9061	3310.7	2441.05
856.112	1054.8855	3304.65	2433.2
856.257	1056.8642	3317.3	2445.55
856.4021	1058.8421	3304.1	2428.6
856.5471	1060.8194	3280.7	2409.15
856.6921	1062.7959	3279.8	2409.15
856.8372	1064.7717	3279.25	2407.45
856.9822	1066.7469	3273.2	2401.8
857.1272	1068.7213	3259.8	2385.7
857.2723	1070.695	3267.15	2398.55
857.4173	1072.6679	3262.25	2390.85
857.5623	1074.6402	3303.1	2431.6
857.7073	1076.6117	3315.95	2439.1
857.8523	1078.5826	3309.05	2438.5
857.9973	1080.5527	3257.85	2383.9
858.1423	1082.5221	3214.4	2340.8
858.2873	1084.4908	3197.9	2326.8
858.4323	1086.4587	3164.8	2291
858.5773	1088.426	3151.3	2280.05
858.7223	1090.3925	3136.95	2260.05
858.8673	1092.3584	3132.35	2260.05
859.0123	1094.3235	3122.4	2249.7
859.1573	1096.2879	3129.4	2256.3
859.3022	1098.2515	3156.15	2281.95
859.4472	1100.2145	3192.75	2321.05
859.5922	1102.1767	3191.65	2315.8
859.7371	1104.1382	3214.5	2341.6
859.8821	1106.099	3261.45	2384.7
860.027	1108.0591	3306.95	2434.4
860.172	1110.0185	3321.15	2445.6
860.3169	1111.9771	3366.95	2492.15
860.4619	1113.9351	3395.8	2521.35
860.6068	1115.8923	3454.3	2581.65
860.7517	1117.8488	3500.3	2624.2
860.8967	1119.8045	3462.7	2592.15
861.0416	1121.7596	3384.65	2510.1
861.1865	1123.7139	3270.1	2398
861.3314	1125.6675	3193.2	2318.3
861.4763	1127.6204	3185.75	2313.45
861.6212	1129.5726	3193.45	2316.25
861.7661	1131.524	3207.5	2332.85
861.911	1133.4748	3169.95	2295.2
862.0559	1135.4248	3115.1	2238.7
862.2008	1137.3741	3061.85	2188.6
862.3457	1139.3226	3024.25	2149.55
862.4905	1141.2705	3020.4	2146.7
862.6354	1143.2176	3012.45	2130.15
862.7803	1145.164	3028.15	2150.35
862.9251	1147.1097	3024.05	2148
863.07	1149.0546	3010.05	2132.3
863.2148	1150.9989	2999.3	2122.2
863.3597	1152.9424	2954.85	2078.25
863.5045	1154.8852	2931.5	2058.55
863.6493	1156.8272	2925.6	2050.7
863.7942	1158.7686	2929.95	2048.65
863.939	1160.7092	2924.55	2049.6
864.0838	1162.6491	2918.5	2041.6
864.2286	1164.5883	2903.8	2028.65
864.3734	1166.5267	2934.85	2056.3
864.5182	1168.4644	2934	2058.6
864.663	1170.4014	2961.15	2080.35
864.8078	1172.3377	2982.7	2109.1
864.9526	1174.2732	3030.4	2153.7
865.0974	1176.2081	3101.95	2226.85
865.2421	1178.1421	3200.8	2319.6
865.3869	1180.0755	3319.75	2444.9
865.5317	1182.0082	3395.75	2519.55
865.6764	1183.9401	3401.35	2522.5
865.8212	1185.8713	3327.35	2450.45
865.9659	1187.8017	3211.1	2333.35
866.1106	1189.7315	3099.75	2226.95
866.2554	1191.6605	3019.9	2115.15
866.4001	1193.5888	2941.6	2064.4
866.5448	1195.5163	2911	2034.05
866.6895	1197.4432	2876.65	1997.5
866.8342	1199.3693	2855.9	1978.7
866.9789	1201.2947	2839.8	1956
867.1236	1203.2193	2814.3	1936.25
867.2683	1205.1432	2812.4	1934.25
867.413	1207.0664	2810.5	1933.85
867.5576	1208.9889	2805.7	1925.3
867.7023	1210.9106	2793.3	1917.35
867.847	1212.8316	2797.3	1920.8
867.9916	1214.7519	2804.2	1918
868.1363	1216.6715	2801.2	1923.35
868.2809	1218.5903	2811.9	1934.95
868.4255	1220.5084	2819.5	1942.2
868.5701	1222.4257	2818.75	1942.1
868.7148	1224.3424	2812.7	1935.15
868.8594	1226.2583	2838.05	1955.3
869.004	1228.1735	2860.85	1982.05
869.1486	1230.0879	2875.65	1998.25
869.2932	1232.0016	2905.35	2025.8
869.4377	1233.9146	2936.45	2055.05
869.5823	1235.8269	2942.9	2065.1
869.7269	1237.7384	2950.9	2073.9
869.8715	1239.6492	2938.65	2059.45
870.016	1241.5592	2941.85	2064
870.1606	1243.4686	2968.25	2088.4
870.3051	1245.3772	3022.55	2143.95
870.4496	1247.285	3100.45	2222.45
870.5941	1249.1922	3166	2285.3
870.7387	1251.0986	3221.2	2344.05
870.8832	1253.0042	3277.7	2399.4
871.0277	1254.9092	3361	2482.6
871.1722	1256.8134	3446.8	2569.75
871.3167	1258.7169	3535.15	2655.35
871.4611	1260.6196	3618.75	2740.8
871.6056	1262.5216	3650.5	2768.9
871.7501	1264.4229	3663.5	2786.8
871.8945	1266.3234	3630.6	2748.15
872.039	1268.2232	3585.2	2705.25
872.1834	1270.1223	3507.8	2628.4
872.3278	1272.0207	3463.55	2584.65
872.4723	1273.9183	3445.5	2558.45
872.6167	1275.8151	3440.8	2561.2
872.7611	1277.7113	3452.85	2571.05
872.9055	1279.6067	3506.85	2627.05
873.0499	1281.5014	3631.85	2751.7
873.1943	1283.3953	3794.2	2913.1
873.3386	1285.2885	4004.85	3128.3
873.483	1287.181	4171.55	3290.45
873.6274	1289.0727	4259.1	3381.85
873.7717	1290.9637	4231.9	3349.95
873.9161	1292.854	4102.15	3222.45
874.0604	1294.7435	3952.3	3070.25
874.2047	1296.6323	3817.95	2937.4
874.349	1298.5204	3692.1	2808.7
874.4933	1300.4077	3622.45	2741.15
874.6376	1302.2943	3549.6	2671.55
874.7819	1304.1802	3506.55	2627
874.9262	1306.0653	3471.25	2589.4
875.0705	1307.9497	3438.9	2559.25
875.2147	1309.8333	3410.15	2531.25
875.359	1311.7162	3390.3	2510.7
875.5032	1313.5984	3380.35	2497.2
875.6475	1315.4798	3351.8	2458.25
875.7917	1317.3605	3352.55	2465.6
875.9359	1319.2405	3357.2	2474.4
876.0801	1321.1197	3367.45	2483.45
876.2243	1322.9982	3361.1	2475.05
876.3685	1324.876	3314.35	2433.65
876.5127	1326.753	3220.2	2340.4
876.6569	1328.6293	3148.1	2265.5
876.801	1330.5048	3041.85	2158.6
876.9452	1332.3796	2951.95	2071.15
877.0893	1334.2537	2906.4	2003.5
877.2335	1336.127	2829.85	1948.65
877.3776	1337.9996	2799.65	1918.7
877.5217	1339.8714	2768.6	1888.15
877.6658	1341.7426	2783.05	1853.25
877.8099	1343.6129	2732.35	1851.5
877.954	1345.4826	2713.45	1834.1
878.0981	1347.3515	2701.3	1818.15
878.2422	1349.2196	2677.55	1795.3
878.3862	1351.087	2666.75	1785.95
878.5303	1352.9537	2650.75	1769.2
878.6743	1354.8197	2658.75	1778.55
878.8184	1356.6849	2668.5	1786.95
878.9624	1358.5493	2684.1	1803.2
879.1064	1360.4131	2690.75	1809.75
879.2504	1362.276	2716.85	1837.15
879.3944	1364.1383	2757	1876.7
879.5384	1365.9998	2772.05	1884.4
879.6823	1367.8606	2768.6	1889.7
879.8263	1369.7206	2744.9	1861.75
879.9702	1371.5799	2753.45	1870.95
880.1142	1373.4384	2751.45	1870.3
880.2581	1375.2962	2717.65	1832.9
880.402	1377.1533	2684.2	1802.15
880.5459	1379.0096	2626.7	1743.45
880.6898	1380.8652	2593.4	1711.7
880.8337	1382.7201	2567.6	1685.4
880.9776	1384.5742	2534.95	1654.1
881.1215	1386.4275	2503.5	1619.05
881.2653	1388.2802	2479.7	1600.15
881.4092	1390.132	2455.7	1573.3
881.553	1391.9832	2460.75	1579.25
881.6968	1393.8336	2432.75	1549.25
881.8406	1395.6832	2437.05	1554.5
881.9844	1397.5322	2433.2	1550.8
882.1282	1399.3803	2408.75	1521.55
882.272	1401.2278	2392.7	1509.1
882.4158	1403.0745	2395.4	1514.95
882.5595	1404.9204	2367.7	1486.4
882.7033	1406.7656	2368.4	1486.35
882.847	1408.6101	2352.9	1470
882.9908	1410.4538	2357.4	1475
883.1345	1412.2968	2354.05	1471.8
883.2782	1414.139	2340.05	1458
883.4219	1415.9805	2343.05	1461
883.5656	1417.8213	2373.25	1471.25
883.7092	1419.6613	2375.45	1494.15
883.8529	1421.5006	2382.55	1498.6
883.9965	1423.3391	2422.15	1540.25
884.1402	1425.1769	2469.3	1584.9
884.2838	1427.0139	2526.25	1643
884.4274	1428.8502	2599.45	1716.95
884.571	1430.6858	2675	1791.15
884.7146	1432.5206	2689.75	1808.7
884.8582	1434.3547	2696.65	1814.75
885.0018	1436.188	2666.9	1784.05
885.1453	1438.0206	2660.3	1778.35
885.2889	1439.8524	2639.45	1757.6
885.4324	1441.6835	2641.55	1757.1
885.5759	1443.5139	2635.05	1750.3
885.7194	1445.3435	2632.1	1749.75
885.8629	1447.1724	2631.65	1749.9
886.0064	1449.0005	2630.7	1749.3
886.1499	1450.8279	2628.9	1741.25
886.2933	1452.6545	2625.8	1742.8
886.4368	1454.4804	2615.85	1733.1
886.5802	1456.3056	2605.25	1714.3
886.7237	1458.13	2581.6	1700.25
886.8671	1459.9536	2562.7	1680.25
887.0105	1461.7766	2526.7	1642.8
887.1539	1463.5987	2496.45	1612.7
887.2972	1465.4202	2465.05	1582.2
887.4406	1467.2409	2416.2	1532.85
887.584	1469.0608	2399.9	1517.75
887.7273	1470.88	2361.7	1479.95
887.8706	1472.6984	2330.85	1447.9
888.0139	1474.5161	2303	1418.15
888.1572	1476.3331	2291.25	1408.75
888.3005	1478.1493	2282.75	1400.6
888.4438	1479.9648	2275.4	1392.05
888.5871	1481.7795	2261.45	1378.85
888.7303	1483.5935	2267.95	1387.45
888.8736	1485.4067	2259.3	1376.55
889.0168	1487.2192	2268.75	1385.85
889.16	1489.031	2265.55	1378.8
889.3032	1490.842	2264.8	1382.3
889.4464	1492.6522	2258.5	1375.45
889.5896	1494.4618	2258.6	1374.3
889.7327	1496.2705	2247	1363.85
889.8759	1498.0785	2243.85	1361.75
890.019	1499.8858	2237.35	1351.2
890.1622	1501.6924	2231	1347.75
890.3053	1503.4981	2223.3	1338.15
890.4484	1505.3032	2229.7	1346.6
890.5914	1507.1075	2210.8	1327.7
890.7345	1508.911	2206.85	1322.85
890.8776	1510.7138	2195.15	1312.15
891.0206	1512.5159	2185.3	1302.6
891.1637	1514.3172	2178.6	1295.55
891.3067	1516.1178	2168.05	1285.9
891.4497	1517.9176	2155.95	1268.7
891.5927	1519.7166	2159.25	1276.2
891.7357	1521.515	2156.25	1265.25
891.8786	1523.3126	2145	1260.1
892.0216	1525.1094	2138.7	1253.65
892.1645	1526.9055	2116.1	1233.55
892.3074	1528.7008	2111.45	1228.2
892.4503	1530.4954	2110.85	1218.7
892.5932	1532.2893	2122.95	1241.15
892.7361	1534.0824	2107.65	1220.35
892.879	1535.8747	2108.65	1227.1
893.0218	1537.6663	2089.8	1205.15
893.1647	1539.4572	2086.05	1200.45
893.3075	1541.2473	2092.2	1206.95
893.4503	1543.0367	2083.1	1199.5
893.5931	1544.8253	2086.6	1197.3
893.7359	1546.6132	2085.65	1197.2
893.8787	1548.4003	2091.2	1196.55
894.0214	1550.1867	2098.4	1205.4
894.1642	1551.9723	2109.3	1218.3
894.3069	1553.7572	2099.35	1212.75
894.4496	1555.5414	2112.25	1228.3
894.5923	1557.3247	2139.1	1256.85
894.735	1559.1074	2170.4	1288.3
894.8777	1560.8893	2186.35	1305.05
895.0204	1562.6705	2238.5	1354.3
895.163	1564.4509	2264.1	1379.95
895.3056	1566.2305	2270.5	1387.25
895.4482	1568.0094	2277.5	1391.4
895.5908	1569.7876	2270.95	1387.4
895.7334	1571.565	2260.75	1376.6
895.876	1573.3417	2273.45	1389.85
896.0186	1575.1176	2274.7	1391.4
896.1611	1576.8928	2289.35	1404.15
896.3036	1578.6672	2302.25	1419.9
896.4461	1580.4409	2328.75	1445.3
896.5886	1582.2138	2357.7	1473.2
896.7311	1583.986	2406.8	1522.35
896.8736	1585.7575	2439.9	1556.8
897.0161	1587.5282	2478.35	1595.15
897.1585	1589.2981	2502.2	1618.9
897.3009	1591.0673	2516.15	1631.9
897.4433	1592.8358	2525.9	1642.3
897.5857	1594.6035	2519.5	1632.8
897.7281	1596.3704	2506.35	1622.55
897.8705	1598.1366	2464.95	1580.75
898.0128	1599.9021	2442.65	1560.2
898.1551	1601.6668	2414.35	1528.35
898.2975	1603.4308	2387.6	1504.55
898.4398	1605.194	2378.8	1489.35
898.5821	1606.9564	2393.1	1508.85
898.7243	1608.7182	2438.7	1551.55
898.8666	1610.4791	2514	1630.85
899.0088	1612.2394	2612.9	1731.25
899.1511	1613.9988	2706.3	1820.8
899.2933	1615.7576	2820.75	1937.4
899.4355	1617.5156	2876.8	1987.5
899.5776	1619.2728	2876.05	1993.15
899.7198	1621.0293	2802	1919.35
899.862	1622.785	2687.75	1804.05
900.0041	1624.54	2561.8	1676.7
900.1462	1626.2942	2434.8	1549.85
900.2883	1628.0477	2322.85	1435.75
900.4304	1629.8005	2226.9	1340.3
900.5725	1631.5525	2145.35	1260.45
900.7145	1633.3037	2089.5	1203.05
900.8566	1635.0542	2044.9	1159.75
900.9986	1636.804	2017.2	1132.35
901.1406	1638.553	2024.25	1090.55
901.2826	1640.3013	1956.8	1072.4
901.4245	1642.0488	1940.4	1056.05
901.5665	1643.7955	1923.35	1041.4
901.7085	1645.5416	1905.6	1020.3
901.8504	1647.2868	1898.55	1014.7
901.9923	1649.0313	1885.1	1001.7
902.1342	1650.7751	1880.5	992.7
902.2761	1652.5181	1875.55	991.8
902.4179	1654.2604	1873.5	990.15
902.5598	1656.0019	1862.95	978.9
902.7016	1657.7427	1874.4	991.6
902.8434	1659.4828	1886.2	1001
902.9852	1661.222	1913.8	1027.7
903.127	1662.9606	1943.15	1058.85
903.2687	1664.6984	1983.25	1096.9
903.4105	1666.4354	2004.2	1119.5
903.5522	1668.1717	2003.3	1121.3
903.6939	1669.9072	1964.25	1081.3
903.8356	1671.642	1936.55	1049.15
903.9773	1673.3761	1874.15	992.9
904.119	1675.1094	1826	943.3
904.2606	1676.8419	1812.55	926.7
904.4022	1678.5737	1791.2	906.4
904.5439	1680.3048	1773.75	889.1
904.6855	1682.0351	1763.3	879.05
904.827	1683.7646	1757.5	871.65
904.9686	1685.4934	1747.1	863.75
905.1101	1687.2215	1740.35	857.95
905.2517	1688.9488	1733.2	849.8
905.3932	1690.6754	1730.9	846.35
905.5347	1692.4012	1721.05	837.25
905.6761	1694.1263	1727.25	842.5
905.8176	1695.8506	1717.35	831.6
905.9591	1697.5742	1717.4	833.5
906.1005	1699.297	1709.1	823.3
906.2419	1701.0191	1699	815.85
906.3833	1702.7404	1692.65	808.65
906.5246	1704.461	1689.85	805.15
906.666	1706.1808	1689.9	804.4
906.8073	1707.8999	1682.15	796.25
906.9487	1709.6182	1689.45	807.05
907.09	1711.3358	1675.1	790.55
907.2313	1713.0527	1668.65	786.15
907.3725	1714.7688	1672.25	784.4
907.5138	1716.4841	1669.1	784.95
907.655	1718.1987	1664.55	776.55
907.7962	1719.9126	1651.45	768.7
907.9374	1721.6257	1665.95	780.8
908.0786	1723.338	1653.7	768
908.2198	1725.0496	1649.5	763.7
908.3609	1726.7605	1644.8	758.65
908.502	1728.4706	1653.55	769.2
908.6431	1730.18	1643.5	755.55
908.7842	1731.8886	1641.25	757.1
908.9253	1733.5964	1640.65	751.15
909.0664	1735.3036	1640.6	756.05
909.2074	1737.0099	1633.4	748.6
909.3484	1738.7156	1634.55	750.15
909.4894	1740.4204	1630.25	743.35
909.6304	1742.1246	1627.5	741.05
909.7714	1743.8279	1628.35	743.5
909.9123	1745.5306	1628.05	740.95
910.0532	1747.2325	1615.6	730.7
910.1941	1748.9336	1619.1	733.8
910.335	1750.634	1622	736.25
910.4759	1752.3336	1618.9	733.5
910.6168	1754.0325	1615.6	730.25
910.7576	1755.7307	1610.7	726.25
910.8984	1757.4281	1612.25	728.4
911.0392	1759.1247	1615.6	724.75
911.18	1760.8206	1617.7	728.35
911.3208	1762.5158	1620.55	734.65
911.4615	1764.2102	1596.65	711.9
911.6022	1765.9039	1600.65	719.25
911.7429	1767.5968	1598.55	712.6
911.8836	1769.289	1599.5	714.45
912.0243	1770.9804	1597.4	710.7
912.1649	1772.6711	1599.05	715.15
912.3056	1774.361	1597.95	711.75
912.4462	1776.0502	1594.85	707.9
912.5868	1777.7386	1592.25	705.35
912.7274	1779.4263	1591.05	706.15
912.8679	1781.1132	1584.35	699.2
913.0084	1782.7994	1579.85	695.5
913.149	1784.4849	1586.3	701.75
913.2895	1786.1696	1575.3	686.45
913.4299	1787.8535	1586.4	700.85
913.5704	1789.5367	1573.95	687.75
913.7108	1791.2192	1577.8	694.15
913.8513	1792.9009	1602.1	703.1
913.9917	1794.5818	1575.5	688.7
914.132	1796.2621	1566.55	683
914.2724	1797.9415	1570.4	686.85
914.4128	1799.6202	1562.3	677.4
914.5531	1801.2982	1558.05	674.2
914.6934	1802.9755	1567.35	681.75
914.8337	1804.6519	1565.45	681.25
914.9739	1806.3277	1556.1	670.7
915.1142	1808.0027	1551.8	668.95
915.2544	1809.6769	1550.65	667.15
915.3946	1811.3504	1555.2	667.75
915.5348	1813.0231	1551.9	667.45
915.675	1814.6951	1551.95	667.35
915.8151	1816.3664	1547.55	661.85
915.9553	1818.0369	1550.7	663.7
916.0954	1819.7067	1545.1	661.25
916.2355	1821.3757	1537.55	651.15
916.3755	1823.044	1539.4	653.4
916.5156	1824.7115	1540.85	654.75
916.6556	1826.3783	1540.6	657.6
916.7956	1828.0443	1534.1	651.3
916.9356	1829.7096	1535.75	651.2
917.0756	1831.3741	1534.6	647.35
917.2155	1833.0379	1534.3	649.45
917.3555	1834.701	1531.65	642.85
917.4954	1836.3633	1533.85	647.4
917.6353	1838.0248	1527.55	638.6
917.7751	1839.6856	1519.7	635
917.915	1841.3457	1530.45	646.1
918.0548	1843.005	1534.85	651.95
918.1946	1844.6636	1527	644.15
918.3344	1846.3214	1522.8	638.35
918.4742	1847.9785	1522.45	638.75
918.6139	1849.6349	1523.7	638.75
918.7537	1851.2904	1520.5	626.1
918.8934	1852.9453	1522.35	634.35
919.0331	1854.5994	1515.35	627.9
919.1727	1856.2528	1516.2	625.85
919.3124	1857.9054	1510	624.7
919.452	1859.5572	1501.5	619.75
919.5916	1861.2083	1506.8	621.4
919.7312	1862.8587	1507.3	623.2
919.8708	1864.5084	1508.05	621.5
920.0103	1866.1572	1501.25	616.9
920.1498	1867.8054	1491.75	607.2
920.2893	1869.4528	1491.3	608.05
920.4288	1871.0994	1504.4	618
920.5683	1872.7453	1502.6	615.1
920.7077	1874.3905	1497.9	604.95
920.8471	1876.0349	1488.25	603.8
920.9865	1877.6786	1498.7	613.4
921.1259	1879.3215	1489.1	605
921.2653	1880.9637	1495.05	610.8
921.4046	1882.6051	1491.35	606.55
921.5439	1884.2458	1489.75	601.75
921.6832	1885.8858	1484.45	598.55
921.8225	1887.525	1482.95	599.8
921.9617	1889.1634	1489.1	604.95
922.101	1890.8011	1483.15	595.45
922.2402	1892.4381	1484.4	600.45
922.3794	1894.0743	1473.9	590.15
922.5185	1895.7098	1472.9	588.75
922.6577	1897.3446	1474.85	589.4
922.7968	1898.9786	1479	589.15
922.9359	1900.6118	1473	589.25
923.075	1902.2443	1468.45	585
923.214	1903.8761	1480.05	596.15
923.3531	1905.5071	1470.9	585.2
923.4921	1907.1374	1468.9	583.6
923.6311	1908.7669	1465.25	580.95
923.77	1910.3957	1462.1	578.05
923.909	1912.0237	1458.55	574.85
924.0479	1913.651	1466.65	580.45
924.1868	1915.2776	1456.35	574.9
924.3257	1916.9034	1454.25	569.75
924.4646	1918.5285	1447.55	564.45
924.6034	1920.1528	1456.7	569.55
924.7422	1921.7764	1445.1	559.65
924.881	1923.3992	1444	560.1
925.0198	1925.0213	1447.15	561.05
925.1586	1926.6427	1442.35	560.3
925.2973	1928.2633	1502.05	544.5
925.436	1929.8832	1439.8	552.95
925.5747	1931.5023	1432.4	546.45
925.7134	1933.1207	1427.4	543.95
925.852	1934.7383	1440.5	556.8
925.9906	1936.3552	1429.3	545.6
926.1292	1937.9714	1429.25	543.5
926.2678	1939.5868	1433.7	546.5
926.4064	1941.2015	1427.65	541.95
926.5449	1942.8154	1429.95	545.95
926.6834	1944.4286	1417.45	529.05
926.8219	1946.041	1439.8	532.55
926.9604	1947.6528	1426.1	537.5
927.0988	1949.2637	1417.25	531.95
927.2372	1950.8739	1411.05	525
927.3756	1952.4834	1411.25	525.65
927.514	1954.0921	1414.05	526.7
927.6523	1955.7001	1416.9	528.75
927.7907	1957.3074	1402.9	518.65
927.929	1958.9139	1404.25	518.55
928.0673	1960.5197	1401.95	516.65
928.2055	1962.1247	1404.45	518.55
928.3438	1963.729	1405.1	521.7
928.482	1965.3325	1424.6	514.65
928.6202	1966.9353	1405.4	521.85
928.7584	1968.5374	1403.65	517.95
928.8965	1970.1387	1391.95	506.8
929.0346	1971.7393	1394.35	510.7
929.1727	1973.3392	1394.7	511.15
929.3108	1974.9383	1392.1	507.3
929.4489	1976.5366	1386.35	501.05
929.5869	1978.1342	1384.5	497.9
929.7249	1979.7311	1387.15	501.4
929.8629	1981.3273	1387.25	503.5
930.0009	1982.9227	1378.65	494.4
930.1388	1984.5173	1384.25	500.05
930.2767	1986.1112	1378.6	494.3
930.4146	1987.7044	1380.35	497.8
930.5525	1989.2968	1376.65	492.6
930.6904	1990.8885	1381.55	493.65
930.8282	1992.4795	1383.65	497.7
930.966	1994.0697	1375.4	487.9
931.1038	1995.6592	1370.8	487.1
931.2415	1997.2479	1371.5	487.65
931.3793	1998.8359	1377.05	493.7
931.517	2000.4232	1360.95	477.25
931.6547	2002.0097	1368.4	485.7
931.7923	2003.5955	1370.95	485.3
931.93	2005.1805	1373.05	485.95
932.0676	2006.7648	1358	471.9
932.2052	2008.3484	1363.35	477.05
932.3427	2009.9312	1363.05	476.45
932.4803	2011.5133	1365.6	481.8
932.6178	2013.0946	1362.05	477.95
932.7553	2014.6752	1360.2	477.5
932.8928	2016.2551	1354.45	470.9
933.0302	2017.8342	1353.15	469.2
933.1676	2019.4126	1349.75	466.7
933.305	2020.9902	1351	469
933.4424	2022.5672	1351.25	466.85
933.5798	2024.1433	1358.05	467.35
933.7171	2025.7188	1349.5	466.2
933.8544	2027.2935	1344.4	458.95
933.9917	2028.8674	1345.2	461.1
934.129	2030.4406	1337.4	453.5
934.2662	2032.0131	1349.75	467.85
934.4034	2033.5849	1355.8	463.25
934.5406	2035.1559	1341.25	455.9
934.6778	2036.7261	1334.7	451.35
934.8149	2038.2957	1340.65	455.45
934.952	2039.8645	1338.2	454.65
935.0891	2041.4325	1345	456.65
935.2262	2042.9998	1342.55	460.75
935.3632	2044.5664	1337.8	451.7
935.5002	2046.1323	1336.1	453.5
935.6372	2047.6974	1333.65	451.3
935.7742	2049.2617	1337.15	453.7
935.9111	2050.8254	1348.8	443.8
936.048	2052.3883	1337.85	452.25
936.1849	2053.9504	1330.5	443.8
936.3218	2055.5118	1331.85	447.35
936.4586	2057.0725	1334.75	448.05
936.5955	2058.6325	1328.75	444
936.7323	2060.1917	1333.8	449.9
936.869	2061.7502	1327.95	441.1
937.0058	2063.3079	1331.5	446.4
937.1425	2064.8649	1333.15	445.65
937.2792	2066.4212	1321.95	437.05
937.4159	2067.9767	1324.6	440.1
937.5525	2069.5315	1321.9	436.3
937.6891	2071.0856	1314.8	431.15
937.8257	2072.6389	1326.55	442.45
937.9623	2074.1915	1310.6	427.25
938.0989	2075.7433	1318.6	431.5
938.2354	2077.2945	1312.45	431.05
938.3719	2078.8448	1313.6	429.8
938.5084	2080.3945	1317.2	433.05
938.6448	2081.9434	1317.05	433.75
938.7812	2083.4916	1312.35	427.85
938.9176	2085.039	1305.05	420.85
939.054	2086.5857	1302.1	416.2
939.1903	2088.1317	1313.55	429.55
939.3267	2089.677	1309.1	425.4
939.463	2091.2215	1307	423.3
939.5992	2092.7652	1299.7	413.85
939.7355	2094.3083	1311.7	426.3
939.8717	2095.8506	1309.05	425.5
940.0079	2097.3921	1303.5	418.7
940.1441	2098.933	1303.2	418.3
940.2802	2100.4731	1303.05	418.75
940.4163	2102.0124	1320.8	421.15
940.5524	2103.5511	1301.85	416.35
940.6885	2105.089	1298.45	415.2
940.8245	2106.6261	1303.8	419.25
940.9606	2108.1626	1309.4	425.6
941.0965	2109.6983	1329.5	416.3
941.2325	2111.2332	1301.6	417.1
941.3684	2112.7675	1304.25	420.95
941.5044	2114.301	1291.1	405.35
941.6403	2115.8337	1294.5	409.85
941.7761	2117.3657	1295.45	409.9
941.912	2118.897	1294.2	409.2
942.0478	2120.4276	1302	413.2
942.1835	2121.9575	1289.9	404.6
942.3193	2123.4866	1305.15	407.75
942.455	2125.0149	1292.75	406.15
942.5907	2126.5426	1288.15	404.45
942.7264	2128.0695	1291.6	404.1
942.8621	2129.5956	1284.2	402.2
942.9977	2131.1211	1285.75	394.55
943.1333	2132.6458	1282.4	396.65
943.2689	2134.1698	1278.8	393.4
943.4044	2135.693	1284.1	398.9
943.54	2137.2155	1287.65	400.2
943.6755	2138.7373	1286.8	402.95
943.8109	2140.2584	1278.25	393.85
943.9464	2141.7787	1278.85	389.15
944.0818	2143.2983	1280.7	397.45
944.2172	2144.8171	1277.65	394.15
944.3526	2146.3353	1279.25	393.75
944.4879	2147.8527	1272.25	389.3
944.6232	2149.3693	1273.6	389.6
944.7585	2150.8853	1274.65	390.2
944.8938	2152.4005	1273.75	389
945.029	2153.9149	1274.75	388.6
945.1642	2155.4287	1370.2	383.15
945.2994	2156.9417	1277.8	393.85
945.4346	2158.454	1272.25	385.6
945.5697	2159.9655	1265.4	384.1
945.7048	2161.4764	1272.25	388.9
945.8399	2162.9865	1267.6	382.7
945.9749	2164.4958	1270.3	385
946.1099	2166.0045	1268.1	381.4
946.2449	2167.5124	1269	386.15
946.3799	2169.0195	1260.45	375.45
946.5148	2170.526	1262.4	378.45
946.6498	2172.0317	1265.65	381.3
946.7846	2173.5367	1260.6	375.65
946.9195	2175.0409	1255.75	369.9
947.0543	2176.5445	1264.15	380.2
947.1891	2178.0473	1259.1	376.4
947.3239	2179.5494	1260	371.45
947.4587	2181.0507	1261.75	377.9
947.5934	2182.5513	1251.15	366.5
947.7281	2184.0512	1252.5	367.85
947.8628	2185.5504	1252.4	370
947.9974	2187.0488	1253.95	368.25
948.132	2188.5465	1252.55	369.1
948.2666	2190.0435	1256.45	370.65
948.4012	2191.5397	1246.95	364.3
948.5357	2193.0353	1241	358.1
948.6702	2194.5301	1247.05	361.5
948.8047	2196.0241	1246.65	363.75
948.9392	2197.5175	1242.6	357.2
949.0736	2199.0101	1246.4	358.8
949.208	2200.502	1243.2	360.25
949.3424	2201.9931	1236.9	355.1
949.4767	2203.4835	1242.9	356.2
949.611	2204.9733	1256.7	355.3
949.7453	2206.4622	1239.35	355.3
949.8796	2207.9505	1236.45	350.65
950.0138	2209.438	1235	351.1
950.148	2210.9248	1237.15	351.25
950.2822	2212.4109	1229.95	346
950.4164	2213.8962	1227.15	339.95
950.5505	2215.3809	1232.7	346.85
950.6846	2216.8648	1231.85	348.05
950.8186	2218.3479	1235.85	349
950.9527	2219.8304	1229.05	342.15
951.0867	2221.3121	1227.6	341.95
951.2207	2222.7931	1227.4	343.6
951.3546	2224.2733	1226.3	342.25
951.4886	2225.7529	1222.4	337.25
951.6225	2227.2317	1224.1	337.85
951.7563	2228.7098	1223.15	337.75
951.8902	2230.1872	1214.35	329.25
952.024	2231.6638	1223.65	339.3
952.1578	2233.1397	1221.5	333.65
952.2916	2234.6149	1219.35	334.45
952.4253	2236.0894	1213.65	328.9
952.559	2237.5632	1218.65	332.3
952.6927	2239.0362	1212.8	329.35
952.8263	2240.5085	1215	330.9
952.9599	2241.9801	1217.35	332.15
953.0935	2243.4509	1210	326.45
953.2271	2244.921	1216.95	331.7
953.3606	2246.3904	1213.1	325.8
953.4941	2247.8591	1211.95	327.35
953.6276	2249.3271	1207.45	322.6
953.7611	2250.7943	1205.7	319.8
953.8945	2252.2608	1203.3	319.25
954.0279	2253.7266	1204.75	321.85
954.1612	2255.1917	1200.3	315.45
954.2946	2256.656	1198.05	314.95
954.4279	2258.1197	1197.3	314.1
954.5612	2259.5826	1204	317.35
954.6944	2261.0447	1201.8	316.8
954.8276	2262.5062	1197.85	312.95
954.9608	2263.9669	1200.75	313.9
955.094	2265.4269	1193.4	309.85
955.2271	2266.8862	1194.5	307.8
955.3602	2268.3448	1196.05	311.5
955.4933	2269.8026	1197.9	313.65
955.6264	2271.2598	1193.75	310.05
955.7594	2272.7162	1191.75	308.4
955.8924	2274.1719	1191.7	309.1
956.0253	2275.6268	1187.2	303.65
956.1583	2277.0811	1192.6	307.25
956.2912	2278.5346	1189.05	304.6
956.4241	2279.9874	1189.2	303.45
956.5569	2281.4395	1187.7	302.05
956.6897	2282.8908	1187.25	299.8
956.8225	2284.3414	1187.15	301.2
956.9553	2285.7914	1188.1	305.5
957.088	2287.2406	1187.4	300.45
957.2207	2288.689	1183.8	301.45
957.3534	2290.1368	1183.35	298.3
957.486	2291.5838	1184.05	297.55
957.6186	2293.0302	1185.6	299.65
957.7512	2294.4758	1181.3	297.05
957.8838	2295.9206	1183.5	295.05
958.0163	2297.3648	1182.75	296.75
958.1488	2298.8082	1184.55	299.5
958.2813	2300.251	1177.9	294.15
958.4137	2301.693	1178.6	292.9
958.5461	2303.1343	1181.95	295.75
958.6785	2304.5748	1175.8	290.9
958.8108	2306.0147	1168.55	284.05
958.9432	2307.4538	1177.6	291.3
959.0754	2308.8922	1169.4	285.9
959.2077	2310.3299	1174.4	289.7
959.3399	2311.7669	1170.65	287.35
959.4721	2313.2031	1167.45	283.6
959.6043	2314.6387	1169.9	284.2
959.7365	2316.0735	1169.55	284.15
959.8686	2317.5076	1168.75	283.8
960.0006	2318.941	1165.85	282.65
960.1327	2320.3737	1163.6	280.3
960.2647	2321.8056	1166.3	279.45
960.3967	2323.2369	1165.7	283.25
960.5287	2324.6674	1171.4	284.15
960.6606	2326.0972	1164.75	278.25
960.7925	2327.5263	1168.8	283.9
960.9244	2328.9547	1167.3	279.95
961.0562	2330.3823	1173.8	289.1
961.1881	2331.8092	1168.8	282.45
961.3198	2333.2355	1164.45	280.2
961.4516	2334.661	1157.85	273.75
961.5833	2336.0858	1161.9	274.85
961.715	2337.5098	1158.55	273.6
961.8467	2338.9332	1156.35	272.8
961.9783	2340.3558	1161.05	274.2
962.1099	2341.7778	1156.75	273.6
962.2415	2343.199	1153.9	266.15
962.373	2344.6195	1155.15	269.9
962.5045	2346.0393	1151.25	268.4
962.636	2347.4583	1154.9	269.45
962.7675	2348.8767	1149.95	263.7
962.8989	2350.2943	1152.75	266.3
963.0303	2351.7113	1146.25	261.75
963.1617	2353.1275	1155	269.9
963.293	2354.543	1175.75	266.1
963.4243	2355.9578	1147.7	261.75
963.5556	2357.3718	1149.55	266.75
963.6868	2358.7852	1146.85	257.9
963.818	2360.1978	1147.45	261.85
963.9492	2361.6098	1148.95	265.2
964.0803	2363.021	1146.25	257.9
964.2114	2364.4315	1139.6	255.1
964.3425	2365.8413	1145.3	259.5
964.4736	2367.2504	1145.4	261.2
964.6046	2368.6587	1138.3	253.65
964.7356	2370.0664	1140.55	256.9
964.8666	2371.4733	1138.9	254.95
964.9975	2372.8795	1136.55	252.65
965.1284	2374.285	1136.05	251
965.2593	2375.6899	1137.4	253
965.3901	2377.0939	1136.85	252.15
965.5209	2378.4973	1133.4	247.35
965.6517	2379.9	1133.25	246.1
965.7825	2381.3019	1134.85	249
965.9132	2382.7032	1132.85	247.7
966.0439	2384.1037	1130.55	247.45
966.1745	2385.5035	1135.35	251.05
966.3051	2386.9027	1127.45	242.05
966.4357	2388.3011	1136.85	249.55
966.5663	2389.6987	1129.65	245.25
966.6968	2391.0957	1124.25	240.25
966.8273	2392.492	1123.8	238.5
966.9578	2393.8876	1126.65	240.55
967.0882	2395.2824	1125.55	242.5
967.2186	2396.6765	1125.85	241.95
967.349	2398.07	1122.3	239.05
967.4793	2399.4627	1122.05	234.5
967.6097	2400.8547	1127.85	243.75
967.7399	2402.246	1126.2	236.4
967.8702	2403.6366	1116.25	230.95
968.0004	2405.0265	1120.95	238.25
968.1306	2406.4156	1120.75	230.7
968.2607	2407.8041	1119.45	231.4
968.3909	2409.1918	1122.9	235.05
968.521	2410.5789	1113.6	229
968.651	2411.9652	1119.8	232.6
968.781	2413.3508	1110.9	225.65
968.911	2414.7358	1116.8	230.15
969.041	2416.12	1108	221.75
969.1709	2417.5035	1113.2	228.7
969.3008	2418.8863	1111.2	225.85
969.4307	2420.2684	1107.05	221.2
969.5606	2421.6497	1109.3	223.2
969.6904	2423.0304	1104.7	222.1
969.8201	2424.4104	1106.25	221.15
969.9499	2425.7896	1107.1	220.1
970.0796	2427.1682	1105.6	221.05
970.2093	2428.546	1104.5	216.35
970.3389	2429.9232	1105.3	218.65
970.4685	2431.2996	1100.9	214.6
970.5981	2432.6753	1105.55	220.3
970.7277	2434.0503	1096.05	210.85
970.8572	2435.4246	1107.2	222.45
970.9867	2436.7982	1104	216.95
971.1161	2438.1711	1099.15	215.95
971.2456	2439.5433	1100.25	214.35
971.375	2440.9148	1101.5	211.85
971.5043	2442.2856	1096.4	212.2
971.6336	2443.6557	1098.1	213.1
971.7629	2445.025	1098.6	214.65
971.8922	2446.3937	1099.55	214.05
972.0214	2447.7617	1097.15	211.2
972.1506	2449.1289	1096.3	210.5
972.2798	2450.4955	1101.65	211.85
972.4089	2451.8613	1093.85	209.65
972.538	2453.2265	1096.9	212.3
972.6671	2454.5909	1097.85	209.65
972.7961	2455.9546	1091.45	206.55
972.9251	2457.3177	1090.15	209.1
973.0541	2458.68	1095.05	206.45
973.1831	2460.0416	1086.5	202.05
973.312	2461.4025	1087.1	200
973.4408	2462.7627	1097.6	200.45
973.5697	2464.1222	1084.7	201.05
973.6985	2465.4811	1086.9	201.25
973.8273	2466.8392	1089.8	204.7
973.956	2468.1966	1087.25	199.3
974.0847	2469.5533	1091.9	204.5
974.2134	2470.9093	1089.45	203.25
974.3421	2472.2645	1088.5	202.3
974.4707	2473.6191	1086.95	201.45
974.5993	2474.973	1085.85	200.4
974.7278	2476.3262	1088.45	202.1
974.8563	2477.6787	1078.6	192.45
974.9848	2479.0305	1085.05	200.6
975.1132	2480.3816	1084.05	197.35
975.2417	2481.7319	1083.5	200.1
975.37	2483.0816	1081.85	195.7
975.4984	2484.4306	1080.7	194.55
975.6267	2485.7789	1080.95	196.85
975.755	2487.1264	1079.55	191.9
975.8833	2488.4733	1078.4	194.55
976.0115	2489.8195	1084.5	191.75
976.1397	2491.165	1078.4	190.85
976.2678	2492.5097	1076.85	191.75
976.3959	2493.8538	1076.35	192
976.524	2495.1972	1077.8	192.85
976.6521	2496.5398	1075.05	190.2
976.7801	2497.8818	1074.25	186.8
976.9081	2499.2231	1070.5	186.4
977.036	2500.5637	1073.4	187.7
977.164	2501.9035	1074.45	188.75
977.2918	2503.2427	1075.35	188.3
977.4197	2504.5812	1069.5	184.85
977.5475	2505.919	1075.2	187.25
977.6753	2507.256	1069	184.35
977.8031	2508.5924	1066.4	181.15
977.9308	2509.9281	1076.85	186.95
978.0585	2511.2631	1071.65	184.9
978.1861	2512.5974	1065.5	180.6
978.3137	2513.9309	1069.6	183.15
978.4413	2515.2638	1090.2	181.75
978.5689	2516.596	1069.05	184.85
978.6964	2517.9275	1069.35	185.35
978.8239	2519.2583	1062.05	176.9
978.9513	2520.5884	1065.15	178.9
979.0788	2521.9178	1062.35	175.15
979.2062	2523.2465	1064.5	178.7
979.3335	2524.5745	1061.25	175.85
979.4608	2525.9018	1062.75	176.1
979.5881	2527.2284	1060.2	178
979.7154	2528.5543	1061.85	176.9
979.8426	2529.8796	1059.05	174.35
979.9698	2531.2041	1062.65	177.1
980.0969	2532.5279	1056.5	170.8
980.224	2533.851	1056.45	170.1
980.3511	2535.1735	1058.5	174.95
980.4781	2536.4952	1054.65	170
980.6052	2537.8163	1057.05	170.5
980.7321	2539.1366	1056.6	171.25
980.8591	2540.4562	1057.9	171.5
980.986	2541.7752	1053.55	168.65
981.1129	2543.0935	1057.7	172.8
981.2397	2544.411	1054.1	166.85
981.3665	2545.7279	1054.2	170.7
981.4933	2547.0441	1054.95	168.55
981.62	2548.3596	1052.75	163.65
981.7467	2549.6744	1055.65	169.4
981.8734	2550.9885	1060.55	167.55
982.0001	2552.3019	1051.85	169.15
982.1267	2553.6146	1052.95	166.35
982.2532	2554.9266	1053.25	168.95
982.3798	2556.2379	1052.8	167.25
982.5063	2557.5485	1050.15	167.65
982.6327	2558.8585	1062.35	171.5
982.7592	2560.1677	1057.3	166.9
982.8856	2561.4762	1047.2	160.25
983.0119	2562.7841	1054.5	165.65
983.1383	2564.0913	1047.85	164.4
983.2646	2565.3977	1046.3	161.7
983.3908	2566.7035	1048.15	162.75
983.517	2568.0086	1045.65	158.35
983.6432	2569.313	1050.35	165.35
983.7694	2570.6167	1052.4	165.7
983.8955	2571.9197	1049.1	165.5
984.0216	2573.222	1048.45	161.3
984.1476	2574.5236	1046.4	162.2
984.2737	2575.8246	1047.2	159.25
984.3996	2577.1248	1046.45	157.85
984.5256	2578.4244	1044.55	160.05
984.6515	2579.7232	1043.6	157.65
984.7774	2581.0214	1073.55	158.65
984.9032	2582.3189	1045.65	160
985.029	2583.6157	1056.45	157.1
985.1548	2584.9118	1044.15	159.3
985.2806	2586.2072	1040.65	157.8
985.4063	2587.5019	1040.6	155.45
985.5319	2588.7959	1047.3	164
985.6576	2590.0893	1045.6	158.65
985.7832	2591.3819	1037.7	155.65
985.9087	2592.6739	1042.05	158.55
986.0343	2593.9652	1043.85	157.1
986.1597	2595.2557	1040.9	155.9
986.2852	2596.5456	1040.35	150.3
986.4106	2597.8348	1040.9	159
986.536	2599.1234	1036.45	151.8
986.6614	2600.4112	1039.75	153.85
986.7867	2601.6983	1043.45	153.65
986.912	2602.9848	1038.7	152.1
987.0372	2604.2705	1044.45	152.95
987.1624	2605.5556	1034.7	150.1
987.2876	2606.84	1035.3	152.9
987.4128	2608.1237	1037.85	151.75
987.5379	2609.4067	1035.7	151.05
987.6629	2610.689	1039.25	146.45
987.788	2611.9707	1037.35	149.95
987.913	2613.2516	1040.2	149.85
988.0379	2614.5319	1031.3	145.35
988.1629	2615.8115	1029.95	144.3
988.2878	2617.0903	1032.35	147.1
988.4126	2618.3685	1028.25	143.3
988.5375	2619.6461	1029	144.55
988.6622	2620.9229	1030.5	147.7
988.787	2622.199	1030.15	145.9
988.9117	2623.4745	1031.55	147.4
989.0364	2624.7493	1027.2	142.35
989.161	2626.0234	1028.3	143.95
989.2857	2627.2968	1028.7	144.05
989.4102	2628.5695	1030.75	144.05
989.5348	2629.8415	1025.15	142
989.6593	2631.1128	1025.25	139.25
989.7837	2632.3835	1025.85	141.55
989.9082	2633.6535	1023.8	139.75
990.0326	2634.9228	1025.8	141.45
990.1569	2636.1914	1023.4	138.95
990.2812	2637.4593	1028.35	136.9
990.4055	2638.7265	1025.85	138.6
990.5298	2639.9931	1024.55	138.35
990.654	2641.259	1024.85	138.45
990.7782	2642.5242	1017.85	131.95
990.9023	2643.7887	1025.1	140.05
991.0264	2645.0525	1019.8	134.15
991.1505	2646.3156	1034.35	135.55
991.2745	2647.5781	1016.65	132.4
991.3985	2648.8398	1016	132.5
991.5225	2650.1009	1027.55	136.75
991.6464	2651.3613	1014.8	129.95
991.7703	2652.6211	1015.35	129.75
991.8942	2653.8801	1012.75	128.65
992.018	2655.1385	1018.4	131.6
992.1418	2656.3961	1016.7	132.2
992.2655	2657.6531	1016.15	130.3
992.3892	2658.9094	1017.15	132.55
992.5129	2660.1651	1016.85	132.1
992.6366	2661.42	1014.25	127.9
992.7602	2662.6743	1018.4	134.1
992.8837	2663.9279	1015	129.85
993.0073	2665.1808	1015.45	128.15
993.1307	2666.433	1012.55	126.85
993.2542	2667.6846	1012.8	127.9
993.3776	2668.9354	1013.6	125.45
993.501	2670.1856	1013.85	127.8
993.6244	2671.4351	1012.55	128.15
993.7477	2672.6839	1015.25	127.2
993.8709	2673.9321	1015.9	132.45
993.9942	2675.1795	1013.45	129.95
994.1174	2676.4263	1016.4	132
994.2405	2677.6724	1014.6	130.9
994.3637	2678.9179	1015.35	129.25
994.4868	2680.1626	1012.7	129.65
994.6098	2681.4067	1016.6	132.7
994.7328	2682.6501	1007.35	120.8
994.8558	2683.8928	1011	126.85
994.9788	2685.1348	1006.75	121.55
995.1017	2686.3761	1007.9	122.15
995.2245	2687.6168	1008.4	126.5
995.3474	2688.8568	1006.45	122.3
995.4702	2690.0961	1007.9	126.2
995.5929	2691.3348	1004.45	119.7
995.7156	2692.5727	1004.8	118.05
995.8383	2693.81	1005.9	120.05
995.961	2695.0466	1003.2	119.65
996.0836	2696.2826	1008.75	121.7
996.2062	2697.5178	1005.45	118.95
996.3287	2698.7524	1005.85	119.85
996.4512	2699.9863	1003.2	115.1
996.5737	2701.2195	1005.7	121.05
996.6961	2702.452	1005.3	119.85
996.8185	2703.6839	1004.75	118.8
996.9408	2704.9151	1005.95	124
997.0631	2706.1456	1004	119
997.1854	2707.3755	1004.95	120.85
997.3077	2708.6046	1006	118.9
997.4299	2709.8331	1005.55	119.6
997.552	2711.0609	1005.2	119.75
997.6742	2712.2881	1004.4	120.65
997.7963	2713.5145	1003.5	115.7
997.9183	2714.7403	1003.5	118.9
998.0403	2715.9654	1007.15	121.3
998.1623	2717.1899	1023.15	123.4
998.2842	2718.4136	1008.2	124.15
998.4062	2719.6367	1003.85	119.6
998.528	2720.8591	1014.15	122.15
998.6498	2722.0809	1007.8	121.3
998.7716	2723.3019	1014.3	125.55
998.8934	2724.5223	1006.6	120.25
999.0151	2725.7421	1008.05	121.3
999.1368	2726.9611	1010.25	122.75
999.2584	2728.1795	1008.1	117.8
999.38	2729.3972	1002.1	117.65
999.5016	2730.6142	1013.85	115
999.6231	2731.8306	1003.05	116.85
999.7446	2733.0462	995.95	110
999.8661	2734.2612	1001.65	112.5
999.9875	2735.4756	1000.2	111.3
1000.1089	2736.6892	999.6	115.5
1000.2302	2737.9022	996.5	113.5
1000.3515	2739.1145	994.85	108.3
1000.4728	2740.3262	1001.25	109.45
1000.594	2741.5372	991.35	107.4
1000.7152	2742.7475	990.9	105.25
1000.8363	2743.9571	994.1	108.1
1000.9575	2745.1661	995.4	105.15
1001.0785	2746.3744	991.25	106.15
1001.1996	2747.582	988.35	104.95
1001.3206	2748.7889	992.5	105.35
1001.4415	2749.9952	987.7	104.55
1001.5625	2751.2008	985.15	99.1
1001.6833	2752.4057	985.95	98.55
1001.8042	2753.61	988.05	102.55
1001.925	2754.8136	985	99.3
1002.0458	2756.0165	985.4	99.75
1002.1665	2757.2188	983.45	97.55
1002.2872	2758.4204	981.45	94.55
1002.4078	2759.6213	985.85	98
1002.5285	2760.8215	987.95	98.05
1002.649	2762.0211	985.95	99.2
1002.7696	2763.22	984.3	94.85
1002.8901	2764.4182	984.45	98.1
1003.0106	2765.6158	981.25	97.4
1003.131	2766.8127	979.8	93.65
1003.2514	2768.009	979.3	95.4
1003.3717	2769.2045	982.5	95.05
1003.492	2770.3994	981	93.9
1003.6123	2771.5936	977.8	92.65
1003.7325	2772.7872	977.1	93.75
1003.8527	2773.9801	980.3	96.25
1003.9729	2775.1723	995.9	94.85
1004.093	2776.3639	978.7	93.3
1004.2131	2777.5548	978.85	91.1
1004.3331	2778.745	980.6	94.7
1004.4531	2779.9346	978.45	92.65
1004.5731	2781.1235	977.75	92.55
1004.693	2782.3117	974.9	89.05
1004.8129	2783.4992	971.5	86.4
1004.9328	2784.6861	975.1	90.25
1005.0526	2785.8723	973.75	88.3
1005.1723	2787.0579	978.9	93.95
1005.2921	2788.2428	976.6	91.25
1005.4118	2789.427	974.15	89.9
1005.5314	2790.6106	974.55	89.55
1005.651	2791.7935	976	91.9
1005.7706	2792.9757	972.05	87.95
1005.8902	2794.1573	978.9	94
1006.0097	2795.3382	977.3	92.75
1006.1291	2796.5184	974.95	91.55
1006.2485	2797.698	978.3	90.7
1006.3679	2798.8769	974.3	90.2
1006.4873	2800.0551	977.8	90.95
1006.6066	2801.2327	976.8	88.7
1006.7258	2802.4096	977.2	94.15
1006.8451	2803.5859	974.05	87.3
1006.9642	2804.7615	976.5	89.7
1007.0834	2805.9364	979.05	94.3
1007.2025	2807.1106	975.2	91.55
1007.3216	2808.2842	980.05	94.2
1007.4406	2809.4572	976.15	90.65
1007.5596	2810.6294	977.4	92.85
1007.6785	2811.801	975.05	91
1007.7975	2812.972	980.7	95.6
1007.9163	2814.1423	978.75	94.8
1008.0352	2815.3119	983.65	98.25
1008.154	2816.4808	983.8	100.3
1008.2727	2817.6491	993.2	107.6
1008.3914	2818.8167	992.4	109.7
1008.5101	2819.9837	1002.2	112.35
1008.6288	2821.15	1000.4	115.3
1008.7474	2822.3157	1003.6	121.35
1008.8659	2823.4807	1008.95	125.35
1008.9844	2824.645	1023.4	138.05
1009.1029	2825.8086	1025.8	142.05
1009.2214	2826.9716	1039.05	154.65
1009.3398	2828.134	1045.45	161.45
1009.4581	2829.2957	1049.6	162.85
1009.5764	2830.4567	1056	171.5
1009.6947	2831.617	1059.4	172.65
1009.813	2832.7767	1060.55	175
1009.9312	2833.9358	1059.8	175.9
1010.0493	2835.0941	1060.15	176.8
1010.1675	2836.2519	1060.05	174.8
1010.2855	2837.4089	1055.2	171.55
1010.4036	2838.5653	1048.35	164.05
1010.5216	2839.7211	1044.65	161.25
1010.6396	2840.8761	1042.25	154.45
1010.7575	2842.0306	1043.4	159.95
1010.8754	2843.1843	1043.7	160.15
1010.9932	2844.3374	1044.9	160
1011.111	2845.4899	1048.5	163.1
1011.2288	2846.6417	1043.9	160.15
1011.3465	2847.7928	1050	165.9
1011.4642	2848.9433	1048.75	166.3
1011.5818	2850.0931	1049.5	166.3
1011.6995	2851.2422	1051.65	165.15
1011.817	2852.3907	1051.2	166.6
1011.9345	2853.5385	1052.55	166.65
1012.052	2854.6857	1058.85	166.3
1012.1695	2855.8323	1056.15	172.8
1012.2869	2856.9781	1057.5	173.25
1012.4042	2858.1233	1059	175.05
1012.5216	2859.2679	1055.9	170.75
1012.6389	2860.4118	1062.45	179.35
1012.7561	2861.555	1071.3	181.9
1012.8733	2862.6976	1070.4	183.8
1012.9905	2863.8395	1074.6	191.85
1013.1076	2864.9808	1076.25	192.3
1013.2247	2866.1214	1073.15	188.3
1013.3417	2867.2614	1081	195.45
1013.4587	2868.4007	1085.1	198.4
1013.5757	2869.5393	1084.6	197.65
1013.6926	2870.6773	1085.95	198.1
1013.8095	2871.8146	1089.8	202.2
1013.9263	2872.9513	1091.05	204.1
1014.0431	2874.0874	1089.3	204.6
1014.1599	2875.2227	1090.35	205.4
1014.2766	2876.3574	1095.8	210
1014.3933	2877.4915	1095.1	210.4
1014.51	2878.6249	1094.95	208.85
1014.6266	2879.7577	1097.2	213.3
1014.7431	2880.8898	1116.2	221.75
1014.8596	2882.0212	1100.4	217.5
1014.9761	2883.152	1105.1	221.8
1015.0925	2884.2821	1107.45	223.8
1015.2089	2885.4116	1113.35	230.1
1015.3253	2886.5405	1113.1	229.35
1015.4416	2887.6686	1116.95	227.1
1015.5579	2888.7962	1113.45	231.7
1015.6741	2889.923	1106.45	219.9
1015.7903	2891.0493	1115.1	228.9
1015.9065	2892.1748	1112.35	227.75
1016.0226	2893.2997	1114.35	229.6
1016.1387	2894.424	1108.9	225.4
1016.2547	2895.5476	1112.45	228.65
1016.3707	2896.6706	1111.85	226.75
1016.4866	2897.7929	1114.9	229.15
1016.6025	2898.9145	1116.7	232
1016.7184	2900.0355	1114.5	228.75
1016.8342	2901.1559	1109.7	224.25
1016.95	2902.2756	1113.85	227.95
1017.0658	2903.3946	1105.85	223.2
1017.1815	2904.513	1108.1	219.3
1017.2971	2905.6308	1105.5	219.65
1017.4127	2906.7479	1104.85	219.8
1017.5283	2907.8643	1103.05	217.15
1017.6439	2908.9801	1101.05	217.9
1017.7594	2910.0953	1104.95	220.7
1017.8748	2911.2098	1105.4	219.35
1017.9902	2912.3236	1108.1	215.6
1018.1056	2913.4368	1109.85	222.5
1018.2209	2914.5494	1102.3	217.6
1018.3362	2915.6613	1102.65	211.5
1018.4515	2916.7725	1101	212
1018.5667	2917.8831	1098.05	214.1
1018.6819	2918.9931	1088.6	201.3
1018.797	2920.1024	1089.15	203.5
1018.9121	2921.211	1080.05	197.35
1019.0271	2922.319	1082.6	197.25
1019.1421	2923.4264	1082.15	196.45
1019.2571	2924.5331	1080.75	198.2
1019.372	2925.6391	1078.55	193.75
1019.4869	2926.7445	1075.35	192.95
1019.6017	2927.8493	1080.55	195
1019.7165	2928.9534	1080.85	196.35
1019.8313	2930.0569	1082.45	194.2
1019.946	2931.1597	1084.85	201.25
1020.0606	2932.2619	1087.25	202.1
1020.1753	2933.3634	1080.2	197.8
1020.2899	2934.4643	1089.5	197.85
1020.4044	2935.5645	1095.2	205.3
1020.5189	2936.6641	1096.55	206.45
1020.6334	2937.763	1088.75	205.1
1020.7478	2938.8613	1091	205.8
1020.8622	2939.959	1094.05	203.6
1020.9765	2941.056	1081.85	198.1
1021.0908	2942.1523	1080.05	194.4
1021.2051	2943.248	1072.95	189.4
1021.3193	2944.3431	1061.4	178.65
1021.4334	2945.4375	1059.4	174.55
1021.5476	2946.5313	1045.35	160.9
1021.6617	2947.6244	1039.7	154.9
1021.7757	2948.7169	1033.8	147.35
1021.8897	2949.8087	1031.75	147.7
1022.0037	2950.8999	1022.95	137.1
1022.1176	2951.9904	1016.4	133.45
1022.2315	2953.0803	1011.25	128.25
1022.3453	2954.1696	1008.9	125.55
1022.4591	2955.2582	1003.4	119.05
1022.5728	2956.3462	1002.5	116.45
1022.6865	2957.4335	1000.45	115.45
1022.8002	2958.5202	998.25	113.2
1022.9138	2959.6062	1001	116.3
1023.0274	2960.6916	1000.3	117.1
1023.141	2961.7764	996.9	112.6
1023.2545	2962.8605	997.95	114.4
1023.3679	2963.9439	996.45	112.15
1023.4813	2965.0267	995.05	110.25
1023.5947	2966.1089	1020.35	112.8
1023.708	2967.1905	991.9	106.75
1023.8213	2968.2714	991.3	108.7
1023.9346	2969.3516	995.75	112.75
1024.0478	2970.4312	998	105.6
1024.1609	2971.5102	993.7	109.4
1024.274	2972.5885	988.4	103.4
1024.3871	2973.6662	999.6	110.8
1024.5002	2974.7432	991.15	107.8
1024.6132	2975.8196	991.95	108.6
1024.7261	2976.8954	992.25	106.35
1024.839	2977.9705	989.9	108.1
1024.9519	2979.045	989.2	106.65
1025.0647	2980.1188	993.85	108.75
1025.1775	2981.192	992	110.4
1025.2902	2982.2645	988.5	102.15
1025.4029	2983.3364	985.3	100.9
1025.5156	2984.4077	982.2	97.45
1025.6282	2985.4783	989	99.05
1025.7407	2986.5483	980.5	97.75
1025.8532	2987.6177	976.2	92.7
1025.9657	2988.6864	976.7	92.1
1026.0782	2989.7545	974.25	88.6
1026.1906	2990.8219	971.05	88.15
1026.3029	2991.8887	969.45	83.9
1026.4152	2992.9548	971.75	87.85
1026.5275	2994.0204	960.95	77
1026.6397	2995.0852	959.05	76.5
1026.7519	2996.1495	960.95	76
1026.864	2997.2131	957.05	71.75
1026.9761	2998.276	953.85	69.2
1027.0882	2999.3383	949.6	64.9
1027.2002	3000.4	947.1	62.95
1027.3122	3001.4611	946.35	62.4
1027.4241	3002.5215	944.25	58.95
1027.536	3003.5812	942.95	57.15
1027.6478	3004.6404	942.6	58.5
1027.7596	3005.6989	940.3	53.65
1027.8714	3006.7567	940.7	55.4
1027.9831	3007.8139	959.15	54.55
1028.0947	3008.8705	938	52.2
1028.2064	3009.9264	942	54.1
1028.3179	3010.9818	938.2	53
1028.4295	3012.0364	937.9	51.8
1028.541	3013.0905	933.35	49.5
1028.6524	3014.1439	936.6	53.4
1028.7638	3015.1966	935.2	51.95
1028.8752	3016.2487	934.15	51.85
1028.9865	3017.3002	937.4	48.4
1029.0978	3018.3511	933.45	50.6
1029.209	3019.4013	934.05	49.75
1029.3202	3020.4509	933.4	49.6
1029.4314	3021.4998	932.2	45.8
1029.5425	3022.5481	930.1	45.4
1029.6535	3023.5958	932.85	49.25
1029.7645	3024.6428	930.65	45.6
1029.8755	3025.6892	930.95	49.35
1029.9864	3026.735	930.45	46.6
1030.0973	3027.7802	930.7	45.75
1030.2082	3028.8247	931	45.7
1030.319	3029.8685	930.4	47.65
1030.4297	3030.9118	930.6	46.2
1030.5404	3031.9544	928.75	44.3
1030.6511	3032.9963	930.05	45.4
1030.7617	3034.0376	929	43.65
1030.8723	3035.0783	930.85	43.55
1030.9829	3036.1184	931.6	46.1
1031.0934	3037.1578	928.95	45.4
1031.2038	3038.1966	929.7	44.7
1031.3142	3039.2348	930.05	47.15
1031.4246	3040.2723	936.15	44.25
1031.5349	3041.3092	928.15	45.2
1031.6452	3042.3455	928.2	43.55
1031.7554	3043.3811	931.7	47.4
1031.8656	3044.4161	932.45	47.8
1031.9758	3045.4505	929.95	46.55
1032.0859	3046.4842	931.1	45.35
1032.1959	3047.5173	927.3	44.45
1032.3059	3048.5498	929.35	44.1
1032.4159	3049.5816	929.3	46
1032.5258	3050.6128	930.25	43.2
1032.6357	3051.6434	929.75	43.45
1032.7455	3052.6734	931.35	47.45
1032.8553	3053.7027	930.8	43.25
1032.9651	3054.7314	929.3	45.8
1033.0748	3055.7594	929.75	47.15
1033.1845	3056.7868	930.5	45.65
1033.2941	3057.8136	928.9	45.7
1033.4037	3058.8398	929	45.35
1033.5132	3059.8653	929.1	45.1
1033.6227	3060.8902	930.15	45.15
1033.7321	3061.9145	932.4	47.5
1033.8415	3062.9381	930.8	47.45
1033.9509	3063.9612	947.4	49.65
1034.0602	3064.9835	931.35	46.35
1034.1694	3066.0053	931.1	44.9
1034.2787	3067.0264	928.55	44.6
1034.3878	3068.0469	933.4	49.1
1034.497	3069.0668	933.95	46.25
1034.6061	3070.086	929.55	46.6
1034.7151	3071.1046	933.4	46.2
1034.8241	3072.1226	930.9	45.55
1034.9331	3073.1399	929.1	44.4
1035.042	3074.1567	928.95	44.1
1035.1508	3075.1727	930.8	43.15
1035.2597	3076.1882	927.4	41.9
1035.3684	3077.203	926.2	40.7
1035.4772	3078.2173	926.9	41.45
1035.5859	3079.2308	927.45	39.65
1035.6945	3080.2438	929.55	41.85
1035.8031	3081.2561	923.4	39.1
1035.9117	3082.2678	922.3	36.65
1036.0202	3083.2789	919.55	36.55
1036.1286	3084.2893	923.6	39.55
1036.2371	3085.2991	923.4	37.75
1036.3454	3086.3083	926.1	37.45
1036.4538	3087.3169	921.8	35.15
1036.562	3088.3248	923.45	38.45
1036.6703	3089.3321	925.55	40.4
1036.7785	3090.3388	918.9	35.95
1036.8866	3091.3449	920.55	36.3
1036.9948	3092.3503	922.05	33.6
1037.1028	3093.3551	918.15	38.2
1037.2108	3094.3593	918.95	36
1037.3188	3095.3629	916.15	33.05
1037.4267	3096.3658	918.05	32.4
1037.5346	3097.3681	915.9	31.45
1037.6425	3098.3698	918.4	30.1
1037.7503	3099.3708	923.95	34.9
1037.858	3100.3713	917.85	35.45
1037.9657	3101.3711	919.9	34.4
1038.0734	3102.3702	1058	34.65
1038.181	3103.3688	918.85	31.8
1038.2886	3104.3667	914.25	32.15
1038.3961	3105.364	914.5	30.9
1038.5036	3106.3607	917.85	32.1
1038.611	3107.3568	915.6	28.5
1038.7184	3108.3522	916.3	34.5
1038.8257	3109.347	914.3	29.1
1038.933	3110.3412	918.7	30.7
1039.0403	3111.3348	913.25	26.95
1039.1475	3112.3277	912.7	29.85
1039.2547	3113.32	913.3	30.25
1039.3618	3114.3117	913.9	28.5
1039.4689	3115.3028	912.75	28.4
1039.5759	3116.2932	913.1	25.65
1039.6829	3117.2831	917.15	26.7
1039.7898	3118.2723	912.45	27.4
1039.8967	3119.2608	912.7	28.5
1040.0035	3120.2488	914.3	31.35
1040.1103	3121.2361	912.65	28.25
1040.2171	3122.2229	911.1	25.6
1040.3238	3123.209	912.4	28.35
1040.4305	3124.1944	909.85	26.2
1040.5371	3125.1793	911.45	24.15
1040.6437	3126.1635	911.1	27.5
1040.7502	3127.1471	907.6	25.9
1040.8567	3128.1301	910	24.7
1040.9631	3129.1125	909.8	27.4
1041.0695	3130.0942	910.75	25.75
1041.1759	3131.0753	919.55	25.8
1041.2822	3132.0558	911.75	23.15
1041.3884	3133.0357	909.95	24.1
1041.4946	3134.015	909.4	23.5
1041.6008	3134.9936	909.45	22.9
1041.7069	3135.9716	931.25	26.9
1041.813	3136.949	907.45	22.6
1041.919	3137.9258	925.95	24.55
1042.025	3138.902	913.3	24.65
1042.1309	3139.8775	907.15	23.75
1042.2368	3140.8524	908.6	25.15
1042.3427	3141.8267	907.9	21.5
1042.4485	3142.8004	907.45	22.9
1042.5542	3143.7735	912.75	23.85
1042.6599	3144.7459	910.8	24.2
1042.7656	3145.7178	906.55	21.25
1042.8712	3146.689	907.3	23.2
1042.9768	3147.6596	908.1	21
1043.0823	3148.6295	909.25	24.85
1043.1878	3149.5989	908.1	22.35
1043.2932	3150.5676	904.25	21.35
1043.3986	3151.5357	905.6	23.35
1043.5039	3152.5032	905.3	21.1
1043.6092	3153.4701	905.75	21.05
1043.7145	3154.4364	909.1	21.75
1043.8197	3155.402	907.25	24.7
1043.9248	3156.367	907.35	21.45
1044.03	3157.3315	942.8	23.1
1044.135	3158.2952	907.4	20.65
1044.24	3159.2584	905.55	22.05
1044.345	3160.221	906	21
1044.4499	3161.1829	906.2	22.25
1044.5548	3162.1442	903.7	19.45
1044.6596	3163.105	903.8	19.4
1044.7644	3164.065	904.15	18.3
1044.8692	3165.0245	908.05	21
1044.9739	3165.9834	902.65	19.7
1045.0785	3166.9416	902.15	17.65
1045.1831	3167.8993	903.15	18.2
1045.2877	3168.8563	904.2	18.9
1045.3922	3169.8127	904.8	20.3
1045.4966	3170.7684	904.95	21.35
1045.6011	3171.7236	904.6	18.9
1045.7054	3172.6782	905.5	21.5
1045.8098	3173.6321	905.15	19.7
1045.914	3174.5854	905.8	16.6
1046.0183	3175.5381	900.8	17.45
1046.1224	3176.4902	900.6	17.45
1046.2266	3177.4417	902.45	17.15
1046.3307	3178.3926	904.25	19.8
1046.4347	3179.3428	903.3	20.95
1046.5387	3180.2924	902.15	19.85
1046.6427	3181.2415	903.95	19.15
1046.7466	3182.1899	905.35	18.85
1046.8504	3183.1377	903.75	21.95
1046.9542	3184.0848	905.3	17.65
1047.058	3185.0314	905.15	20.15
1047.1617	3185.9773	902.7	19.1
1047.2654	3186.9227	902.9	18.55
1047.369	3187.8674	903	19.35
1047.4726	3188.8115	905.55	15.25
1047.5761	3189.755	902.2	18.1
1047.6796	3190.6979	904.25	19.6
1047.783	3191.6402	901.1	17.55
1047.8864	3192.5818	901.2	17.6
1047.9898	3193.5229	908.8	18.3
1048.0931	3194.4633	900.55	15.2
1048.1963	3195.4031	900.6	16.05
1048.2995	3196.3423	901	17.45
1048.4027	3197.2809	900	16.25
1048.5058	3198.2189	901.7	16.65
1048.6089	3199.1563	918.75	16.1
1048.7119	3200.0931	900.4	17.8
1048.8148	3201.0292	898.55	14.85
1048.9178	3201.9648	901.85	19.75
1049.0206	3202.8997	904.05	16.1
1049.1235	3203.834	901.45	16.7
1049.2262	3204.7677	897.35	15.1
1049.329	3205.7008	901.35	14.75
1049.4317	3206.6333	900.15	17.5
1049.5343	3207.5652	902.5	15.7
1049.6369	3208.4964	901.6	17.55
1049.7394	3209.4271	900.3	16.85
1049.8419	3210.3571	899.95	16.5
1049.9444	3211.2865	902.7	18.9
1050.0468	3212.2154	900.35	16.1
1050.1491	3213.1436	902.15	14.65
1050.2514	3214.0712	905	12.05
1050.3537	3214.9982	902.1	17.6
1050.4559	3215.9246	900.95	15.9
1050.5581	3216.8503	899	15.9
1050.6602	3217.7755	899.05	15.85
1050.7623	3218.7001	901.5	15.6
1050.8643	3219.624	901.2	16
1050.9663	3220.5473	899.1	15.6
1051.0682	3221.4701	896.65	11.15
1051.1701	3222.3922	901.35	13.5
1051.2719	3223.3137	896.95	12.85
1051.3737	3224.2346	899.35	14.95
1051.4754	3225.1549	898.5	14.9
1051.5771	3226.0746	898.45	14.35
1051.6788	3226.9937	898.25	15.45
1051.7804	3227.9121	896.95	13.75
1051.8819	3228.83	899.65	15.65
1051.9834	3229.7473	899.55	13.15
1052.0849	3230.6639	898.45	14.45
1052.1863	3231.5799	897.45	14.6
1052.2876	3232.4954	898.55	14.85
1052.3889	3233.4102	898.15	11.35
1052.4902	3234.3244	898.3	12.9
1052.5914	3235.238	897.45	13.6
1052.6926	3236.151	911.65	11.25
1052.7937	3237.0634	896.5	12.5
1052.8948	3237.9752	898.15	13.25
1052.9958	3238.8864	896.3	12.85
1053.0968	3239.797	896.2	12.35
1053.1977	3240.7069	897.45	14.35
1053.2986	3241.6163	899.25	13.75
1053.3994	3242.5251	897.4	12.85
1053.5002	3243.4332	895.85	12.25
1053.6009	3244.3408	898.75	12.2
1053.7016	3245.2477	895.65	11.1
1053.8022	3246.154	897.5	14.25
1053.9028	3247.0598	898.6	14.6
1054.0034	3247.9649	897.65	12.2
1054.1039	3248.8694	896.15	11.8
1054.2043	3249.7733	896.3	12.3
1054.3047	3250.6766	897	11.2
1054.4051	3251.5793	897.55	12.8
1054.5054	3252.4814	895.8	11.35
1054.6056	3253.3829	896	12.15
1054.7058	3254.2838	895.4	11
1054.806	3255.1841	895.45	12.6
1054.9061	3256.0838	895.4	12.25
1055.0061	3256.9829	892.8	10.9
1055.1062	3257.8814	899.8	13.05
1055.2061	3258.7792	898.2	12.45
1055.306	3259.6765	898.85	12.65
1055.4059	3260.5731	895.1	11.25
1055.5057	3261.4692	896.5	12.55
1055.6055	3262.3647	896.05	11.15
1055.7052	3263.2595	892.4	6.9
1055.8049	3264.1538	891.35	8.6
1055.9045	3265.0474	895.85	10.05
1056.0041	3265.9404	891.75	8.95
1056.1036	3266.8329	894.75	12
1056.2031	3267.7247	903.65	9.4
1056.3025	3268.616	894.7	12.25
1056.4019	3269.5066	894.9	10.35
1056.5013	3270.3966	897.05	10.4
1056.6005	3271.286	892.15	8.95
