Software Version:	3.9.2.0
Unit SN:	10000200
Spectrometer SN:	6960
Date:	3/26/2024 2:38:51 PM
Data Line Index:	25
Spectral Points:	2048
Integration time (ms):	125
Averages:	20
Delay (ms):	30000
Sequence Number:	1
Processing:	dark subtract
Laser Power (mW):	300
Laser Current (mA):	818
Laser Diode Temp (C):	25
Laser Case Temp (C):	27.9
System Temp (C):	27.9
Spectrometer Temp (C):	25.9
CCD Temp (C):	0.004
Secondary Temp (C):	20.006
Heatsink Temp (C):	23.7
CCDPCB Temp (C):	36.985
SecondaryPCB Temp (C):	34.773

Wavelength	RamanShift	Raw Counts	Dark Subtracted
787.061	30.1047	645.15	234.6
787.2016	32.3739	653.85	245.8
787.3422	34.6426	674.25	265.15
787.4828	36.9109	689.65	278.2
787.6235	39.1787	710.5	294.85
787.7642	41.4461	733.6	313.35
787.9049	43.7131	755.05	331.65
788.0456	45.9796	781.9	354.95
788.1863	48.2456	805.75	373.35
788.3271	50.5112	838.1	401.75
788.4679	52.7764	868.25	431.55
788.6087	55.0411	890.8	449.55
788.7496	57.3054	928	481.25
788.8904	59.5692	954.2	504.15
789.0313	61.8326	1003.4	550.5
789.1722	64.0955	1039.75	582.8
789.3132	66.3579	1085.95	622.55
789.4541	68.6199	1143.6	679.6
789.5951	70.8815	1237.2	768.85
789.7361	73.1426	1443.65	971.4
789.8771	75.4032	1957.7	1480.85
790.0181	77.6634	3237.35	2750.8
790.1592	79.9231	6434.3	5940.05
790.3003	82.1824	13821.25	13307.35
790.4414	84.4412	31032.65	30490.75
790.5825	86.6995	58859.15	58268.65
790.7237	88.9574	65535	64899.55
790.8648	91.2148	65535	64870.5
791.006	93.4717	65535	64852.95
791.1472	95.7282	65535	64844.45
791.2885	97.9842	65535	64834.6
791.4297	100.2398	65535	64828.55
791.571	102.4949	65535	64829.8
791.7123	104.7495	65535	64828.15
791.8536	107.0036	65535	64829.45
791.9949	109.2573	65535	64828.25
792.1363	111.5105	65535	64825.4
792.2777	113.7632	65535	64826.1
792.4191	116.0154	65535	64814.55
792.5605	118.2672	65535	64816.6
792.7019	120.5185	65535	64818.5
792.8434	122.7693	65535	64817.2
792.9849	125.0197	65535	64815.6
793.1264	127.2696	65535	64808.45
793.2679	129.519	65535	64804.1
793.4094	131.7679	65535	64800.8
793.551	134.0163	65535	64794.5
793.6926	136.2642	65535	64795.35
793.8342	138.5117	65535	64791.35
793.9758	140.7587	65535	64793.4
794.1175	143.0052	65535	64788.55
794.2591	145.2512	65535	64790.15
794.4008	147.4967	65535	64791.65
794.5425	149.7417	65535	64786.9
794.6842	151.9863	65535	64782.45
794.826	154.2304	65535	64780.85
794.9677	156.4739	65535	64771.3
795.1095	158.717	65535	64773.75
795.2513	160.9596	65535	64773.15
795.3931	163.2017	65535	64769.8
795.535	165.4433	65535	64769.2
795.6768	167.6844	65535	64764.1
795.8187	169.925	65535	64765.15
795.9606	172.1651	65535	64763.65
796.1025	174.4047	65535	64760.2
796.2445	176.6439	65535	64762.7
796.3864	178.8825	65535	64758.15
796.5284	181.1206	65535	64753.1
796.6704	183.3582	65535	64745.7
796.8124	185.5954	65535	64744.55
796.9544	187.832	65535	64738.85
797.0965	190.0681	65535	64738.9
797.2386	192.3037	65535	64730.5
797.3806	194.5388	65535	64730.5
797.5228	196.7734	65535	64726.75
797.6649	199.0075	65535	64724.85
797.807	201.2411	65535	64722.15
797.9492	203.4742	65535	64724.45
798.0914	205.7068	65535	64718.5
798.2336	207.9389	65535	64719.35
798.3758	210.1704	65535	64719.55
798.518	212.4015	65535	64716.45
798.6603	214.632	65535	64712.6
798.8025	216.862	65535	64723.7
798.9448	219.0915	65535	64730.4
799.0871	221.3205	65535	64735.65
799.2294	223.549	65535	64735.3
799.3718	225.777	65535	64740
799.5141	228.0044	65535	64737.1
799.6565	230.2314	65535	64743.3
799.7989	232.4578	65535	64737.2
799.9413	234.6837	65535	64729.85
800.0837	236.909	65535	64730.85
800.2262	239.1339	65535	64702.75
800.3687	241.3582	65535	64716.4
800.5111	243.582	65535	64689.35
800.6536	245.8053	65535	64703.3
800.7961	248.0281	65535	64707.75
800.9387	250.2503	65535	64696.75
801.0812	252.472	65535	64696.4
801.2238	254.6932	65535	64696.75
801.3664	256.9139	65535	64693.1
801.509	259.134	65535	64688.25
801.6516	261.3536	65535	64689.25
801.7942	263.5727	65535	64683.8
801.9369	265.7912	65535	64693.6
802.0795	268.0092	65535	64690.85
802.2222	270.2267	65535	64690.5
802.3649	272.4436	65535	64689.85
802.5076	274.6601	65535	64682.75
802.6504	276.8759	65535	64688.05
802.7931	279.0913	65535	64679.5
802.9359	281.3061	65535	64686.65
803.0787	283.5204	65535	64677.75
803.2215	285.7341	65535	64671.15
803.3643	287.9473	65535	64663.15
803.5071	290.16	65535	64667.55
803.6499	292.3721	65535	64675.65
803.7928	294.5837	65535	64675.05
803.9357	296.7947	65535	64670.3
804.0786	299.0052	65535	64668.9
804.2215	301.2152	65535	64676.4
804.3644	303.4246	65535	64678.1
804.5074	305.6334	65535	64679.9
804.6503	307.8418	65535	64670
804.7933	310.0495	65535	64670.35
804.9363	312.2568	65535	64672.05
805.0793	314.4635	65535	64665.9
805.2223	316.6696	65535	64665.25
805.3653	318.8752	65535	64660.45
805.5084	321.0802	65535	64665.85
805.6514	323.2847	65535	64665.55
805.7945	325.4887	65535	64664.9
805.9376	327.692	65535	64662.4
806.0807	329.8949	65535	64658.95
806.2238	332.0972	65535	64661.65
806.367	334.2989	65535	64657.05
806.5101	336.5001	65535	64656.95
806.6533	338.7007	65535	64656.3
806.7965	340.9008	65535	64653.3
806.9397	343.1003	65535	64651.6
807.0829	345.2992	65535	64652.6
807.2261	347.4976	65535	64654.65
807.3693	349.6955	65535	64650.75
807.5126	351.8927	65535	64650.2
807.6559	354.0895	65535	64636.3
807.7991	356.2856	65535	64646.35
807.9424	358.4812	65535	64645.7
808.0857	360.6763	65535	64646.4
808.2291	362.8707	65535	64646.4
808.3724	365.0646	65535	64642.8
808.5158	367.258	65535	64642.1
808.6591	369.4508	65535	64637.35
808.8025	371.643	65535	64635.15
808.9459	373.8346	65535	64638.05
809.0893	376.0257	65535	64637.8
809.2327	378.2162	65535	64633.85
809.3762	380.4062	65535	64633.45
809.5196	382.5956	65535	64632.8
809.6631	384.7844	65535	64636.55
809.8066	386.9726	65535	64636.3
809.9501	389.1603	65535	64635.8
810.0936	391.3474	65535	64594.85
810.2371	393.5339	65535	64632.3
810.3806	395.7199	65535	64636.15
810.5241	397.9052	65535	64638.1
810.6677	400.09	65535	64639.95
810.8113	402.2743	65535	64643.75
810.9548	404.4579	65535	64641.45
811.0984	406.641	65535	64641
811.2421	408.8235	65535	64640.75
811.3857	411.0054	65535	64644.2
811.5293	413.1868	65535	64638.55
811.673	415.3675	65535	64634.45
811.8166	417.5477	65535	64636.8
811.9603	419.7273	65535	64634.65
812.104	421.9064	65535	64623.4
812.2477	424.0848	65535	64632.95
812.3914	426.2627	65535	64625.95
812.5351	428.4399	65535	64630.1
812.6788	430.6166	65535	64625.6
812.8226	432.7928	65535	64621.45
812.9663	434.9683	65535	64627.85
813.1101	437.1432	65535	64627.5
813.2539	439.3176	65535	64630.95
813.3977	441.4914	65535	64637
813.5415	443.6645	65535	64627.1
813.6853	445.8371	65535	64626.5
813.8291	448.0091	65535	64626.3
813.973	450.1806	65535	64627.05
814.1168	452.3514	65535	64627.2
814.2607	454.5216	65535	64622.85
814.4046	456.6913	65535	64625.9
814.5485	458.8603	65535	64629.9
814.6924	461.0288	65535	64632.7
814.8363	463.1967	65535	64632.95
814.9802	465.3639	65535	64627.75
815.1241	467.5306	65535	64628
815.2681	469.6967	65535	64630.85
815.412	471.8622	65535	64630.8
815.556	474.0271	65535	64630.05
815.7	476.1914	65535	64619.1
815.844	478.3551	65535	64627.5
815.988	480.5182	65535	64626
816.132	482.6807	65535	64631.75
816.276	484.8426	65535	64637.5
816.4201	487.0039	65535	64632.05
816.5641	489.1647	65535	64625.55
816.7082	491.3248	65535	64622.7
816.8522	493.4843	65535	64629
816.9963	495.6432	65535	64632.95
817.1404	497.8015	65535	64619.6
817.2845	499.9592	65535	64616.5
817.4286	502.1163	65535	64613.25
817.5727	504.2728	65535	64623.2
817.7168	506.4287	65535	64633.8
817.861	508.5839	65535	64630.9
818.0051	510.7386	65535	64626.1
818.1493	512.8927	65535	64614.1
818.2935	515.0461	65535	64620.8
818.4377	517.199	65535	64617.85
818.5818	519.3512	65535	64617.3
818.726	521.5029	65535	64614.8
818.8703	523.6539	65535	64617.65
819.0145	525.8043	65535	64620.1
819.1587	527.9541	65535	64615.9
819.303	530.1033	65535	64616.55
819.4472	532.2519	65535	64616.15
819.5915	534.3999	65535	64614.85
819.7357	536.5472	65535	64618.6
819.88	538.694	65535	64618.05
820.0243	540.8401	65535	64614
820.1686	542.9856	65535	64607
820.3129	545.1305	65535	64602.8
820.4572	547.2748	65535	64599.65
820.6016	549.4185	65535	64598.75
820.7459	551.5615	65535	64602.25
820.8902	553.704	65535	64603.3
821.0346	555.8458	65535	64610.25
821.1789	557.987	65535	64608
821.3233	560.1276	65535	64606.15
821.4677	562.2675	65535	64604.25
821.6121	564.4069	65535	64603.6
821.7565	566.5456	65535	64612.1
821.9009	568.6837	65535	64609.3
822.0453	570.8212	65535	64610.5
822.1897	572.958	65535	64607.45
822.3342	575.0942	65535	64611.95
822.4786	577.2299	65535	64617.6
822.6231	579.3648	65535	64623.7
822.7675	581.4992	65535	64631.75
822.912	583.6329	65535	64632.75
823.0565	585.766	65535	64627.6
823.201	587.8985	65535	64623.9
823.3454	590.0304	65535	64590.8
823.4899	592.1616	65535	64605.15
823.6345	594.2922	65535	64606.1
823.779	596.4222	65535	64605.9
823.9235	598.5515	65535	64602.2
824.068	600.6802	65535	64606.3
824.2126	602.8083	65535	64608.85
824.3571	604.9358	65535	64602.4
824.5017	607.0626	65535	64605.8
824.6462	609.1888	65535	64598.3
824.7908	611.3144	65535	64595.8
824.9354	613.4393	65535	64598.3
825.08	615.5636	65535	64597.3
825.2246	617.6873	65535	64600.7
825.3692	619.8103	65535	64596.85
825.5138	621.9327	65535	64602.5
825.6584	624.0544	65535	64606.9
825.803	626.1756	65535	64609.55
825.9477	628.2961	65535	64606.05
826.0923	630.4159	65535	64599.55
826.237	632.5351	65535	64600.15
826.3816	634.6537	65535	64598.2
826.5263	636.7716	65535	64595.45
826.6709	638.8889	65535	64596.5
826.8156	641.0056	65535	64592.95
826.9603	643.1216	65535	64596.75
827.105	645.237	65535	64601.1
827.2497	647.3518	65535	64607.75
827.3944	649.4659	65535	64611.2
827.5391	651.5793	65535	64607.7
827.6838	653.6922	65535	64604.1
827.8285	655.8043	65535	64602.7
827.9733	657.9159	65535	64603.4
828.118	660.0268	65535	64603.2
828.2627	662.137	65535	64601.85
828.4075	664.2466	65535	64597.45
828.5522	666.3556	65535	64595.2
828.697	668.4639	65535	64598.65
828.8418	670.5716	65535	64605.6
828.9865	672.6786	65535	64596.4
829.1313	674.785	65535	64592.7
829.2761	676.8907	65535	64597.8
829.4209	678.9958	65535	64604.9
829.5657	681.1002	65535	64596.45
829.7105	683.204	65535	64591.2
829.8553	685.3072	65535	64592.4
830.0001	687.4097	65535	64594.25
830.1449	689.5115	65535	64593.8
830.2898	691.6127	65535	64595.65
830.4346	693.7132	65535	64602.35
830.5794	695.8131	65535	64575.05
830.7243	697.9123	65535	64589.85
830.8691	700.0109	65535	64588.75
831.014	702.1089	65535	64594.65
831.1588	704.2061	65535	64597.85
831.3037	706.3028	65535	64591.85
831.4486	708.3987	65535	64589.05
831.5935	710.4941	65535	64596.95
831.7383	712.5887	65535	64597.55
831.8832	714.6827	65535	64596.15
832.0281	716.7761	65535	64596.2
832.173	718.8688	65535	64597.05
832.3179	720.9608	65535	64586.1
832.4628	723.0522	65535	64587.65
832.6077	725.1429	65535	64586.85
832.7527	727.233	65535	64593.75
832.8976	729.3224	65535	64594.1
833.0425	731.4112	65535	64590.7
833.1874	733.4993	65535	64588.8
833.3324	735.5867	65535	64588.6
833.4773	737.6735	65535	64591.1
833.6222	739.7596	65535	64586.7
833.7672	741.845	65535	64594.1
833.9122	743.9298	65535	64591.45
834.0571	746.014	65532.15	64586.35
834.2021	748.0974	65524.85	64574.7
834.347	750.1802	65535	64586.85
834.492	752.2624	65523.5	64577.8
834.637	754.3439	65524.15	64573.95
834.782	756.4247	65530.85	64577.65
834.9269	758.5048	65524.45	64578.4
835.0719	760.5843	65528.4	64579.45
835.2169	762.6631	65534.45	64587.65
835.3619	764.7413	65529.95	64582.05
835.5069	766.8188	65531.8	64584.3
835.6519	768.8956	65535	64585.35
835.7969	770.9718	65535	64588
835.9419	773.0473	65535	64589.75
836.0869	775.1221	65520.15	64574.85
836.232	777.1962	65520.8	64571.1
836.377	779.2697	65478.7	64531.05
836.522	781.3426	65519.3	64553.45
836.667	783.4147	65524.9	64573.5
836.8121	785.4862	65526.25	64577.25
836.9571	787.557	65491.05	64539.75
837.1021	789.6271	65521.6	64568.7
837.2472	791.6966	65477.7	64525
837.3922	793.7654	65373.75	64427.2
837.5373	795.8335	65373.5	64424.5
837.6823	797.901	65406.2	64462
837.8274	799.9678	65366.85	64415.45
837.9724	802.0339	65316.15	64363.4
838.1175	804.0993	65342.7	64382.55
838.2626	806.1641	65302.15	64352.35
838.4076	808.2282	65269.85	64323.75
838.5527	810.2916	65218.35	64268.4
838.6978	812.3544	65336.3	64389.5
838.8428	814.4164	65087.15	64139.2
838.9879	816.4778	65069.85	64112.95
839.133	818.5385	65115.95	64164.45
839.2781	820.5986	65093.95	64139.55
839.4232	822.658	65130.3	64176.65
839.5682	824.7166	65149.9	64201.45
839.7133	826.7747	64844.25	63895.35
839.8584	828.832	64940.1	63986.3
840.0035	830.8886	65127.6	64173.7
840.1486	832.9446	65163.75	64207.5
840.2937	834.9999	64649.9	63699.25
840.4388	837.0545	64947.5	63989.8
840.5839	839.1085	65149.7	64196.35
840.729	841.1618	65023.25	64071.5
840.8741	843.2143	64639.5	63689.6
841.0192	845.2662	64595.65	63643.75
841.1643	847.3175	64774.55	63823.7
841.3095	849.368	64160.6	63208
841.4546	851.4179	64712.25	63758.2
841.5997	853.467	64266	63315.85
841.7448	855.5155	64444.75	63494.45
841.8899	857.5633	63985.4	63035.95
842.0351	859.6105	63800.35	62847.6
842.1802	861.6569	64056.8	63102.9
842.3253	863.7027	63442.5	62489.25
842.4704	865.7478	63643.4	62692.7
842.6156	867.7922	63509.4	62556.4
842.7607	869.8359	63849.25	62894.15
842.9058	871.8789	63220.8	62267.6
843.0509	873.9212	63611.3	62627.35
843.1961	875.9629	63736.3	62781.5
843.3412	878.0039	63616.75	62662.6
843.4863	880.0441	63438.7	62484.75
843.6315	882.0837	63425.7	62473.6
843.7766	884.1226	63315.7	62360.1
843.9218	886.1609	63192	62240.4
844.0669	888.1984	62791.15	61836.4
844.212	890.2352	63292.35	62340.3
844.3572	892.2714	62577.95	61619.35
844.5023	894.3069	62831.4	61876.1
844.6475	896.3416	62420.25	61469.65
844.7926	898.3757	62323.95	61372.65
844.9377	900.4091	61346.85	60390.55
845.0829	902.4418	62621.75	61661.9
845.228	904.4739	61902.3	60944.3
845.3732	906.5052	61967.6	61010.75
845.5183	908.5358	61470.35	60516.85
845.6635	910.5658	61148.9	60191.1
845.8086	912.595	61121.3	60164.1
845.9538	914.6236	60113.95	59158.85
846.0989	916.6515	61556.6	60602.8
846.2441	918.6786	60059.2	59104.05
846.3892	920.7051	60410.45	59451.45
846.5344	922.7309	60208.05	59249.45
846.6795	924.756	60477.6	59522.65
846.8246	926.7804	60042	59089
846.9698	928.8041	59167.1	58211.85
847.1149	930.8272	59778.3	58820.95
847.2601	932.8495	59758.8	58802.7
847.4052	934.8711	58958.05	58002.3
847.5504	936.892	58456.55	57500.75
847.6955	938.9123	58611.9	57653.65
847.8407	940.9318	58104.2	57149
847.9858	942.9506	57874.95	56924.25
848.131	944.9688	57904.35	56950.85
848.2761	946.9862	56904.85	55948.5
848.4213	949.003	57229.15	56277.3
848.5664	951.019	56469.95	55517.8
848.7115	953.0344	56635.7	55677.5
848.8567	955.0491	56562.85	55609.45
849.0018	957.063	56736.45	55779.5
849.147	959.0763	56784.85	55824
849.2921	961.0888	56337.3	55384
849.4373	963.1007	56704.6	55750.75
849.5824	965.1119	56576.95	55634.7
849.7275	967.1223	56223.7	55279.75
849.8727	969.1321	56614.85	55670.55
850.0178	971.1412	55986.6	55038.85
850.1629	973.1495	55763.55	54814.5
850.3081	975.1572	55960.2	54971.45
850.4532	977.1641	55786.2	54832.3
850.5983	979.1704	55570.1	54612.3
850.7435	981.1759	55580.9	54625
850.8886	983.1808	55270.15	54313.1
851.0337	985.1849	55268.8	54306.15
851.1788	987.1884	55343.9	54386.05
851.324	989.1911	55716.25	54760.15
851.4691	991.1932	55101.2	54146.8
851.6142	993.1945	55205.45	54255.1
851.7593	995.1951	55182.1	54227.75
851.9045	997.1951	54766.85	53807.8
852.0496	999.1943	54446.8	53492
852.1947	1001.1928	54215.95	53261.5
852.3398	1003.1906	54171.95	53217.95
852.4849	1005.1877	53774.8	52819.7
852.63	1007.1841	53443.05	52490.9
852.7751	1009.1798	53231.8	52280.7
852.9202	1011.1748	52877.95	51925.15
853.0653	1013.1691	52588.15	51637.05
853.2104	1015.1627	51944.65	50992.55
853.3555	1017.1556	51580.1	50630.05
853.5006	1019.1477	51602.4	50651.35
853.6457	1021.1392	51048.3	50103.2
853.7908	1023.1299	50661	49716.35
853.9359	1025.12	50661.05	49721.3
854.081	1027.1093	50437.7	49508.8
854.2261	1029.0979	50356.35	49428.35
854.3712	1031.0859	50259.3	49327.55
854.5163	1033.0731	49929.35	48988
854.6613	1035.0596	49783.65	48844.1
854.8064	1037.0454	49365.95	48419.35
854.9515	1039.0304	49089.8	48144.3
855.0965	1041.0148	48791.25	47843.15
855.2416	1042.9985	48573.75	47620.8
855.3867	1044.9814	48505.6	47557.2
855.5317	1046.9636	48203	47255.8
855.6768	1048.9452	47995.05	47045.35
855.8219	1050.926	47910.2	46963.5
855.9669	1052.9061	47681.65	46733.85
856.112	1054.8855	47514.8	46566
856.257	1056.8642	47425.85	46475.65
856.4021	1058.8421	47429.15	46472.7
856.5471	1060.8194	47263.05	46317
856.6921	1062.7959	47134.3	46182.5
856.8372	1064.7717	47058.1	46109.2
856.9822	1066.7469	46913.05	45965.9
857.1272	1068.7213	46789.1	45835.7
857.2723	1070.695	46638.95	45690
857.4173	1072.6679	46251.05	45300.9
857.5623	1074.6402	46114.7	45163.7
857.7073	1076.6117	45986.5	45029.5
857.8523	1078.5826	45964.1	45011.05
857.9973	1080.5527	45840.7	44886.85
858.1423	1082.5221	45825.95	44878.85
858.2873	1084.4908	45978.65	45027.4
858.4323	1086.4587	46087.6	45136.4
858.5773	1088.426	46116.3	45162.85
858.7223	1090.3925	45920.35	44962.7
858.8673	1092.3584	45805.3	44858.45
859.0123	1094.3235	45333.85	44388.85
859.1573	1096.2879	45102.8	44156.35
859.3022	1098.2515	44941.5	43992.9
859.4472	1100.2145	44878.1	43926.25
859.5922	1102.1767	44748	43799.25
859.7371	1104.1382	44819.85	43872.45
859.8821	1106.099	44847.5	43897.35
860.027	1108.0591	44902.9	43956.05
860.172	1110.0185	44909.4	43959.9
860.3169	1111.9771	44878.4	43930.25
860.4619	1113.9351	44440.9	43495.5
860.6068	1115.8923	43893.45	42945.05
860.7517	1117.8488	43459.4	42508.4
860.8967	1119.8045	42966.1	42018.3
861.0416	1121.7596	42746.15	41798.1
861.1865	1123.7139	42467.75	41519.05
861.3314	1125.6675	42356.85	41413.65
861.4763	1127.6204	42456.3	41508.55
861.6212	1129.5726	42313.6	41365.6
861.7661	1131.524	42191.15	41243.8
861.911	1133.4748	42259.65	41313.05
862.0559	1135.4248	42155.6	41205.6
862.2008	1137.3741	42071.05	41124.35
862.3457	1139.3226	41929.95	40980.6
862.4905	1141.2705	41859.45	40912.7
862.6354	1143.2176	41510.1	40559.05
862.7803	1145.164	41503.6	40555
862.9251	1147.1097	41425.9	40477.05
863.07	1149.0546	41341.7	40392.3
863.2148	1150.9989	41223.15	40276.5
863.3597	1152.9424	40980.95	40033.9
863.5045	1154.8852	40697.7	39749.1
863.6493	1156.8272	40393.05	39444.2
863.7942	1158.7686	40337.7	39385.2
863.939	1160.7092	40089.1	39141.45
864.0838	1162.6491	39907.05	38958.35
864.2286	1164.5883	39959.1	39012.65
864.3734	1166.5267	39870.75	38921.35
864.5182	1168.4644	39930.45	38983.5
864.663	1170.4014	40033.35	39088.15
864.8078	1172.3377	40222.4	39280.5
864.9526	1174.2732	40318.7	39376.8
865.0974	1176.2081	40463.75	39519.05
865.2421	1178.1421	40513.1	39564.65
865.3869	1180.0755	40536.55	39592.9
865.5317	1182.0082	40376.95	39431.8
865.6764	1183.9401	40221.9	39277.1
865.8212	1185.8713	39854.3	38913.05
865.9659	1187.8017	39557.8	38625.3
866.1106	1189.7315	39245.1	38316.25
866.2554	1191.6605	38771.9	37844
866.4001	1193.5888	38444.05	37511.5
866.5448	1195.5163	38221.55	37283
866.6895	1197.4432	37976.75	37035.1
866.8342	1199.3693	37808.4	36864.95
866.9789	1201.2947	37636.2	36686.95
867.1236	1203.2193	37460.2	36517.25
867.2683	1205.1432	37443.95	36498.5
867.413	1207.0664	37350.15	36408.3
867.5576	1208.9889	37291.5	36344
867.7023	1210.9106	37225	36284.8
867.847	1212.8316	37110.15	36166.9
867.9916	1214.7519	37150.05	36197.15
868.1363	1216.6715	37026.45	36084.5
868.2809	1218.5903	36922.25	35978.8
868.4255	1220.5084	36770.65	35830.75
868.5701	1222.4257	36714.35	35771.05
868.7148	1224.3424	36414.7	35477.2
868.8594	1226.2583	36346.35	35400.95
869.004	1228.1735	36370.25	35427.55
869.1486	1230.0879	36315.7	35372.4
869.2932	1232.0016	36357.35	35413.5
869.4377	1233.9146	36254.15	35311.55
869.5823	1235.8269	36056	35115.5
869.7269	1237.7384	35913.15	34972.75
869.8715	1239.6492	35521.5	34583.3
870.016	1241.5592	35400.65	34458.15
870.1606	1243.4686	35113.45	34174.35
870.3051	1245.3772	35005.45	34064.95
870.4496	1247.285	34832.7	33889.75
870.5941	1249.1922	34663.2	33719.8
870.7387	1251.0986	34577.65	33637.8
870.8832	1253.0042	34382.8	33441.85
871.0277	1254.9092	34438.6	33498.2
871.1722	1256.8134	34454.3	33515.25
871.3167	1258.7169	34562.5	33620.5
871.4611	1260.6196	34590.15	33651.7
871.6056	1262.5216	34722.45	33778.8
871.7501	1264.4229	34739.5	33797.3
871.8945	1266.3234	34814.5	33875.5
872.039	1268.2232	34847.45	33907.75
872.1834	1270.1223	34734.25	33791.7
872.3278	1272.0207	34536.9	33597.8
872.4723	1273.9183	34436.5	33490.05
872.6167	1275.8151	34286.45	33347.65
872.7611	1277.7113	34139.7	33199.1
872.9055	1279.6067	33864.35	32925.45
873.0499	1281.5014	33534.4	32590.25
873.1943	1283.3953	33396.85	32455.85
873.3386	1285.2885	33171.95	32233.95
873.483	1287.181	33071.35	32133.75
873.6274	1289.0727	33031.9	32095.25
873.7717	1290.9637	32951.95	32013
873.9161	1292.854	33017.8	32081.7
874.0604	1294.7435	33077.95	32138.9
874.2047	1296.6323	33221.1	32286.4
874.349	1298.5204	33453.5	32511.3
874.4933	1300.4077	33585.9	32646.25
874.6376	1302.2943	33758.6	32818.35
874.7819	1304.1802	33808.75	32871.2
874.9262	1306.0653	33651.95	32709.2
875.0705	1307.9497	33460	32521.35
875.2147	1309.8333	33339.1	32400.45
875.359	1311.7162	33262.65	32323.3
875.5032	1313.5984	33298	32355.9
875.6475	1315.4798	33343	32394.2
875.7917	1317.3605	33429.5	32475.75
875.9359	1319.2405	33567.65	32629.95
876.0801	1321.1197	33561.05	32620.25
876.2243	1322.9982	33413.55	32471.05
876.3685	1324.876	33368.25	32430.05
876.5127	1326.753	33208.55	32270.1
876.6569	1328.6293	33290.75	32351.45
876.801	1330.5048	33321.55	32379.1
876.9452	1332.3796	33163.8	32223.35
877.0893	1334.2537	33122.9	32159
877.2335	1336.127	32932.15	31995.6
877.3776	1337.9996	32806	31868.75
877.5217	1339.8714	32691.35	31753.7
877.6658	1341.7426	32574.85	31590.7
877.8099	1343.6129	32486.45	31546.5
877.954	1345.4826	32228.35	31290.3
878.0981	1347.3515	32247.7	31304.8
878.2422	1349.2196	32096.35	31155.25
878.3862	1351.087	32047.15	31108.2
878.5303	1352.9537	32037.35	31100.1
878.6743	1354.8197	32107.85	31167.9
878.8184	1356.6849	32248.65	31311.5
878.9624	1358.5493	32255.15	31313.5
879.1064	1360.4131	32184.65	31246.95
879.2504	1362.276	32004.65	31069.85
879.3944	1364.1383	31716.1	30779.65
879.5384	1365.9998	31434.4	30491.2
879.6823	1367.8606	31073.4	30134.8
879.8263	1369.7206	30739.95	29802.25
879.9702	1371.5799	30508.65	29569.9
880.1142	1373.4384	30336.4	29395.5
880.2581	1375.2962	30159.8	29221.4
880.402	1377.1533	29795.2	28859.4
880.5459	1379.0096	29386.5	28452.55
880.6898	1380.8652	29070.5	28137.05
880.8337	1382.7201	28704.65	27768.05
880.9776	1384.5742	28410.65	27475.1
881.1215	1386.4275	28161.55	27222.9
881.2653	1388.2802	28001	27063.2
881.4092	1390.132	27791.4	26852.05
881.553	1391.9832	27721.35	26782.9
881.6968	1393.8336	27513.1	26575.6
881.8406	1395.6832	27380.75	26442.35
881.9844	1397.5322	27219.4	26283.45
882.1282	1399.3803	27168.75	26227.1
882.272	1401.2278	27010.1	26075
882.4158	1403.0745	26948.35	26013
882.5595	1404.9204	26814.1	25880
882.7033	1406.7656	26783.1	25846.35
882.847	1408.6101	26678.85	25743.2
882.9908	1410.4538	26601.15	25665.2
883.1345	1412.2968	26536.75	25603.45
883.2782	1414.139	26486.9	25550.85
883.4219	1415.9805	26507.65	25570.95
883.5656	1417.8213	26495	25539.1
883.7092	1419.6613	26537.75	25602.7
883.8529	1421.5006	26655.55	25720.55
883.9965	1423.3391	26849.65	25914.95
884.1402	1425.1769	27126.35	26188
884.2838	1427.0139	27615.1	26681.2
884.4274	1428.8502	28191.7	27254.8
884.571	1430.6858	28710.6	27777.3
884.7146	1432.5206	29038.55	28104.7
884.8582	1434.3547	29310.4	28376.55
885.0018	1436.188	29288.95	28356.2
885.1453	1438.0206	29190.85	28256.6
885.2889	1439.8524	28999.35	28065.95
885.4324	1441.6835	28852.3	27918.05
885.5759	1443.5139	28679.8	27743
885.7194	1445.3435	28537.1	27602.6
885.8629	1447.1724	28468.35	27539.05
886.0064	1449.0005	28323.35	27393
886.1499	1450.8279	28151.85	27217.7
886.2933	1452.6545	28090.05	27160.5
886.4368	1454.4804	28107.7	27177.6
886.5802	1456.3056	28003.9	27066.55
886.7237	1458.13	27864.6	26934.75
886.8671	1459.9536	27619.4	26689.65
887.0105	1461.7766	27214.8	26282.7
887.1539	1463.5987	26757.85	25822.5
887.2972	1465.4202	26270.3	25337.75
887.4406	1467.2409	25794.05	24860.45
887.584	1469.0608	25518.05	24584.1
887.7273	1470.88	25212.8	24278.5
887.8706	1472.6984	24965.3	24034.15
888.0139	1474.5161	24642.95	23706.55
888.1572	1476.3331	24429.4	23499.15
888.3005	1478.1493	24287.05	23355.7
888.4438	1479.9648	24194.1	23259.8
888.5871	1481.7795	24036.75	23104.65
888.7303	1483.5935	23924.5	22992.8
888.8736	1485.4067	23820.15	22886.5
889.0168	1487.2192	23759.35	22828.55
889.16	1489.031	23651.35	22718.8
889.3032	1490.842	23596.7	22662.75
889.4464	1492.6522	23532.85	22602.05
889.5896	1494.4618	23478.45	22547.4
889.7327	1496.2705	23370.65	22444.05
889.8759	1498.0785	23321.5	22391.2
890.019	1499.8858	23223.9	22292.8
890.1622	1501.6924	23178.1	22249.45
890.3053	1503.4981	23127.7	22198.15
890.4484	1505.3032	23056.5	22125.85
890.5914	1507.1075	22984.2	22053
890.7345	1508.911	22880.95	21949.9
890.8776	1510.7138	22795.7	21864.65
891.0206	1512.5159	22691	21758.7
891.1637	1514.3172	22652.4	21724.75
891.3067	1516.1178	22516.15	21586.9
891.4497	1517.9176	22475.95	21543.85
891.5927	1519.7166	22356.45	21425.8
891.7357	1521.515	22310.15	21374.05
891.8786	1523.3126	22201.4	21274.25
892.0216	1525.1094	22116.7	21186.3
892.1645	1526.9055	22023	21094.3
892.3074	1528.7008	21966.7	21038.6
892.4503	1530.4954	21835.4	20901
892.5932	1532.2893	21798.6	20871.7
892.7361	1534.0824	21662.4	20734.25
892.879	1535.8747	21654.65	20732.9
893.0218	1537.6663	21579.95	20655.25
893.1647	1539.4572	21511.2	20585.35
893.3075	1541.2473	21443.1	20517.85
893.4503	1543.0367	21376.05	20452.55
893.5931	1544.8253	21291.55	20360.55
893.7359	1546.6132	21257.55	20327.4
893.8787	1548.4003	21171.65	20235.1
894.0214	1550.1867	21191.3	20256.4
894.1642	1551.9723	21135	20206.45
894.3069	1553.7572	21076.55	20153.5
894.4496	1555.5414	21015.55	20092.75
894.5923	1557.3247	20958.5	20038
894.735	1559.1074	20960.15	20042.05
894.8777	1560.8893	20956.5	20038.8
895.0204	1562.6705	20957.75	20037.65
895.163	1564.4509	20961.55	20043.35
895.3056	1566.2305	20996.85	20078.75
895.4482	1568.0094	21085.65	20169.25
895.5908	1569.7876	21144.45	20226.8
895.7334	1571.565	21148.4	20229.1
895.876	1573.3417	21196.65	20277.1
896.0186	1575.1176	21156.9	20238.15
896.1611	1576.8928	21095.45	20180.2
896.3036	1578.6672	20939.55	20030.4
896.4461	1580.4409	20803.2	19893.4
896.5886	1582.2138	20607.8	19693
896.7311	1583.986	20411.85	19496.35
896.8736	1585.7575	20298.3	19382.85
897.0161	1587.5282	20161.05	19248.45
897.1585	1589.2981	20021.35	19112.3
897.3009	1591.0673	19908.25	18996.05
897.4433	1592.8358	19851.45	18937.45
897.5857	1594.6035	19791.4	18875.35
897.7281	1596.3704	19721.9	18803.85
897.8705	1598.1366	19668.05	18752.45
898.0128	1599.9021	19618.55	18708.55
898.1551	1601.6668	19612.75	18696.2
898.2975	1603.4308	19640.45	18724.8
898.4398	1605.194	19657.35	18737.7
898.5821	1606.9564	19684.2	18775.9
898.7243	1608.7182	19727.4	18820.1
898.8666	1610.4791	19768.6	18864.45
899.0088	1612.2394	19847.3	18945.3
899.1511	1613.9988	19971.75	19068.3
899.2933	1615.7576	20189.7	19281.95
899.4355	1617.5156	20422.55	19504.1
899.5776	1619.2728	20630	19713.85
899.7198	1621.0293	20772.15	19859.25
899.862	1622.785	20841.25	19933.55
900.0041	1624.54	20705.05	19798.55
900.1462	1626.2942	20504.6	19598
900.2883	1628.0477	20173.3	19263.2
900.4304	1629.8005	19910.95	18998.1
900.5725	1631.5525	19601.3	18692.9
900.7145	1633.3037	19356.4	18450.3
900.8566	1635.0542	19123.25	18216.8
900.9986	1636.804	18918.5	18012.3
901.1406	1638.553	18876.2	17897.5
901.2826	1640.3013	18690.05	17781.65
901.4245	1642.0488	18611.4	17701.95
901.5665	1643.7955	18508.3	17603.65
901.7085	1645.5416	18480.95	17573.4
901.8504	1647.2868	18526.05	17620.55
901.9923	1649.0313	18504	17593.25
902.1342	1650.7751	18622.2	17711.35
902.2761	1652.5181	18785.3	17879.6
902.4179	1654.2604	18918.35	18013.75
902.5598	1656.0019	19231.15	18325.6
902.7016	1657.7427	19547.9	18641.65
902.8434	1659.4828	19869.75	18962.9
902.9852	1661.222	20092.65	19184.95
903.127	1662.9606	20124.5	19217.85
903.2687	1664.6984	19950.8	19040.6
903.4105	1666.4354	19605.95	18696.95
903.5522	1668.1717	19145.35	18231.3
903.6939	1669.9072	18618.15	17707.65
903.8356	1671.642	18212.95	17300.75
903.9773	1673.3761	17893.1	16983.1
904.119	1675.1094	17629.05	16722.8
904.2606	1676.8419	17388.6	16480.75
904.4022	1678.5737	17219.25	16310.05
904.5439	1680.3048	17077.6	16170.35
904.6855	1682.0351	16926.5	16017.85
904.827	1683.7646	16807.6	15896
904.9686	1685.4934	16715.65	15808.95
905.1101	1687.2215	16633.8	15725.85
905.2517	1688.9488	16523.85	15617.35
905.3932	1690.6754	16394.35	15487.45
905.5347	1692.4012	16386.35	15478.05
905.6761	1694.1263	16333.55	15426.6
905.8176	1695.8506	16257.7	15350.85
905.9591	1697.5742	16180.45	15277.7
906.1005	1699.297	16085.5	15185.5
906.2419	1701.0191	15995.95	15092.85
906.3833	1702.7404	15969.05	15067.8
906.5246	1704.461	15860.65	14952.9
906.666	1706.1808	15810.5	14906.05
906.8073	1707.8999	15757.2	14853.85
906.9487	1709.6182	15696.5	14796.35
907.09	1711.3358	15642.15	14744.6
907.2313	1713.0527	15568.95	14671.25
907.3725	1714.7688	15551.95	14647.2
907.5138	1716.4841	15453.8	14550.4
907.655	1718.1987	15434.3	14526.45
907.7962	1719.9126	15379.35	14480.65
907.9374	1721.6257	15327.45	14427.1
908.0786	1723.338	15307.6	14407.7
908.2198	1725.0496	15218.4	14317.95
908.3609	1726.7605	15122.7	14220.3
908.502	1728.4706	15117.4	14215.85
908.6431	1730.18	15037.95	14137
908.7842	1731.8886	14970.75	14074.55
908.9253	1733.5964	14942.6	14022.35
909.0664	1735.3036	14897.25	13993.2
909.2074	1737.0099	14845.75	13945.25
909.3484	1738.7156	14796.9	13898.95
909.4894	1740.4204	14755.55	13852.9
909.6304	1742.1246	14726.8	13823.85
909.7714	1743.8279	14668.4	13768.3
909.9123	1745.5306	14652	13754.85
910.0532	1747.2325	14601.45	13704.7
910.1941	1748.9336	14554.45	13654.45
910.335	1750.634	14503.75	13601.15
910.4759	1752.3336	14472.8	13575.45
910.6168	1754.0325	14448.1	13552.95
910.7576	1755.7307	14409.3	13512.55
910.8984	1757.4281	14414.3	13513.95
911.0392	1759.1247	14371.75	13461.15
911.18	1760.8206	14327.55	13420.5
911.3208	1762.5158	14305.9	13400.4
911.4615	1764.2102	14240.75	13342.6
911.6022	1765.9039	14176.5	13279.1
911.7429	1767.5968	14144.75	13250.35
911.8836	1769.289	14095.05	13198.1
912.0243	1770.9804	14056.2	13156
912.1649	1772.6711	14071.4	13169.95
912.3056	1774.361	14033.65	13131.95
912.4462	1776.0502	13990.3	13091.8
912.5868	1777.7386	13943	13040.8
912.7274	1779.4263	13887.15	12989.25
912.8679	1781.1132	13873.95	12979.35
913.0084	1782.7994	13845.6	12948.95
913.149	1784.4849	13799	12906.8
913.2895	1786.1696	13735.75	12833.5
913.4299	1787.8535	13700.1	12807.6
913.5704	1789.5367	13667.35	12773.9
913.7108	1791.2192	13630.85	12737.85
913.8513	1792.9009	13614.8	12694.1
913.9917	1794.5818	13583.35	12682.95
914.132	1796.2621	13502.9	12605.4
914.2724	1797.9415	13499.35	12600.1
914.4128	1799.6202	13439.1	12539.95
914.5531	1801.2982	13441	12541.2
914.6934	1802.9755	13408.9	12508.85
914.8337	1804.6519	13381.85	12483.8
914.9739	1806.3277	13297.9	12401.95
915.1142	1808.0027	13260.1	12367.75
915.2544	1809.6769	13245	12352.15
915.3946	1811.3504	13227.8	12332.95
915.5348	1813.0231	13191.25	12296.9
915.675	1814.6951	13128	12231.3
915.8151	1816.3664	13140.8	12241.7
915.9553	1818.0369	13113.05	12214.3
916.0954	1819.7067	13056.4	12161.55
916.2355	1821.3757	13007.5	12109.7
916.3755	1823.044	13046.65	12148.85
916.5156	1824.7115	12999.45	12100.15
916.6556	1826.3783	12930.1	12034.35
916.7956	1828.0443	12891.1	11996.6
916.9356	1829.7096	12856.7	11960.55
917.0756	1831.3741	12860.7	11960.5
917.2155	1833.0379	12796.75	11904.25
917.3555	1834.701	12760.65	11865.3
917.4954	1836.3633	12764.9	11871.1
917.6353	1838.0248	12730.55	11833.9
917.7751	1839.6856	12675.65	11778.05
917.915	1841.3457	12643.35	11746.55
918.0548	1843.005	12617.95	11720.4
918.1946	1844.6636	12610.35	11714.85
918.3344	1846.3214	12558.35	11662.85
918.4742	1847.9785	12603.25	11708.05
918.6139	1849.6349	12526.05	11628.85
918.7537	1851.2904	12538.5	11630.8
918.8934	1852.9453	12504.1	11606.3
919.0331	1854.5994	12434.4	11533.8
919.1727	1856.2528	12459.05	11556.65
919.3124	1857.9054	12384	11484.95
919.452	1859.5572	12357.05	11460.85
919.5916	1861.2083	12353.25	11455.95
919.7312	1862.8587	12371	11475.25
919.8708	1864.5084	12318.25	11417.9
920.0103	1866.1572	12261.65	11362.85
920.1498	1867.8054	12206.55	11307.2
920.2893	1869.4528	12186.85	11285.95
920.4288	1871.0994	12163	11264.25
920.5683	1872.7453	12144.95	11248
920.7077	1874.3905	12128.75	11212.95
920.8471	1876.0349	12055.75	11155.7
920.9865	1877.6786	12050.55	11151.65
921.1259	1879.3215	12044.45	11147.15
921.2653	1880.9637	11988.7	11090.5
921.4046	1882.6051	11968.9	11074.9
921.5439	1884.2458	11942.35	11043.75
921.6832	1885.8858	11896.45	10998.6
921.8225	1887.525	11871.55	10974.65
921.9617	1889.1634	11812.4	10915.75
922.101	1890.8011	11778.6	10880.2
922.2402	1892.4381	11770.1	10873.2
922.3794	1894.0743	11758.9	10863.25
922.5185	1895.7098	11729.85	10833.15
922.6577	1897.3446	11704.05	10807.4
922.7968	1898.9786	11695.5	10795.85
922.9359	1900.6118	11644.8	10749.8
923.075	1902.2443	11573.3	10674.3
923.214	1903.8761	11550.6	10654.75
923.3531	1905.5071	11509.3	10612.8
923.4921	1907.1374	11477.95	10581.5
923.6311	1908.7669	11470.55	10575.45
923.77	1910.3957	11436.65	10542.55
923.909	1912.0237	11360.85	10467.5
924.0479	1913.651	11362.25	10466.45
924.1868	1915.2776	11319.65	10425.9
924.3257	1916.9034	11248.35	10353.95
924.4646	1918.5285	11192.3	10300
924.6034	1920.1528	11158.55	10263.55
924.7422	1921.7764	11162.75	10267.15
924.881	1923.3992	11115.6	10220.6
925.0198	1925.0213	11040.05	10142.5
925.1586	1926.6427	10983.65	10090.9
925.2973	1928.2633	11030.25	10063.15
925.436	1929.8832	10972.3	10074.95
925.5747	1931.5023	10885.15	9989.75
925.7134	1933.1207	10894.15	9999.15
925.852	1934.7383	10857.2	9962.15
925.9906	1936.3552	10843.8	9950.05
926.1292	1937.9714	10813.15	9918
926.2678	1939.5868	10744.2	9845.75
926.4064	1941.2015	10688.6	9792.45
926.5449	1942.8154	10671	9774.5
926.6834	1944.4286	10621.95	9726.75
926.8219	1946.041	10600.45	9684.1
926.9604	1947.6528	10518.8	9618
927.0988	1949.2637	10501.85	9607.15
927.2372	1950.8739	10452.2	9557.85
927.3756	1952.4834	10447.75	9554.25
927.514	1954.0921	10420.05	9525.35
927.6523	1955.7001	10386.7	9488.9
927.7907	1957.3074	10350	9457.75
927.929	1958.9139	10286.9	9395.05
928.0673	1960.5197	10281.25	9388.05
928.2055	1962.1247	10259.8	9367.05
928.3438	1963.729	10219.8	9326.9
928.482	1965.3325	10172.55	9256.85
928.6202	1966.9353	10133.05	9241.15
928.7584	1968.5374	10086.1	9195.6
928.8965	1970.1387	10075.65	9183
929.0346	1971.7393	10018.85	9124.95
929.1727	1973.3392	9989	9096.55
929.3108	1974.9383	9930.9	9038.55
929.4489	1976.5366	9888.95	8998.6
929.5869	1978.1342	9907.75	9016.1
929.7249	1979.7311	9873.65	8983.65
929.8629	1981.3273	9856.35	8964.05
930.0009	1982.9227	9793.05	8902.65
930.1388	1984.5173	9770.35	8881.95
930.2767	1986.1112	9733.95	8845.65
930.4146	1987.7044	9704	8815.1
930.5525	1989.2968	9663.85	8771.5
930.6904	1990.8885	9647.65	8755.1
930.8282	1992.4795	9622.65	8731.6
930.966	1994.0697	9605.1	8717.4
931.1038	1995.6592	9580.85	8690.8
931.2415	1997.2479	9535.35	8646.6
931.3793	1998.8359	9544.6	8655.85
931.517	2000.4232	9476.05	8588.25
931.6547	2002.0097	9447.4	8564.35
931.7923	2003.5955	9419.15	8533.8
931.93	2005.1805	9414.6	8528.15
932.0676	2006.7648	9385.2	8498.25
932.2052	2008.3484	9326.4	8438.05
932.3427	2009.9312	9338.1	8450.25
932.4803	2011.5133	9324.25	8438.9
932.6178	2013.0946	9287.9	8403.1
932.7553	2014.6752	9248.55	8362.8
932.8928	2016.2551	9228.5	8338.45
933.0302	2017.8342	9226.95	8340.8
933.1676	2019.4126	9166.1	8280.85
933.305	2020.9902	9122.65	8238
933.4424	2022.5672	9098.05	8212.8
933.5798	2024.1433	9110.75	8221.8
933.7171	2025.7188	9060.4	8178.85
933.8544	2027.2935	9057.5	8171.2
933.9917	2028.8674	9010.4	8125.95
934.129	2030.4406	8975.2	8092.35
934.2662	2032.0131	8942.2	8059
934.4034	2033.5849	8910.75	8020
934.5406	2035.1559	8899.45	8013.85
934.6778	2036.7261	8890.75	8005.6
934.8149	2038.2957	8871.2	7983.45
934.952	2039.8645	8823.05	7933.05
935.0891	2041.4325	8834.3	7942.5
935.2262	2042.9998	8789.1	7901.9
935.3632	2044.5664	8789	7903
935.5002	2046.1323	8749	7865.85
935.6372	2047.6974	8718.05	7833.85
935.7742	2049.2617	8687.75	7802.9
935.9111	2050.8254	8666.7	7776.1
936.048	2052.3883	8680.8	7792.2
936.1849	2053.9504	8650.85	7761.25
936.3218	2055.5118	8602.75	7714.15
936.4586	2057.0725	8585.95	7694
936.5955	2058.6325	8555.5	7670.75
936.7323	2060.1917	8530.35	7643.05
936.869	2061.7502	8503.75	7616.15
937.0058	2063.3079	8462.15	7577.25
937.1425	2064.8649	8473.05	7585.7
937.2792	2066.4212	8415.5	7527.9
937.4159	2067.9767	8395.9	7509.35
937.5525	2069.5315	8354.75	7468.65
937.6891	2071.0856	8357.1	7472.5
937.8257	2072.6389	8319.35	7432.35
937.9623	2074.1915	8285.9	7404.25
938.0989	2075.7433	8264.25	7377.25
938.2354	2077.2945	8226.5	7341.45
938.3719	2078.8448	8182	7293.75
938.5084	2080.3945	8175.4	7286.3
938.6448	2081.9434	8153.1	7266.15
938.7812	2083.4916	8126.8	7236.25
938.9176	2085.039	8111.9	7220.35
939.054	2086.5857	8093.45	7200.55
939.1903	2088.1317	8074.85	7182.35
939.3267	2089.677	8064.6	7174
939.463	2091.2215	8032.95	7139.95
939.5992	2092.7652	7997.15	7101.3
939.7355	2094.3083	7977.45	7085
939.8717	2095.8506	7971.4	7081.45
940.0079	2097.3921	7966.85	7076.1
940.1441	2098.933	7948.95	7059.45
940.2802	2100.4731	7914.15	7024.9
940.4163	2102.0124	7911.8	7015.75
940.5524	2103.5511	7892.35	7001.15
940.6885	2105.089	7864.6	6975.45
940.8245	2106.6261	7853.45	6961.5
940.9606	2108.1626	7831.8	6942.2
941.0965	2109.6983	7848.35	6928.5
941.2325	2111.2332	7800.7	6908.9
941.3684	2112.7675	7759.3	6865.9
941.5044	2114.301	7728.95	6835.4
941.6403	2115.8337	7726.4	6835.8
941.7761	2117.3657	7701	6812.95
941.912	2118.897	7707.3	6818.45
942.0478	2120.4276	7669.75	6771.65
942.1835	2121.9575	7637.45	6744.65
942.3193	2123.4866	7634.4	6730.15
942.455	2125.0149	7608.95	6718.05
942.5907	2126.5426	7573.05	6685.95
942.7264	2128.0695	7541.65	6651.45
942.8621	2129.5956	7545.85	6660.6
942.9977	2131.1211	7511.75	6620.75
943.1333	2132.6458	7506.1	6617.45
943.2689	2134.1698	7489.7	6597.15
943.4044	2135.693	7469.7	6575.85
943.54	2137.2155	7435.05	6540.25
943.6755	2138.7373	7431.55	6541.3
943.8109	2140.2584	7401.8	6516.15
943.9464	2141.7787	7375.55	6484.95
944.0818	2143.2983	7361.65	6476.75
944.2172	2144.8171	7312.4	6430.25
944.3526	2146.3353	7313.4	6425.65
944.4879	2147.8527	7271.05	6382.7
944.6232	2149.3693	7281.8	6389.75
944.7585	2150.8853	7277	6384.1
944.8938	2152.4005	7216.7	6324.85
945.029	2153.9149	7215.3	6325.75
945.1642	2155.4287	7288.85	6281.25
945.2994	2156.9417	7199.8	6307.7
945.4346	2158.454	7152.85	6264.05
945.5697	2159.9655	7148.45	6261.35
945.7048	2161.4764	7125.7	6236.05
945.8399	2162.9865	7084.45	6196.4
945.9749	2164.4958	7084.65	6195.6
946.1099	2166.0045	7056.1	6165.15
946.2449	2167.5124	7050.25	6162.9
946.3799	2169.0195	7031.4	6142.95
946.5148	2170.526	7011.7	6120.7
946.6498	2172.0317	7005.4	6116.15
946.7846	2173.5367	6979.65	6088.5
946.9195	2175.0409	6962.6	6073.7
947.0543	2176.5445	6948.8	6061
947.1891	2178.0473	6916.45	6025.15
947.3239	2179.5494	6894.35	6000.1
947.4587	2181.0507	6871.6	5978.65
947.5934	2182.5513	6835.45	5946.15
947.7281	2184.0512	6813.15	5922.9
947.8628	2185.5504	6814.6	5924.65
947.9974	2187.0488	6768.9	5882.7
948.132	2188.5465	6765.5	5877.25
948.2666	2190.0435	6756.7	5868.05
948.4012	2191.5397	6727.8	5838.15
948.5357	2193.0353	6724.8	5834.7
948.6702	2194.5301	6691	5796.75
948.8047	2196.0241	6657.15	5763.9
948.9392	2197.5175	6640.95	5747.3
949.0736	2199.0101	6627.2	5729.65
949.208	2200.502	6601.45	5711.1
949.3424	2201.9931	6585.4	5695.75
949.4767	2203.4835	6547.2	5660.2
949.611	2204.9733	6538.4	5646.2
949.7453	2206.4622	6515.4	5628.75
949.8796	2207.9505	6494.9	5608.2
950.0138	2209.438	6466.1	5582.85
950.148	2210.9248	6451.25	5562.5
950.2822	2212.4109	6435.25	5545.65
950.4164	2213.8962	6428.8	5534.55
950.5505	2215.3809	6397.55	5501.25
950.6846	2216.8648	6404.65	5510.4
950.8186	2218.3479	6370.6	5470.2
950.9527	2219.8304	6331.55	5434.7
951.0867	2221.3121	6335.45	5440.25
951.2207	2222.7931	6305.25	5412.1
951.3546	2224.2733	6287.15	5394.7
951.4886	2225.7529	6252.9	5361.4
951.6225	2227.2317	6221.2	5330.9
951.7563	2228.7098	6223.15	5337.35
951.8902	2230.1872	6207.85	5320.1
952.024	2231.6638	6192.65	5304.65
952.1578	2233.1397	6168.35	5277.3
952.2916	2234.6149	6162.7	5274.75
952.4253	2236.0894	6117.6	5228.95
952.559	2237.5632	6125.15	5234.3
952.6927	2239.0362	6095.3	5206.45
952.8263	2240.5085	6093.95	5204.25
952.9599	2241.9801	6051.7	5161.55
953.0935	2243.4509	6046.15	5152.85
953.2271	2244.921	6022.4	5128.65
953.3606	2246.3904	6011.35	5116.05
953.4941	2247.8591	5989.5	5096.5
953.6276	2249.3271	5963.45	5073.5
953.7611	2250.7943	5950.3	5056.4
953.8945	2252.2608	5928.8	5036.15
954.0279	2253.7266	5909.9	5019.7
954.1612	2255.1917	5884.35	4995.35
954.2946	2256.656	5851.45	4960.35
954.4279	2258.1197	5853.35	4964.45
954.5612	2259.5826	5837.35	4945.45
954.6944	2261.0447	5844.5	4954.35
954.8276	2262.5062	5802.35	4909.9
954.9608	2263.9669	5812.35	4919.75
955.094	2265.4269	5797.85	4905.55
955.2271	2266.8862	5789.75	4900.45
955.3602	2268.3448	5754	4864.4
955.4933	2269.8026	5740.35	4851.25
955.6264	2271.2598	5717.6	4828.15
955.7594	2272.7162	5709.6	4821.15
955.8924	2274.1719	5693.95	4800.9
956.0253	2275.6268	5698.1	4804.5
956.1583	2277.0811	5678.35	4786
956.2912	2278.5346	5658.25	4768.1
956.4241	2279.9874	5659.95	4772.25
956.5569	2281.4395	5648.8	4759.85
956.6897	2282.8908	5626.65	4732.75
956.8225	2284.3414	5615.8	4722.2
956.9553	2285.7914	5589.85	4700.4
957.088	2287.2406	5583.55	4691.15
957.2207	2288.689	5557.3	4663.95
957.3534	2290.1368	5542.3	4646.15
957.486	2291.5838	5541.75	4647.25
957.6186	2293.0302	5519.2	4623.9
957.7512	2294.4758	5492.45	4601.55
957.8838	2295.9206	5477.3	4584.8
958.0163	2297.3648	5449.2	4557.55
958.1488	2298.8082	5449.7	4558.2
958.2813	2300.251	5441.9	4550.2
958.4137	2301.693	5428.15	4532.75
958.5461	2303.1343	5430.3	4537
958.6785	2304.5748	5388.1	4495.5
958.8108	2306.0147	5387.35	4498.7
958.9432	2307.4538	5359.3	4468.5
959.0754	2308.8922	5354	4467.3
959.2077	2310.3299	5324.4	4435.5
959.3399	2311.7669	5302.9	4414.95
959.4721	2313.2031	5299.3	4408.9
959.6043	2314.6387	5282.45	4389.75
959.7365	2316.0735	5250.3	4360.85
959.8686	2317.5076	5245.05	4354.25
960.0006	2318.941	5260.7	4368.5
960.1327	2320.3737	5213.9	4319.95
960.2647	2321.8056	5207.95	4311.9
960.3967	2323.2369	5185.15	4293.65
960.5287	2324.6674	5176.15	4282.25
960.6606	2326.0972	5162.1	4270.15
960.7925	2327.5263	5140.15	4249.4
960.9244	2328.9547	5124.55	4231.55
961.0562	2330.3823	5123.55	4232.2
961.1881	2331.8092	5150.6	4253.45
961.3198	2333.2355	5094.9	4202.35
961.4516	2334.661	5093.6	4200.55
961.5833	2336.0858	5076.5	4181
961.715	2337.5098	5065.5	4171.15
961.8467	2338.9332	5056.1	4161.45
961.9783	2340.3558	5046.4	4154.85
962.1099	2341.7778	5020	4130.1
962.2415	2343.199	5002.1	4110.5
962.373	2344.6195	4980.9	4090.1
962.5045	2346.0393	4971.9	4082.9
962.636	2347.4583	4956.2	4062.05
962.7675	2348.8767	4961.2	4068
962.8989	2350.2943	4933.4	4040.85
963.0303	2351.7113	4933.1	4040.4
963.1617	2353.1275	4931	4037.95
963.293	2354.543	4931.15	4014.4
963.4243	2355.9578	4895.35	4001.65
963.5556	2357.3718	4886.5	3997.85
963.6868	2358.7852	4851.6	3960.2
963.818	2360.1978	4841.65	3951.7
963.9492	2361.6098	4817.45	3927.6
964.0803	2363.021	4806.25	3913.05
964.2114	2364.4315	4812.1	3918.7
964.3425	2365.8413	4782.1	3889.8
964.4736	2367.2504	4748.5	3860.8
964.6046	2368.6587	4741.1	3854.15
964.7356	2370.0664	4723.4	3833.7
964.8666	2371.4733	4714.15	3825.5
964.9975	2372.8795	4720.15	3830.85
965.1284	2374.285	4675.2	3787.85
965.2593	2375.6899	4669.9	3781.75
965.3901	2377.0939	4662.05	3772.2
965.5209	2378.4973	4642.7	3752.1
965.6517	2379.9	4608.05	3716.55
965.7825	2381.3019	4592.05	3702.05
965.9132	2382.7032	4589	3699.95
966.0439	2384.1037	4576.5	3687.6
966.1745	2385.5035	4573.95	3686.8
966.3051	2386.9027	4560.45	3672.8
966.4357	2388.3011	4555.4	3664.9
966.5663	2389.6987	4523.45	3635.45
966.6968	2391.0957	4503.5	3616.65
966.8273	2392.492	4498.95	3610.45
966.9578	2393.8876	4480.3	3591.95
967.0882	2395.2824	4467.55	3578.75
967.2186	2396.6765	4439.35	3550.15
967.349	2398.07	4439.8	3551.85
967.4793	2399.4627	4419.95	3528.85
967.6097	2400.8547	4401.25	3509.7
967.7399	2402.246	4413.65	3517.4
967.8702	2403.6366	4379.95	3492.3
968.0004	2405.0265	4360	3472.15
968.1306	2406.4156	4353.9	3460.95
968.2607	2407.8041	4331.1	3437.25
968.3909	2409.1918	4332.6	3442.05
968.521	2410.5789	4303.1	3415.35
968.651	2411.9652	4294.05	3403.2
968.781	2413.3508	4279.4	3390.8
968.911	2414.7358	4270.05	3378.5
969.041	2416.12	4261.3	3373.95
969.1709	2417.5035	4261.35	3372.65
969.3008	2418.8863	4255.1	3365.3
969.4307	2420.2684	4221.15	3329.6
969.5606	2421.6497	4216.8	3325.45
969.6904	2423.0304	4196.75	3307.55
969.8201	2424.4104	4188.05	3297.5
969.9499	2425.7896	4163.65	3273
970.0796	2427.1682	4158.6	3268.1
970.2093	2428.546	4139.25	3250.95
970.3389	2429.9232	4146.45	3254.2
970.4685	2431.2996	4127.45	3238
970.5981	2432.6753	4127.65	3236
970.7277	2434.0503	4119.1	3227.8
970.8572	2435.4246	4090.1	3198.4
970.9867	2436.7982	4086	3195.95
971.1161	2438.1711	4087.45	3199.85
971.2456	2439.5433	4072.35	3181.35
971.375	2440.9148	4038.35	3143.45
971.5043	2442.2856	4042.4	3153.2
971.6336	2443.6557	4022	3131.9
971.7629	2445.025	4020.35	3131.5
971.8922	2446.3937	4002.9	3110.5
972.0214	2447.7617	4001	3108
972.1506	2449.1289	3989.35	3098.75
972.2798	2450.4955	3991.7	3100
972.4089	2451.8613	3974.2	3086.05
972.538	2453.2265	3966.15	3076.9
972.6671	2454.5909	3954.5	3062.9
972.7961	2455.9546	3947.85	3057.15
972.9251	2457.3177	3930.05	3041
973.0541	2458.68	3922.9	3033.95
973.1831	2460.0416	3925	3033.25
973.312	2461.4025	3917.25	3027.5
973.4408	2462.7627	3908.8	3007.15
973.5697	2464.1222	3893.25	3006.65
973.6985	2465.4811	3872.95	2984
973.8273	2466.8392	3867.45	2978.9
973.956	2468.1966	3870	2980.2
974.0847	2469.5533	3867.9	2974.05
974.2134	2470.9093	3855.5	2964.7
974.3421	2472.2645	3839.75	2948.7
974.4707	2473.6191	3822.65	2933.2
974.5993	2474.973	3812.8	2923.9
974.7278	2476.3262	3805.2	2912.45
974.8563	2477.6787	3786.05	2897
974.9848	2479.0305	3772	2883.05
975.1132	2480.3816	3762.5	2870.35
975.2417	2481.7319	3764.25	2876.55
975.37	2483.0816	3746.4	2853.3
975.4984	2484.4306	3724.25	2832.5
975.6267	2485.7789	3710.8	2820.55
975.755	2487.1264	3698.55	2806.65
975.8833	2488.4733	3693.6	2805.2
976.0115	2489.8195	3702.5	2795.45
976.1397	2491.165	3671.95	2777.75
976.2678	2492.5097	3659.25	2769.7
976.3959	2493.8538	3646.95	2757.4
976.524	2495.1972	3638.3	2749.1
976.6521	2496.5398	3624	2732.85
976.7801	2497.8818	3614.3	2721.5
976.9081	2499.2231	3611	2720.1
977.036	2500.5637	3598.65	2704.25
977.164	2501.9035	3593.55	2699.6
977.2918	2503.2427	3572.35	2678.95
977.4197	2504.5812	3569.25	2679.45
977.5475	2505.919	3574.15	2684.05
977.6753	2507.256	3565.35	2675.05
977.8031	2508.5924	3550.05	2660.2
977.9308	2509.9281	3535.4	2642.3
978.0585	2511.2631	3535.9	2646.5
978.1861	2512.5974	3512.35	2623.7
978.3137	2513.9309	3506.2	2615.5
978.4413	2515.2638	3519.05	2606.6
978.5689	2516.596	3489.1	2599.85
978.6964	2517.9275	3490.4	2599.2
978.8239	2519.2583	3484.65	2592.85
978.9513	2520.5884	3456.15	2565.35
979.0788	2521.9178	3447.55	2556.85
979.2062	2523.2465	3436.35	2546.55
979.3335	2524.5745	3415	2523.45
979.4608	2525.9018	3422.6	2531.45
979.5881	2527.2284	3413.3	2525.75
979.7154	2528.5543	3404.4	2513.6
979.8426	2529.8796	3388.2	2498.9
979.9698	2531.2041	3385.8	2494.8
980.0969	2532.5279	3392.8	2504.55
980.224	2533.851	3371.95	2481.9
980.3511	2535.1735	3370.4	2480.1
980.4781	2536.4952	3354.6	2465.2
980.6052	2537.8163	3361.15	2469.8
980.7321	2539.1366	3337.55	2446.75
980.8591	2540.4562	3341.95	2450.1
980.986	2541.7752	3343.25	2452.1
981.1129	2543.0935	3336.15	2445.85
981.2397	2544.411	3331.35	2439.65
981.3665	2545.7279	3309.4	2419.15
981.4933	2547.0441	3310.6	2419.95
981.62	2548.3596	3310.15	2418.35
981.7467	2549.6744	3294.8	2405.9
981.8734	2550.9885	3304.7	2412.25
982.0001	2552.3019	3279.35	2388.75
982.1267	2553.6146	3273.25	2383.9
982.2532	2554.9266	3254.85	2365.3
982.3798	2556.2379	3247.3	2356.35
982.5063	2557.5485	3244.2	2356.35
982.6327	2558.8585	3251.95	2355.55
982.7592	2560.1677	3251.4	2357.55
982.8856	2561.4762	3227.3	2336.1
983.0119	2562.7841	3241.6	2347.6
983.1383	2564.0913	3227.55	2339.1
983.2646	2565.3977	3210.75	2320.15
983.3908	2566.7035	3213.1	2323.25
983.517	2568.0086	3204	2311.05
983.6432	2569.313	3199.3	2306.95
983.7694	2570.6167	3186.5	2290.55
983.8955	2571.9197	3179.85	2288.35
984.0216	2573.222	3178.45	2284.85
984.1476	2574.5236	3165.5	2274.65
984.2737	2575.8246	3161.75	2267.45
984.3996	2577.1248	3162.05	2268
984.5256	2578.4244	3169.55	2277.95
984.6515	2579.7232	3163.9	2272.95
984.7774	2581.0214	3174.75	2255.85
984.9032	2582.3189	3151.65	2260.85
985.029	2583.6157	3148.5	2252.85
985.1548	2584.9118	3137.95	2246.35
985.2806	2586.2072	3132.1	2244.2
985.4063	2587.5019	3141.5	2249.25
985.5319	2588.7959	3127.3	2235.8
985.6576	2590.0893	3117.1	2223.95
985.7832	2591.3819	3126.75	2235.05
985.9087	2592.6739	3120.3	2230.25
986.0343	2593.9652	3107.95	2215.95
986.1597	2595.2557	3087.2	2195.75
986.2852	2596.5456	3091.65	2199.9
986.4106	2597.8348	3095.4	2205.4
986.536	2599.1234	3077.8	2186.8
986.6614	2600.4112	3060.5	2169.7
986.7867	2601.6983	3065.45	2171.1
986.912	2602.9848	3053.2	2163.65
987.0372	2604.2705	3061.85	2164.35
987.1624	2605.5556	3045.35	2155.4
987.2876	2606.84	3041.3	2151.6
987.4128	2608.1237	3027.85	2137.55
987.5379	2609.4067	3012.25	2121.1
987.6629	2610.689	3003.95	2104.15
987.788	2611.9707	2998.7	2103.5
987.913	2613.2516	2995.35	2098.55
988.0379	2614.5319	2983.7	2092.75
988.1629	2615.8115	2979.9	2087.75
988.2878	2617.0903	2970.55	2077.95
988.4126	2618.3685	2970.2	2080.85
988.5375	2619.6461	2948.85	2057.5
988.6622	2620.9229	2932.65	2041.35
988.787	2622.199	2951.8	2060.65
988.9117	2623.4745	2941.35	2048.75
989.0364	2624.7493	2933.3	2042.75
989.161	2626.0234	2922.7	2032.55
989.2857	2627.2968	2912.65	2022.05
989.4102	2628.5695	2911.3	2021.1
989.5348	2629.8415	2908	2019.1
989.6593	2631.1128	2895.55	2002.95
989.7837	2632.3835	2889.5	1999.1
989.9082	2633.6535	2879.95	1989.5
990.0326	2634.9228	2873.85	1983.2
990.1569	2636.1914	2870.2	1981.4
990.2812	2637.4593	2876.6	1983
990.4055	2638.7265	2852.65	1962.25
990.5298	2639.9931	2851.7	1961.85
990.654	2641.259	2845.15	1953.05
990.7782	2642.5242	2833.5	1942.55
990.9023	2643.7887	2824.45	1934.95
991.0264	2645.0525	2834.55	1944
991.1505	2646.3156	2821.65	1927.2
991.2745	2647.5781	2810.75	1920
991.3985	2648.8398	2788.75	1897.95
991.5225	2650.1009	2808.05	1894.8
991.6464	2651.3613	2795.25	1904.55
991.7703	2652.6211	2793.45	1903.35
991.8942	2653.8801	2775.8	1885.45
992.018	2655.1385	2777.4	1882.75
992.1418	2656.3961	2763.45	1872.3
992.2655	2657.6531	2755.9	1864.55
992.3892	2658.9094	2757.55	1868.1
992.5129	2660.1651	2752.05	1861.35
992.6366	2661.42	2754.65	1863.8
992.7602	2662.6743	2745.55	1855.85
992.8837	2663.9279	2752.8	1864.15
993.0073	2665.1808	2741.35	1849.6
993.1307	2666.433	2735.65	1846.2
993.2542	2667.6846	2725.85	1836.25
993.3776	2668.9354	2725.75	1833.55
993.501	2670.1856	2722.15	1830.4
993.6244	2671.4351	2724.55	1836.35
993.7477	2672.6839	2728.2	1837.55
993.8709	2673.9321	2720.3	1832.05
993.9942	2675.1795	2720.1	1831.05
994.1174	2676.4263	2708.75	1818.05
994.2405	2677.6724	2701.3	1811.15
994.3637	2678.9179	2711.75	1821.2
994.4868	2680.1626	2703.35	1814.45
994.6098	2681.4067	2706.65	1816.65
994.7328	2682.6501	2685.45	1794.25
994.8558	2683.8928	2690.45	1802.5
994.9788	2685.1348	2668.95	1780.45
995.1017	2686.3761	2666.75	1777.65
995.2245	2687.6168	2665.9	1775.6
995.3474	2688.8568	2665.95	1775.25
995.4702	2690.0961	2650.65	1762.55
995.5929	2691.3348	2642.4	1752.5
995.7156	2692.5727	2628.4	1739.55
995.8383	2693.81	2632.2	1741.9
995.961	2695.0466	2620.8	1732.25
996.0836	2696.2826	2615.6	1726.45
996.2062	2697.5178	2622.4	1731.55
996.3287	2698.7524	2601.9	1712.1
996.4512	2699.9863	2599.6	1707.55
996.5737	2701.2195	2604.3	1716.85
996.6961	2702.452	2604.4	1715.55
996.8185	2703.6839	2593.45	1705.2
996.9408	2704.9151	2589.55	1702.7
997.0631	2706.1456	2588.55	1697.1
997.1854	2707.3755	2588.95	1700.4
997.3077	2708.6046	2603.35	1712.8
997.4299	2709.8331	2596.6	1703.65
997.552	2711.0609	2597.2	1706.9
997.6742	2712.2881	2611.95	1721.45
997.7963	2713.5145	2609.95	1719.55
997.9183	2714.7403	2608.65	1719.35
998.0403	2715.9654	2613.4	1724.35
998.1623	2717.1899	2635.75	1731.4
998.2842	2718.4136	2619.9	1731
998.4062	2719.6367	2636.35	1749.5
998.528	2720.8591	2646.1	1748.45
998.6498	2722.0809	2647.8	1758.6
998.7716	2723.3019	2645.35	1754.1
998.8934	2724.5223	2661.55	1770.5
999.0151	2725.7421	2654.3	1764.55
999.1368	2726.9611	2650.65	1760.7
999.2584	2728.1795	2654.95	1761.05
999.38	2729.3972	2631.85	1743.7
999.5016	2730.6142	2630.3	1728.15
999.6231	2731.8306	2605	1713.95
999.7446	2733.0462	2584.95	1694.85
999.8661	2734.2612	2565.4	1673.45
999.9875	2735.4756	2540.15	1649.2
1000.1089	2736.6892	2519.5	1630.25
1000.2302	2737.9022	2499.9	1611.9
1000.3515	2739.1145	2483.3	1591.8
1000.4728	2740.3262	2455.1	1558.4
1000.594	2741.5372	2453.35	1564.85
1000.7152	2742.7475	2426.3	1537.15
1000.8363	2743.9571	2435.9	1546.25
1000.9575	2745.1661	2418.75	1524.2
1001.0785	2746.3744	2397.6	1507.3
1001.1996	2747.582	2381.5	1492.6
1001.3206	2748.7889	2372.1	1482.65
1001.4415	2749.9952	2352.4	1464.1
1001.5625	2751.2008	2347.7	1456.9
1001.6833	2752.4057	2343	1451.15
1001.8042	2753.61	2333.5	1444.05
1001.925	2754.8136	2338.3	1445.5
1002.0458	2756.0165	2322.65	1432.95
1002.1665	2757.2188	2329.3	1440.7
1002.2872	2758.4204	2311.35	1423.45
1002.4078	2759.6213	2301.65	1411.1
1002.5285	2760.8215	2316.95	1424.1
1002.649	2762.0211	2315.35	1423.15
1002.7696	2763.22	2299.4	1407.8
1002.8901	2764.4182	2292.65	1404.1
1003.0106	2765.6158	2279.55	1390.85
1003.131	2766.8127	2265.35	1375.9
1003.2514	2768.009	2271.2	1381
1003.3717	2769.2045	2268.15	1379.8
1003.492	2770.3994	2276.75	1384.5
1003.6123	2771.5936	2259.8	1370.65
1003.7325	2772.7872	2254.2	1365.05
1003.8527	2773.9801	2236.8	1348.9
1003.9729	2775.1723	2250.9	1348.05
1004.093	2776.3639	2240.45	1354.15
1004.2131	2777.5548	2235.55	1347.4
1004.3331	2778.745	2225.8	1336.9
1004.4531	2779.9346	2234.2	1346.95
1004.5731	2781.1235	2232.9	1344.15
1004.693	2782.3117	2232.15	1345.35
1004.8129	2783.4992	2225.35	1336.8
1004.9328	2784.6861	2226.2	1337.3
1005.0526	2785.8723	2234.4	1348.6
1005.1723	2787.0579	2221.45	1334.2
1005.2921	2788.2428	2235	1348.45
1005.4118	2789.427	2240.9	1354
1005.5314	2790.6106	2247.5	1360.9
1005.651	2791.7935	2252.2	1365.4
1005.7706	2792.9757	2254.95	1366.7
1005.8902	2794.1573	2274.65	1385.6
1006.0097	2795.3382	2273.25	1386.75
1006.1291	2796.5184	2291.5	1406.25
1006.2485	2797.698	2307.25	1418.6
1006.3679	2798.8769	2319.95	1432.1
1006.4873	2800.0551	2331.2	1443.3
1006.6066	2801.2327	2354	1466.3
1006.7258	2802.4096	2363.65	1477.45
1006.8451	2803.5859	2375.45	1486.75
1006.9642	2804.7615	2387.55	1502.25
1007.0834	2805.9364	2422.25	1535.45
1007.2025	2807.1106	2448.5	1562.75
1007.3216	2808.2842	2482.1	1595.1
1007.4406	2809.4572	2508.15	1620.35
1007.5596	2810.6294	2543.35	1654.75
1007.6785	2811.801	2571.1	1685.95
1007.7975	2812.972	2620.85	1732.35
1007.9163	2814.1423	2665.1	1779.95
1008.0352	2815.3119	2711.55	1823.5
1008.154	2816.4808	2750.7	1865.5
1008.2727	2817.6491	2793.6	1906.55
1008.3914	2818.8167	2854.4	1968.6
1008.5101	2819.9837	2892	2002.85
1008.6288	2821.15	2941.9	2054.05
1008.7474	2822.3157	2981	2095.5
1008.8659	2823.4807	3023.65	2135.9
1008.9844	2824.645	3077.85	2190.85
1009.1029	2825.8086	3097.1	2212.2
1009.2214	2826.9716	3147	2260.4
1009.3398	2828.134	3185.2	2299.35
1009.4581	2829.2957	3197.9	2309.7
1009.5764	2830.4567	3232.4	2345.6
1009.6947	2831.617	3250.7	2362.25
1009.813	2832.7767	3269.75	2383.25
1009.9312	2833.9358	3275.95	2390.3
1010.0493	2835.0941	3266.4	2377.55
1010.1675	2836.2519	3254.55	2367.65
1010.2855	2837.4089	3232.15	2345.3
1010.4036	2838.5653	3226.3	2339.7
1010.5216	2839.7211	3224.25	2339.4
1010.6396	2840.8761	3229.6	2341.85
1010.7575	2842.0306	3249.8	2364.8
1010.8754	2843.1843	3286.15	2400.25
1010.9932	2844.3374	3331.1	2442.7
1011.111	2845.4899	3393.25	2505.4
1011.2288	2846.6417	3470.35	2583.85
1011.3465	2847.7928	3537.05	2651.2
1011.4642	2848.9433	3620.15	2733.4
1011.5818	2850.0931	3701.55	2815.65
1011.6995	2851.2422	3790.2	2903.1
1011.817	2852.3907	3850.95	2963.3
1011.9345	2853.5385	3921.95	3034.4
1012.052	2854.6857	3989.15	3094.55
1012.1695	2855.8323	4021.4	3136.25
1012.2869	2856.9781	4069.55	3183.95
1012.4042	2858.1233	4107.4	3220.95
1012.5216	2859.2679	4148.5	3260.55
1012.6389	2860.4118	4213.15	3326.7
1012.7561	2861.555	4228.55	3337.5
1012.8733	2862.6976	4273	3384.45
1012.9905	2863.8395	4294.65	3408.25
1013.1076	2864.9808	4309.9	3424.2
1013.2247	2866.1214	4326.7	3443.6
1013.3417	2867.2614	4337.2	3450.4
1013.4587	2868.4007	4360.95	3475.1
1013.5757	2869.5393	4371.5	3481.35
1013.6926	2870.6773	4376.75	3488.4
1013.8095	2871.8146	4400.7	3511.45
1013.9263	2872.9513	4386.5	3496.95
1014.0431	2874.0874	4399.75	3512.9
1014.1599	2875.2227	4372.7	3484.4
1014.2766	2876.3574	4350.65	3463.05
1014.3933	2877.4915	4324.2	3439.8
1014.51	2878.6249	4298.6	3415.3
1014.6266	2879.7577	4265.8	3379.75
1014.7431	2880.8898	4253.75	3356.7
1014.8596	2882.0212	4224.05	3339.2
1014.9761	2883.152	4207.9	3320.15
1015.0925	2884.2821	4206.05	3322.65
1015.2089	2885.4116	4175.85	3291.25
1015.3253	2886.5405	4166.85	3279.35
1015.4416	2887.6686	4199	3310.55
1015.5579	2888.7962	4191.25	3306.15
1015.6741	2889.923	4199.05	3315.7
1015.7903	2891.0493	4207.25	3322.6
1015.9065	2892.1748	4199.1	3312.1
1016.0226	2893.2997	4229.6	3341.8
1016.1387	2894.424	4244.6	3360.5
1016.2547	2895.5476	4245.05	3359.35
1016.3707	2896.6706	4266	3381.2
1016.4866	2897.7929	4293.5	3408.75
1016.6025	2898.9145	4307.6	3420.9
1016.7184	2900.0355	4342.05	3458.35
1016.8342	2901.1559	4367.9	3481.55
1016.95	2902.2756	4406.65	3520
1017.0658	2903.3946	4463.4	3580.1
1017.1815	2904.513	4469.65	3582.5
1017.2971	2905.6308	4484.55	3601.95
1017.4127	2906.7479	4519.95	3634.2
1017.5283	2907.8643	4528.95	3643.35
1017.6439	2908.9801	4533.4	3647.75
1017.7594	2910.0953	4551.85	3667.35
1017.8748	2911.2098	4536.8	3649.3
1017.9902	2912.3236	4541.1	3645.85
1018.1056	2913.4368	4532.4	3645.2
1018.2209	2914.5494	4491.95	3607.35
1018.3362	2915.6613	4474.25	3585.6
1018.4515	2916.7725	4437.55	3547.35
1018.5667	2917.8831	4410.9	3524.7
1018.6819	2918.9931	4397.1	3509.75
1018.797	2920.1024	4349	3462.35
1018.9121	2921.211	4329.85	3443.95
1019.0271	2922.319	4297.15	3411.2
1019.1421	2923.4264	4290.2	3404.65
1019.2571	2924.5331	4267.2	3382.5
1019.372	2925.6391	4258.4	3371.8
1019.4869	2926.7445	4243.15	3360.6
1019.6017	2927.8493	4235.6	3350.25
1019.7165	2928.9534	4226.4	3343.55
1019.8313	2930.0569	4210.45	3323.15
1019.946	2931.1597	4215.15	3328.25
1020.0606	2932.2619	4196	3312.45
1020.1753	2933.3634	4195.55	3311.5
1020.2899	2934.4643	4167.6	3275.25
1020.4044	2935.5645	4150.9	3259.3
1020.5189	2936.6641	4123.65	3234.35
1020.6334	2937.763	4059.7	3175.55
1020.7478	2938.8613	4029.15	3143.6
1020.8622	2939.959	3951.75	3060.35
1020.9765	2941.056	3876.4	2991.2
1021.0908	2942.1523	3786.25	2900.2
1021.2051	2943.248	3678.55	2794.05
1021.3193	2944.3431	3599.15	2714.3
1021.4334	2945.4375	3496.25	2612.2
1021.5476	2946.5313	3386.95	2504.45
1021.6617	2947.6244	3278.75	2394.2
1021.7757	2948.7169	3169	2283.6
1021.8897	2949.8087	3076.6	2192.1
1022.0037	2950.8999	2978.15	2091.7
1022.1176	2951.9904	2896.65	2013
1022.2315	2953.0803	2819.5	1932.35
1022.3453	2954.1696	2755.9	1869.5
1022.4591	2955.2582	2702.45	1818.9
1022.5728	2956.3462	2648.05	1766.65
1022.6865	2957.4335	2613.75	1727.1
1022.8002	2958.5202	2563	1676.1
1022.9138	2959.6062	2544.65	1660.85
1023.0274	2960.6916	2505	1622.3
1023.141	2961.7764	2479.45	1594.75
1023.2545	2962.8605	2475.85	1593.15
1023.3679	2963.9439	2462.25	1577.2
1023.4813	2965.0267	2441.7	1556.9
1023.5947	2966.1089	2461.45	1553.15
1023.708	2967.1905	2425.8	1539.05
1023.8213	2968.2714	2427.05	1543.45
1023.9346	2969.3516	2417.4	1534.45
1024.0478	2970.4312	2435.95	1545.3
1024.1609	2971.5102	2417.85	1534.75
1024.274	2972.5885	2409.7	1527.55
1024.3871	2973.6662	2427.6	1538.25
1024.5002	2974.7432	2399.15	1516.2
1024.6132	2975.8196	2397.95	1511.65
1024.7261	2976.8954	2380.85	1496.65
1024.839	2977.9705	2369.2	1485.9
1024.9519	2979.045	2354.1	1469.85
1025.0647	2980.1188	2347.85	1463.5
1025.1775	2981.192	2306.05	1422.95
1025.2902	2982.2645	2295.35	1411.5
1025.4029	2983.3364	2268.9	1385.05
1025.5156	2984.4077	2241.9	1357.45
1025.6282	2985.4783	2206.45	1317.45
1025.7407	2986.5483	2174.65	1292
1025.8532	2987.6177	2127.4	1243.4
1025.9657	2988.6864	2106.25	1220.35
1026.0782	2989.7545	2079	1193.55
1026.1906	2990.8219	2028.95	1146.3
1026.3029	2991.8887	1992.95	1108.5
1026.4152	2992.9548	1966.4	1081.95
1026.5275	2994.0204	1928.6	1044.8
1026.6397	2995.0852	1901.5	1021
1026.7519	2996.1495	1883.95	998.35
1026.864	2997.2131	1846.2	961.95
1026.9761	2998.276	1824.15	938.85
1027.0882	2999.3383	1810.25	925.8
1027.2002	3000.4	1791.55	906.8
1027.3122	3001.4611	1768.3	883.65
1027.4241	3002.5215	1760.55	874.8
1027.536	3003.5812	1733.85	851.05
1027.6478	3004.6404	1721.4	837.8
1027.7596	3005.6989	1714.85	829.8
1027.8714	3006.7567	1699.1	814.4
1027.9831	3007.8139	1712.15	808.55
1028.0947	3008.8705	1695.1	810.3
1028.2064	3009.9264	1689.55	789.05
1028.3179	3010.9818	1680.55	795.75
1028.4295	3012.0364	1673.7	787.95
1028.541	3013.0905	1672.1	788.95
1028.6524	3014.1439	1673.25	788.05
1028.7638	3015.1966	1666.3	784.45
1028.8752	3016.2487	1658.5	774.85
1028.9865	3017.3002	1664.3	771.45
1029.0978	3018.3511	1644.15	759.65
1029.209	3019.4013	1654.2	771.1
1029.3202	3020.4509	1654.3	770.15
1029.4314	3021.4998	1647.35	764.25
1029.5425	3022.5481	1648.85	765.2
1029.6535	3023.5958	1666.55	785.75
1029.7645	3024.6428	1658.6	772.95
1029.8755	3025.6892	1654.3	769.55
1029.9864	3026.735	1650.4	766.05
1030.0973	3027.7802	1653.1	768.05
1030.2082	3028.8247	1658.4	775.2
1030.319	3029.8685	1653.9	768.55
1030.4297	3030.9118	1668.7	783.05
1030.5404	3031.9544	1662.85	781.6
1030.6511	3032.9963	1670.95	786.5
1030.7617	3034.0376	1664.25	782.45
1030.8723	3035.0783	1671.85	786.8
1030.9829	3036.1184	1673	788.05
1031.0934	3037.1578	1671	787.3
1031.2038	3038.1966	1682.65	799.05
1031.3142	3039.2348	1681.75	801.55
1031.4246	3040.2723	1692.1	799.35
1031.5349	3041.3092	1679.1	795.45
1031.6452	3042.3455	1671.2	788.1
1031.7554	3043.3811	1661.95	779.1
1031.8656	3044.4161	1649.55	766.85
1031.9758	3045.4505	1654.95	771.3
1032.0859	3046.4842	1648.4	764.2
1032.1959	3047.5173	1644.05	762.35
1032.3059	3048.5498	1635.3	752.15
1032.4159	3049.5816	1623.6	738.55
1032.5258	3050.6128	1621.2	735.95
1032.6357	3051.6434	1610.2	723.2
1032.7455	3052.6734	1599.65	715.05
1032.8553	3053.7027	1594.8	711.55
1032.9651	3054.7314	1586.9	705.8
1033.0748	3055.7594	1581.45	698.45
1033.1845	3056.7868	1577.9	694.15
1033.2941	3057.8136	1568.85	686.65
1033.4037	3058.8398	1558.25	675.1
1033.5132	3059.8653	1554.7	670.35
1033.6227	3060.8902	1544.15	659.55
1033.7321	3061.9145	1534.55	649.85
1033.8415	3062.9381	1536.15	652.5
1033.9509	3063.9612	1543.8	643.8
1034.0602	3064.9835	1523.5	639.85
1034.1694	3066.0053	1513	629.65
1034.2787	3067.0264	1505.9	623.3
1034.3878	3068.0469	1501.8	617.8
1034.497	3069.0668	1491.75	604.85
1034.6061	3070.086	1478.45	595.6
1034.7151	3071.1046	1467.1	580.9
1034.8241	3072.1226	1459.7	575.2
1034.9331	3073.1399	1443.6	560.15
1035.042	3074.1567	1433.6	549.8
1035.1508	3075.1727	1424.65	541.35
1035.2597	3076.1882	1415.65	535.3
1035.3684	3077.203	1410.3	526.95
1035.4772	3078.2173	1403.8	519.85
1035.5859	3079.2308	1396.05	508.75
1035.6945	3080.2438	1384.6	499.2
1035.8031	3081.2561	1367.2	483.25
1035.9117	3082.2678	1358.85	473.35
1036.0202	3083.2789	1354.35	471.55
1036.1286	3084.2893	1347.15	465.3
1036.2371	3085.2991	1344.55	460.15
1036.3454	3086.3083	1338.6	451.1
1036.4538	3087.3169	1333.9	450.1
1036.562	3088.3248	1323.8	438.65
1036.6703	3089.3321	1317.75	433.8
1036.7785	3090.3388	1309.75	429.55
1036.8866	3091.3449	1300.6	416.9
1036.9948	3092.3503	1310.5	424.7
1037.1028	3093.3551	1296.4	413.45
1037.2108	3094.3593	1299.35	418.25
1037.3188	3095.3629	1292.8	411.4
1037.4267	3096.3658	1288	402.85
1037.5346	3097.3681	1283.65	399.6
1037.6425	3098.3698	1276.5	391.15
1037.7503	3099.3708	1275.55	386.6
1037.858	3100.3713	1273.35	391
1037.9657	3101.3711	1266.4	384
1038.0734	3102.3702	1392.2	373.2
1038.181	3103.3688	1268.05	384.7
1038.2886	3104.3667	1255.05	374
1038.3961	3105.364	1242.75	361.85
1038.5036	3106.3607	1253.05	367.15
1038.611	3107.3568	1254.4	371.25
1038.7184	3108.3522	1244.2	364.15
1038.8257	3109.347	1240.2	355.05
1038.933	3110.3412	1246.4	357.2
1039.0403	3111.3348	1236.4	354
1039.1475	3112.3277	1234.55	351.85
1039.2547	3113.32	1226.45	345.25
1039.3618	3114.3117	1230.75	346.65
1039.4689	3115.3028	1232.2	350.6
1039.5759	3116.2932	1228.35	344.05
1039.6829	3117.2831	1231.35	342.55
1039.7898	3118.2723	1223.2	341.5
1039.8967	3119.2608	1215.5	332.7
1040.0035	3120.2488	1216.85	332.85
1040.1103	3121.2361	1216.35	333.6
1040.2171	3122.2229	1213.4	330.1
1040.3238	3123.209	1213.85	330
1040.4305	3124.1944	1205.15	323.4
1040.5371	3125.1793	1209.45	324.7
1040.6437	3126.1635	1204.5	322
1040.7502	3127.1471	1201.75	319.25
1040.8567	3128.1301	1200.95	317.9
1040.9631	3129.1125	1201.1	317.4
1041.0695	3130.0942	1189.8	309.3
1041.1759	3131.0753	1207.35	316.45
1041.2822	3132.0558	1197.3	312.6
1041.3884	3133.0357	1195.25	311.6
1041.4946	3134.015	1190	308.65
1041.6008	3134.9936	1183.4	298.85
1041.7069	3135.9716	1203.3	301.4
1041.813	3136.949	1183.15	300.8
1041.919	3137.9258	1195.8	295.55
1042.025	3138.902	1182.1	294.25
1042.1309	3139.8775	1176.8	295.8
1042.2368	3140.8524	1177.6	295.4
1042.3427	3141.8267	1178.8	296.3
1042.4485	3142.8004	1170.65	286
1042.5542	3143.7735	1176.9	287.4
1042.6599	3144.7459	1172.15	285.9
1042.7656	3145.7178	1168.9	285.2
1042.8712	3146.689	1162.45	280.25
1042.9768	3147.6596	1173.1	289.25
1043.0823	3148.6295	1161	278.2
1043.1878	3149.5989	1160.95	277.6
1043.2932	3150.5676	1155.35	273.3
1043.3986	3151.5357	1152.65	271.6
1043.5039	3152.5032	1156.95	274.05
1043.6092	3153.4701	1153.2	271.7
1043.7145	3154.4364	1155.8	271.25
1043.8197	3155.402	1150.5	270.05
1043.9248	3156.367	1149.95	266.4
1044.03	3157.3315	1174.9	265.4
1044.135	3158.2952	1146	262.05
1044.24	3159.2584	1140.7	257.55
1044.345	3160.221	1135.65	253.25
1044.4499	3161.1829	1136.85	255.1
1044.5548	3162.1442	1140.45	259.05
1044.6596	3163.105	1135.5	252.15
1044.7644	3164.065	1136.65	253.45
1044.8692	3165.0245	1134.85	248.5
1044.9739	3165.9834	1132.35	250.1
1045.0785	3166.9416	1129.45	246.05
1045.1831	3167.8993	1128.4	245.15
1045.2877	3168.8563	1125.5	244.25
1045.3922	3169.8127	1123.25	240.2
1045.4966	3170.7684	1123	241.05
1045.6011	3171.7236	1126.85	245
1045.7054	3172.6782	1120.35	236.65
1045.8098	3173.6321	1118.6	235.35
1045.914	3174.5854	1120.7	236.15
1046.0183	3175.5381	1118.2	234.1
1046.1224	3176.4902	1111.35	228.4
1046.2266	3177.4417	1112.1	230.45
1046.3307	3178.3926	1114.4	235.45
1046.4347	3179.3428	1110.5	230.15
1046.5387	3180.2924	1107	224.8
1046.6427	3181.2415	1107.15	227.45
1046.7466	3182.1899	1111.15	225.3
1046.8504	3183.1377	1105.55	224.4
1046.9542	3184.0848	1103.8	218.25
1047.058	3185.0314	1105.55	222.45
1047.1617	3185.9773	1105.2	222.9
1047.2654	3186.9227	1103.6	221.5
1047.369	3187.8674	1102.95	221.9
1047.4726	3188.8115	1107.55	222
1047.5761	3189.755	1096.85	216.9
1047.6796	3190.6979	1095.35	214.15
1047.783	3191.6402	1097.45	216.85
1047.8864	3192.5818	1092	210.25
1047.9898	3193.5229	1103.2	212.95
1048.0931	3194.4633	1096.05	212.2
1048.1963	3195.4031	1086.85	204.35
1048.2995	3196.3423	1088.25	205.55
1048.4027	3197.2809	1086.05	203.45
1048.5058	3198.2189	1092.6	210.05
1048.6089	3199.1563	1093.55	204.75
1048.7119	3200.0931	1081.9	200.95
1048.8148	3201.0292	1080.7	200.9
1048.9178	3201.9648	1077.95	198.15
1049.0206	3202.8997	1085.55	198.25
1049.1235	3203.834	1083.45	201
1049.2262	3204.7677	1078.6	197.15
1049.329	3205.7008	1083.1	199.05
1049.4317	3206.6333	1075.5	195.25
1049.5343	3207.5652	1076.8	193.8
1049.6369	3208.4964	1076.7	195.45
1049.7394	3209.4271	1072.8	191.35
1049.8419	3210.3571	1076.25	194.65
1049.9444	3211.2865	1073.9	191.4
1050.0468	3212.2154	1075.75	194.05
1050.1491	3213.1436	1075.45	192.1
1050.2514	3214.0712	1077.9	190.75
1050.3537	3214.9982	1069.4	189.2
1050.4559	3215.9246	1069.1	187.2
1050.5581	3216.8503	1066.1	185.75
1050.6602	3217.7755	1065.1	182.55
1050.7623	3218.7001	1065.9	183.9
1050.8643	3219.624	1064	182.4
1050.9663	3220.5473	1059.95	178.35
1051.0682	3221.4701	1062.4	178.75
1051.1701	3222.3922	1061.55	178.7
1051.2719	3223.3137	1059.2	178.9
1051.3737	3224.2346	1062.45	180.4
1051.4754	3225.1549	1060.95	177.75
1051.5771	3226.0746	1056.3	175.4
1051.6788	3226.9937	1054.05	170.55
1051.7804	3227.9121	1053.15	173.1
1051.8819	3228.83	1052.05	168.85
1051.9834	3229.7473	1050.1	169.3
1052.0849	3230.6639	1055.1	172.7
1052.1863	3231.5799	1051.4	168.9
1052.2876	3232.4954	1053.7	172.65
1052.3889	3233.4102	1050	167.05
1052.4902	3234.3244	1051.25	169.25
1052.5914	3235.238	1051.85	171.6
1052.6926	3236.151	1076.65	169.4
1052.7937	3237.0634	1050.85	169.95
1052.8948	3237.9752	1049.95	169.45
1052.9958	3238.8864	1041.9	159.3
1053.0968	3239.797	1042.15	161.9
1053.1977	3240.7069	1042.35	159.6
1053.2986	3241.6163	1045.75	162.75
1053.3994	3242.5251	1040.65	161.2
1053.5002	3243.4332	1040.65	161.05
1053.6009	3244.3408	1041.05	157.9
1053.7016	3245.2477	1038.3	154.85
1053.8022	3246.154	1039.6	158.05
1053.9028	3247.0598	1034.85	152.25
1054.0034	3247.9649	1031.15	149.4
1054.1039	3248.8694	1037.55	157.95
1054.2043	3249.7733	1032.35	150.25
1054.3047	3250.6766	1032.5	152.8
1054.4051	3251.5793	1034.15	151.8
1054.5054	3252.4814	1028.1	147.7
1054.6056	3253.3829	1027.3	145.4
1054.7058	3254.2838	1026.75	145.1
1054.806	3255.1841	1025.25	143.75
1054.9061	3256.0838	1025.85	143.95
1055.0061	3256.9829	1021.9	140.6
1055.1062	3257.8814	1025.45	142.1
1055.2061	3258.7792	1025.8	140.9
1055.306	3259.6765	1024.1	142.8
1055.4059	3260.5731	1019.35	139.75
1055.5057	3261.4692	1012.15	128.45
1055.6055	3262.3647	1016.2	134.15
1055.7052	3263.2595	1013.6	133.9
1055.8049	3264.1538	1012.7	131.1
1055.9045	3265.0474	1014	131.4
1056.0041	3265.9404	1005.3	123.25
1056.1036	3266.8329	1003.75	122.05
1056.2031	3267.7247	1013.6	121.5
1056.3025	3268.616	999.55	118.65
1056.4019	3269.5066	998.2	116.15
1056.5013	3270.3966	993.65	111.45
1056.6005	3271.286	985.8	105.95
