Software Version:	3.9.2.0
Unit SN:	10000200
Spectrometer SN:	6960
Date:	3/26/2024 2:26:14 PM
Data Line Index:	25
Spectral Points:	2048
Integration time (ms):	125
Averages:	20
Delay (ms):	30000
Sequence Number:	1
Processing:	dark subtract
Laser Power (mW):	305
Laser Current (mA):	820
Laser Diode Temp (C):	25
Laser Case Temp (C):	27.7
System Temp (C):	27.7
Spectrometer Temp (C):	25.6
CCD Temp (C):	0.001
Secondary Temp (C):	20.007
Heatsink Temp (C):	23.392
CCDPCB Temp (C):	37.352
SecondaryPCB Temp (C):	34.617

Wavelength	RamanShift	Raw Counts	Dark Subtracted
787.061	30.1047	668.95	257.75
787.2016	32.3739	678.75	270.7
787.3422	34.6426	696.45	284.5
787.4828	36.9109	719	306.05
787.6235	39.1787	737.7	321.95
787.7642	41.4461	767.4	344.5
787.9049	43.7131	795.35	371.9
788.0456	45.9796	816.1	388.25
788.1863	48.2456	848.05	416.5
788.3271	50.5112	873.9	438.3
788.4679	52.7764	903.35	465.1
788.6087	55.0411	936.55	493.95
788.7496	57.3054	972.8	526.65
788.8904	59.5692	1012.35	564.95
789.0313	61.8326	1046.15	593.9
789.1722	64.0955	1093.3	636.6
789.3132	66.3579	1140.65	677.85
789.4541	68.6199	1207.35	742.6
789.5951	70.8815	1315.35	847.7
789.7361	73.1426	1535.7	1063.2
789.8771	75.4032	2078.45	1600.25
790.0181	77.6634	3471.45	2987.9
790.1592	79.9231	6921.9	6428.35
790.3003	82.1824	14946.75	14436.15
790.4414	84.4412	35424.6	34878.3
790.5825	86.6995	62920.7	62326.65
790.7237	88.9574	65535	64898.65
790.8648	91.2148	65535	64871.35
791.006	93.4717	65535	64844.8
791.1472	95.7282	65535	64834.45
791.2885	97.9842	65535	64828
791.4297	100.2398	65535	64831.1
791.571	102.4949	65535	64821.3
791.7123	104.7495	65535	64823.6
791.8536	107.0036	65535	64825.35
791.9949	109.2573	65535	64827.8
792.1363	111.5105	65535	64820.45
792.2777	113.7632	65535	64821.2
792.4191	116.0154	65535	64811.45
792.5605	118.2672	65535	64810.45
792.7019	120.5185	65535	64817.05
792.8434	122.7693	65535	64815.2
792.9849	125.0197	65535	64809.05
793.1264	127.2696	65535	64809.95
793.2679	129.519	65535	64799.45
793.4094	131.7679	65535	64798.35
793.551	134.0163	65535	64791.1
793.6926	136.2642	65535	64787.9
793.8342	138.5117	65535	64786.85
793.9758	140.7587	65535	64789.15
794.1175	143.0052	65535	64782.95
794.2591	145.2512	65535	64788.05
794.4008	147.4967	65535	64788
794.5425	149.7417	65535	64783.1
794.6842	151.9863	65535	64783.1
794.826	154.2304	65535	64772.85
794.9677	156.4739	65535	64771.4
795.1095	158.717	65535	64771.55
795.2513	160.9596	65535	64764.65
795.3931	163.2017	65535	64761.9
795.535	165.4433	65535	64760.15
795.6768	167.6844	65535	64760.4
795.8187	169.925	65535	64760.4
795.9606	172.1651	65535	64762.45
796.1025	174.4047	65535	64754.65
796.2445	176.6439	65535	64752.2
796.3864	178.8825	65535	64751.4
796.5284	181.1206	65535	64740.25
796.6704	183.3582	65535	64735.2
796.8124	185.5954	65535	64742.65
796.9544	187.832	65535	64739.05
797.0965	190.0681	65535	64735.05
797.2386	192.3037	65535	64731.15
797.3806	194.5388	65535	64727.75
797.5228	196.7734	65535	64726.95
797.6649	199.0075	65535	64717.7
797.807	201.2411	65535	64722
797.9492	203.4742	65535	64718.6
798.0914	205.7068	65535	64716.9
798.2336	207.9389	65535	64715.65
798.3758	210.1704	65535	64714.8
798.518	212.4015	65535	64714.75
798.6603	214.632	65535	64711.95
798.8025	216.862	65535	64724.3
798.9448	219.0915	65535	64727.35
799.0871	221.3205	65535	64729.05
799.2294	223.549	65535	64735.3
799.3718	225.777	65535	64735.55
799.5141	228.0044	65535	64732.45
799.6565	230.2314	65535	64734.3
799.7989	232.4578	65535	64732.05
799.9413	234.6837	65535	64726.85
800.0837	236.909	65535	64721.95
800.2262	239.1339	65535	64697.7
800.3687	241.3582	65535	64712.05
800.5111	243.582	65535	64679.85
800.6536	245.8053	65535	64695.2
800.7961	248.0281	65535	64697.65
800.9387	250.2503	65535	64696.5
801.0812	252.472	65535	64687.95
801.2238	254.6932	65535	64690.6
801.3664	256.9139	65535	64686.9
801.509	259.134	65535	64685.15
801.6516	261.3536	65535	64686.4
801.7942	263.5727	65535	64683.95
801.9369	265.7912	65535	64688.45
802.0795	268.0092	65535	64685.35
802.2222	270.2267	65535	64684.3
802.3649	272.4436	65535	64681.05
802.5076	274.6601	65535	64673.8
802.6504	276.8759	65535	64684.3
802.7931	279.0913	65535	64677.25
802.9359	281.3061	65535	64676.25
803.0787	283.5204	65535	64669.9
803.2215	285.7341	65535	64666.3
803.3643	287.9473	65535	64653.8
803.5071	290.16	65535	64663.85
803.6499	292.3721	65535	64669.35
803.7928	294.5837	65535	64669.15
803.9357	296.7947	65535	64673.1
804.0786	299.0052	65535	64670.25
804.2215	301.2152	65535	64667
804.3644	303.4246	65535	64674.3
804.5074	305.6334	65535	64674.7
804.6503	307.8418	65535	64667.25
804.7933	310.0495	65535	64665.3
804.9363	312.2568	65535	64665.1
805.0793	314.4635	65535	64662.3
805.2223	316.6696	65535	64663.7
805.3653	318.8752	65535	64654.2
805.5084	321.0802	65535	64659.35
805.6514	323.2847	65535	64651.6
805.7945	325.4887	65535	64660.25
805.9376	327.692	65535	64654.75
806.0807	329.8949	65535	64657.4
806.2238	332.0972	65535	64657.35
806.367	334.2989	65535	64648.8
806.5101	336.5001	65535	64650.3
806.6533	338.7007	65535	64650.4
806.7965	340.9008	65535	64651.8
806.9397	343.1003	65535	64652.1
807.0829	345.2992	65535	64651.6
807.2261	347.4976	65535	64648.75
807.3693	349.6955	65535	64646.1
807.5126	351.8927	65535	64641.75
807.6559	354.0895	65535	64632.95
807.7991	356.2856	65535	64640.6
807.9424	358.4812	65535	64647.2
808.0857	360.6763	65535	64642.25
808.2291	362.8707	65535	64637.9
808.3724	365.0646	65535	64633.6
808.5158	367.258	65535	64635.4
808.6591	369.4508	65535	64637.2
808.8025	371.643	65535	64631.55
808.9459	373.8346	65535	64631.2
809.0893	376.0257	65535	64631.8
809.2327	378.2162	65535	64628
809.3762	380.4062	65535	64626.3
809.5196	382.5956	65535	64631.65
809.6631	384.7844	65535	64628.15
809.8066	386.9726	65535	64631.85
809.9501	389.1603	65535	64626.1
810.0936	391.3474	65535	64599.2
810.2371	393.5339	65535	64631.45
810.3806	395.7199	65535	64637.8
810.5241	397.9052	65535	64640.55
810.6677	400.09	65535	64644.2
810.8113	402.2743	65535	64640.2
810.9548	404.4579	65535	64637
811.0984	406.641	65535	64637.75
811.2421	408.8235	65535	64639.95
811.3857	411.0054	65535	64636.35
811.5293	413.1868	65535	64633.5
811.673	415.3675	65535	64629.9
811.8166	417.5477	65535	64624.1
811.9603	419.7273	65535	64630.75
812.104	421.9064	65535	64623.1
812.2477	424.0848	65535	64625.2
812.3914	426.2627	65535	64630.6
812.5351	428.4399	65535	64625.15
812.6788	430.6166	65535	64617.25
812.8226	432.7928	65535	64618.6
812.9663	434.9683	65535	64623.4
813.1101	437.1432	65535	64621.75
813.2539	439.3176	65535	64628.45
813.3977	441.4914	65535	64632.65
813.5415	443.6645	65535	64627.4
813.6853	445.8371	65535	64625
813.8291	448.0091	65535	64623.5
813.973	450.1806	65535	64623.6
814.1168	452.3514	65535	64628.9
814.2607	454.5216	65535	64618.45
814.4046	456.6913	65535	64623.15
814.5485	458.8603	65535	64627.45
814.6924	461.0288	65535	64627.3
814.8363	463.1967	65535	64629.25
814.9802	465.3639	65535	64623.4
815.1241	467.5306	65535	64624.3
815.2681	469.6967	65535	64628.7
815.412	471.8622	65535	64627.5
815.556	474.0271	65535	64630
815.7	476.1914	65535	64620.9
815.844	478.3551	65535	64622.9
815.988	480.5182	65535	64624.55
816.132	482.6807	65535	64627.85
816.276	484.8426	65535	64635.6
816.4201	487.0039	65535	64635.45
816.5641	489.1647	65535	64623.5
816.7082	491.3248	65535	64619.65
816.8522	493.4843	65535	64627.5
816.9963	495.6432	65535	64624.05
817.1404	497.8015	65535	64616.2
817.2845	499.9592	65535	64615.2
817.4286	502.1163	65535	64612.15
817.5727	504.2728	65535	64621.3
817.7168	506.4287	65535	64629.9
817.861	508.5839	65535	64628.9
818.0051	510.7386	65535	64620.15
818.1493	512.8927	65535	64613.4
818.2935	515.0461	65535	64614.65
818.4377	517.199	65535	64612.9
818.5818	519.3512	65535	64615.55
818.726	521.5029	65535	64611.7
818.8703	523.6539	65535	64615.75
819.0145	525.8043	65535	64612.55
819.1587	527.9541	65535	64609.95
819.303	530.1033	65535	64612.4
819.4472	532.2519	65535	64613.6
819.5915	534.3999	65535	64608.3
819.7357	536.5472	65535	64611.05
819.88	538.694	65535	64618.8
820.0243	540.8401	65535	64610.25
820.1686	542.9856	65535	64601.8
820.3129	545.1305	65535	64594.15
820.4572	547.2748	65535	64595.55
820.6016	549.4185	65535	64594.1
820.7459	551.5615	65535	64597.7
820.8902	553.704	65535	64600.45
821.0346	555.8458	65535	64599.4
821.1789	557.987	65535	64607.3
821.3233	560.1276	65535	64602.15
821.4677	562.2675	65535	64605.4
821.6121	564.4069	65535	64601
821.7565	566.5456	65535	64611.3
821.9009	568.6837	65535	64608
822.0453	570.8212	65535	64609.1
822.1897	572.958	65535	64606.4
822.3342	575.0942	65535	64613.5
822.4786	577.2299	65535	64615.25
822.6231	579.3648	65535	64623.45
822.7675	581.4992	65535	64632.35
822.912	583.6329	65535	64631.75
823.0565	585.766	65535	64622.15
823.201	587.8985	65535	64623.25
823.3454	590.0304	65535	64586.75
823.4899	592.1616	65535	64602.35
823.6345	594.2922	65535	64598.75
823.779	596.4222	65535	64601.7
823.9235	598.5515	65535	64600.4
824.068	600.6802	65535	64603.2
824.2126	602.8083	65535	64608.1
824.3571	604.9358	65535	64603.1
824.5017	607.0626	65535	64599.4
824.6462	609.1888	65535	64592.2
824.7908	611.3144	65535	64594.85
824.9354	613.4393	65535	64592.7
825.08	615.5636	65535	64596.9
825.2246	617.6873	65535	64595.95
825.3692	619.8103	65535	64595.8
825.5138	621.9327	65535	64596.2
825.6584	624.0544	65535	64600.5
825.803	626.1756	65535	64604.75
825.9477	628.2961	65535	64595.75
826.0923	630.4159	65535	64599.8
826.237	632.5351	65535	64597.3
826.3816	634.6537	65535	64596.35
826.5263	636.7716	65535	64591.05
826.6709	638.8889	65535	64592.35
826.8156	641.0056	65535	64584.3
826.9603	643.1216	65535	64589.3
827.105	645.237	65535	64589.8
827.2497	647.3518	65535	64600.3
827.3944	649.4659	65535	64601.55
827.5391	651.5793	65535	64598.1
827.6838	653.6922	65535	64601.4
827.8285	655.8043	65535	64599.95
827.9733	657.9159	65535	64602.7
828.118	660.0268	65535	64594.75
828.2627	662.137	65535	64597
828.4075	664.2466	65535	64589.2
828.5522	666.3556	65535	64593.9
828.697	668.4639	65535	64598.05
828.8418	670.5716	65535	64601.1
828.9865	672.6786	65535	64591.85
829.1313	674.785	65535	64594.45
829.2761	676.8907	65535	64594.05
829.4209	678.9958	65535	64596.5
829.5657	681.1002	65535	64594.55
829.7105	683.204	65535	64583.7
829.8553	685.3072	65535	64588.05
830.0001	687.4097	65535	64590.8
830.1449	689.5115	65535	64588.7
830.2898	691.6127	65535	64593.65
830.4346	693.7132	65535	64599
830.5794	695.8131	65535	64570.95
830.7243	697.9123	65535	64587.3
830.8691	700.0109	65535	64583.65
831.014	702.1089	65535	64589.45
831.1588	704.2061	65535	64593.8
831.3037	706.3028	65535	64588.5
831.4486	708.3987	65535	64588.65
831.5935	710.4941	65535	64592.2
831.7383	712.5887	65535	64589.95
831.8832	714.6827	65535	64587.95
832.0281	716.7761	65535	64596.8
832.173	718.8688	65535	64590.95
832.3179	720.9608	65535	64583.45
832.4628	723.0522	65535	64580.1
832.6077	725.1429	65535	64583.75
832.7527	727.233	65535	64590.95
832.8976	729.3224	65535	64588.45
833.0425	731.4112	65535	64589.65
833.1874	733.4993	65535	64583.5
833.3324	735.5867	65535	64583.25
833.4773	737.6735	65535	64584.3
833.6222	739.7596	65535	64583.6
833.7672	741.845	65535	64585.95
833.9122	743.9298	65535	64587.35
834.0571	746.014	65535	64582.9
834.2021	748.0974	65535	64583.15
834.347	750.1802	65535	64581.1
834.492	752.2624	65535	64581.55
834.637	754.3439	65535	64582.5
834.782	756.4247	65535	64573.5
834.9269	758.5048	65535	64582.5
835.0719	760.5843	65535	64582.25
835.2169	762.6631	65535	64582.95
835.3619	764.7413	65535	64585.3
835.5069	766.8188	65535	64579.2
835.6519	768.8956	65535	64580.95
835.7969	770.9718	65535	64586.95
835.9419	773.0473	65535	64582.8
836.0869	775.1221	65535	64584.45
836.232	777.1962	65535	64580.2
836.377	779.2697	65535	64577.2
836.522	781.3426	65535	64563.1
836.667	783.4147	65535	64581.75
836.8121	785.4862	65535	64584.1
836.9571	787.557	65535	64580.85
837.1021	789.6271	65535	64581.45
837.2472	791.6966	65535	64582.1
837.3922	793.7654	65535	64578.25
837.5373	795.8335	65535	64582.45
837.6823	797.901	65535	64585.45
837.8274	799.9678	65535	64581.1
837.9724	802.0339	65535	64576.75
838.1175	804.0993	65535	64567.35
838.2626	806.1641	65535	64580.05
838.4076	808.2282	65535	64579.55
838.5527	810.2916	65535	64579
838.6978	812.3544	65535	64585.7
838.8428	814.4164	65535	64585.6
838.9879	816.4778	65535	64576.5
839.133	818.5385	65535	64576.65
839.2781	820.5986	65535	64576.65
839.4232	822.658	65535	64576.35
839.5682	824.7166	65535	64581.5
839.7133	826.7747	65535	64581.9
839.8584	828.832	65535	64576.7
840.0035	830.8886	65535	64575.85
840.1486	832.9446	65535	64575.7
840.2937	834.9999	65526.45	64570.55
840.4388	837.0545	65535	64576.05
840.5839	839.1085	65535	64578
840.729	841.1618	65535	64576.4
840.8741	843.2143	65529.15	64576.5
841.0192	845.2662	65526.55	64570
841.1643	847.3175	65533.9	64579.5
841.3095	849.368	65504.9	64547.95
841.4546	851.4179	65531.05	64573.6
841.5997	853.467	65518.75	64563.6
841.7448	855.5155	65522.8	64568.9
841.8899	857.5633	65495	64537.3
842.0351	859.6105	65484.45	64528.85
842.1802	861.6569	65505.85	64550.35
842.3253	863.7027	65436.25	64477.5
842.4704	865.7478	65456.4	64499.6
842.6156	867.7922	65431.5	64472.85
842.7607	869.8359	65466.05	64506.35
842.9058	871.8789	65394.1	64432.6
843.0509	873.9212	65445.85	64456.7
843.1961	875.9629	65477.45	64520.4
843.3412	878.0039	65458.3	64500.3
843.4863	880.0441	65429.95	64475.15
843.6315	882.0837	65442.85	64487.7
843.7766	884.1226	65419	64460.65
843.9218	886.1609	65390.55	64435.55
844.0669	888.1984	65303.35	64348.4
844.212	890.2352	65392.45	64434.35
844.3572	892.2714	65274.35	64313.7
844.5023	894.3069	65342.85	64384
844.6475	896.3416	65256.45	64293.15
844.7926	898.3757	65230	64267.65
844.9377	900.4091	64953	63994.45
845.0829	902.4418	65296.55	64329
845.228	904.4739	65148.5	64189.7
845.3732	906.5052	65152.5	64192
845.5183	908.5358	65019.65	64060.35
845.6635	910.5658	64925.85	63964.6
845.8086	912.595	64921.85	63960.95
845.9538	914.6236	64489.2	63529.15
846.0989	916.6515	65085.9	64125.55
846.2441	918.6786	64491.2	63528.95
846.3892	920.7051	64657.1	63691.15
846.5344	922.7309	64578.55	63617.6
846.6795	924.756	64719.2	63761.85
846.8246	926.7804	64559.65	63601.3
846.9698	928.8041	64101.5	63142.25
847.1149	930.8272	64435.55	63475
847.2601	932.8495	64432.8	63468.45
847.4052	934.8711	64075.55	63116.3
847.5504	936.892	63798.05	62838.2
847.6955	938.9123	63951.55	62990.8
847.8407	940.9318	63684.3	62723
847.9858	942.9506	63582.25	62623.85
848.131	944.9688	63623.2	62663.75
848.2761	946.9862	62895.45	61933.65
848.4213	949.003	63218.4	62257.4
848.5664	951.019	62519.45	61558.65
848.7115	953.0344	62678.9	61720.15
848.8567	955.0491	62621.9	61659.15
849.0018	957.063	62835.35	61876.35
849.147	959.0763	62904	61938.6
849.2921	961.0888	62388.9	61429.85
849.4373	963.1007	62762.85	61805.25
849.5824	965.1119	62748.5	61795.85
849.7275	967.1223	62338.6	61393.6
849.8727	969.1321	62840.85	61895.95
850.0178	971.1412	62142.6	61192.4
850.1629	973.1495	61923.55	60970.8
850.3081	975.1572	62228.75	61218.7
850.4532	977.1641	61949.1	60991.05
850.5983	979.1704	61847.35	60889.55
850.7435	981.1759	61908.1	60945.6
850.8886	983.1808	61492.95	60530.4
851.0337	985.1849	61604.6	60633.85
851.1788	987.1884	61782.1	60823.3
851.324	989.1911	62110.2	61150.15
851.4691	991.1932	61104.5	60148
851.6142	993.1945	61375.7	60420.1
851.7593	995.1951	61608.05	60650.4
851.9045	997.1951	60995.55	60031.05
852.0496	999.1943	60790.3	59832.75
852.1947	1001.1928	60497.65	59538.85
852.3398	1003.1906	60692.7	59737.05
852.4849	1005.1877	59934.9	58974.55
852.63	1007.1841	59637.55	58682.75
852.7751	1009.1798	59592.85	58633.85
852.9202	1011.1748	59431.95	58472.65
853.0653	1013.1691	59187.1	58230.8
853.2104	1015.1627	57681.95	56725.8
853.3555	1017.1556	58076.85	57122.05
853.5006	1019.1477	58245.6	57288.1
853.6457	1021.1392	57508	56563.9
853.7908	1023.1299	56665.8	55718.75
853.9359	1025.12	57120.2	56179.05
854.081	1027.1093	56647.25	55714.7
854.2261	1029.0979	56636.95	55709.35
854.3712	1031.0859	56520.45	55585.05
854.5163	1033.0731	55864.1	54919.65
854.6613	1035.0596	56000.95	55053.3
854.8064	1037.0454	55731.8	54782.15
854.9515	1039.0304	55234.95	54283.8
855.0965	1041.0148	54521	53564.9
855.2416	1042.9985	54509.05	53555.55
855.3867	1044.9814	54727.85	53774.8
855.5317	1046.9636	54120.95	53166.85
855.6768	1048.9452	54020.9	53069.6
855.8219	1050.926	53843.55	52890.6
855.9669	1052.9061	53723.25	52769.95
856.112	1054.8855	53679.8	52723.15
856.257	1056.8642	53217.7	52261.15
856.4021	1058.8421	53121.35	52161.55
856.5471	1060.8194	53036.3	52083.75
856.6921	1062.7959	52868.25	51912.85
856.8372	1064.7717	52979.9	52024.5
856.9822	1066.7469	52702.6	51748.35
857.1272	1068.7213	52619.7	51664.65
857.2723	1070.695	52310	51354.6
857.4173	1072.6679	51865.65	50913.7
857.5623	1074.6402	51953.15	51000.35
857.7073	1076.6117	51706	50746.75
857.8523	1078.5826	51633.15	50675.85
857.9973	1080.5527	51566.05	50605.45
858.1423	1082.5221	51469.9	50512.1
858.2873	1084.4908	51614.9	50659.05
858.4323	1086.4587	51607.8	50651.4
858.5773	1088.426	51702.7	50746.05
858.7223	1090.3925	51539.15	50580.5
858.8673	1092.3584	51358.55	50404.4
859.0123	1094.3235	50791.15	49841.45
859.1573	1096.2879	50567.3	49613.05
859.3022	1098.2515	50470.55	49516.75
859.4472	1100.2145	50321.55	49369.3
859.5922	1102.1767	50189	49230.15
859.7371	1104.1382	50291.45	49335.9
859.8821	1106.099	50321.6	49366.7
860.027	1108.0591	50264.9	49310.2
860.172	1110.0185	50082.3	49130.1
860.3169	1111.9771	50170.55	49214.5
860.4619	1113.9351	49717.15	48765.7
860.6068	1115.8923	49134.3	48181.2
860.7517	1117.8488	48674.35	47721.4
860.8967	1119.8045	48153.5	47203.9
861.0416	1121.7596	47962	47009.5
861.1865	1123.7139	47734.95	46784.7
861.3314	1125.6675	47593.55	46644.9
861.4763	1127.6204	47607.45	46656.7
861.6212	1129.5726	47374.25	46421.05
861.7661	1131.524	47419.35	46467.9
861.911	1133.4748	47415	46462.8
862.0559	1135.4248	47190.85	46235.95
862.2008	1137.3741	47159.45	46208.85
862.3457	1139.3226	47045.45	46091.4
862.4905	1141.2705	46920.4	45968.5
862.6354	1143.2176	46594.2	45635.3
862.7803	1145.164	46534.35	45582.05
862.9251	1147.1097	46370.4	45419.45
863.07	1149.0546	46320.95	45365.65
863.2148	1150.9989	46133.9	45183.4
863.3597	1152.9424	45917.3	44965.85
863.5045	1154.8852	45603.55	44651.4
863.6493	1156.8272	45308.9	44359.95
863.7942	1158.7686	45257.35	44298.6
863.939	1160.7092	44942.7	43991.55
864.0838	1162.6491	44686.95	43736.2
864.2286	1164.5883	44755.2	43803.3
864.3734	1166.5267	44640.1	43689.05
864.5182	1168.4644	44721.85	43772.55
864.663	1170.4014	44826.6	43872.6
864.8078	1172.3377	44997.5	44048.2
864.9526	1174.2732	45077.3	44128.4
865.0974	1176.2081	45216	44265.95
865.2421	1178.1421	45202.3	44249.55
865.3869	1180.0755	45276.4	44327.4
865.5317	1182.0082	45015.05	44068.95
865.6764	1183.9401	44910.55	43962.45
865.8212	1185.8713	44526.35	43583.35
865.9659	1187.8017	44185.3	43247.9
866.1106	1189.7315	43835.75	42903.5
866.2554	1191.6605	43382.75	42451.9
866.4001	1193.5888	43015.6	42079.55
866.5448	1195.5163	42844.9	41905.8
866.6895	1197.4432	42608	41658
866.8342	1199.3693	42351.5	41406.2
866.9789	1201.2947	42105.05	41149.9
867.1236	1203.2193	41891.5	40944.85
867.2683	1205.1432	41919.4	40971.3
867.413	1207.0664	41770.1	40821.4
867.5576	1208.9889	41712.2	40758.25
867.7023	1210.9106	41632.9	40683.95
867.847	1212.8316	41507.45	40559.3
867.9916	1214.7519	41552.95	40597.55
868.1363	1216.6715	41371.3	40429.6
868.2809	1218.5903	41283.75	40339.95
868.4255	1220.5084	41066.15	40119.35
868.5701	1222.4257	40964.65	40018.15
868.7148	1224.3424	40724.45	39784
868.8594	1226.2583	40663.45	39712.35
869.004	1228.1735	40708.75	39761.9
869.1486	1230.0879	40606.8	39659.7
869.2932	1232.0016	40583.4	39639.65
869.4377	1233.9146	40434.65	39484
869.5823	1235.8269	40277.5	39329.35
869.7269	1237.7384	40098.4	39151.85
869.8715	1239.6492	39704.5	38761.7
870.016	1241.5592	39520	38571.35
870.1606	1243.4686	39231.6	38284.65
870.3051	1245.3772	39112.65	38168.4
870.4496	1247.285	38889.4	37942.55
870.5941	1249.1922	38701.25	37755.1
870.7387	1251.0986	38623.05	37679.65
870.8832	1253.0042	38401.8	37457
871.0277	1254.9092	38452.95	37507.95
871.1722	1256.8134	38401.7	37459.95
871.3167	1258.7169	38532.2	37588.4
871.4611	1260.6196	38521.6	37579.1
871.6056	1262.5216	38676.35	37728.5
871.7501	1264.4229	38678.35	37735.25
871.8945	1266.3234	38718.85	37776.1
872.039	1268.2232	38684.05	37739.5
872.1834	1270.1223	38550.95	37602.45
872.3278	1272.0207	38434.25	37489.95
872.4723	1273.9183	38321.65	37373.05
872.6167	1275.8151	38111.9	37169.35
872.7611	1277.7113	37897.15	36953.55
872.9055	1279.6067	37591.05	36647.75
873.0499	1281.5014	37352.75	36407.5
873.1943	1283.3953	37123.9	36177.5
873.3386	1285.2885	36932.45	35993.25
873.483	1287.181	36831.05	35891
873.6274	1289.0727	36821.25	35880.4
873.7717	1290.9637	36683.75	35741.9
873.9161	1292.854	36825.7	35882.3
874.0604	1294.7435	36776.25	35834
874.2047	1296.6323	36931.55	35987.85
874.349	1298.5204	37090.7	36144.55
874.4933	1300.4077	37308.6	36363.2
874.6376	1302.2943	37419.2	36476.5
874.7819	1304.1802	37467	36527.55
874.9262	1306.0653	37292.1	36346.25
875.0705	1307.9497	37084.7	36142
875.2147	1309.8333	36934.95	35994.95
875.359	1311.7162	36838.55	35894.15
875.5032	1313.5984	36905.6	35960.6
875.6475	1315.4798	36900.75	35941.9
875.7917	1317.3605	36985.85	36024.9
875.9359	1319.2405	37111.8	36167.6
876.0801	1321.1197	37111.45	36166.5
876.2243	1322.9982	36910.95	35967.55
876.3685	1324.876	36898.6	35958.15
876.5127	1326.753	36764.75	35821.8
876.6569	1328.6293	36776.6	35828.1
876.801	1330.5048	36772.95	35828.65
876.9452	1332.3796	36623.6	35679.6
877.0893	1334.2537	36625.85	35661.35
877.2335	1336.127	36426.55	35485.8
877.3776	1337.9996	36331.75	35388.3
877.5217	1339.8714	36124.8	35182.5
877.6658	1341.7426	36005.4	35015.7
877.8099	1343.6129	35859.6	34913.5
877.954	1345.4826	35693.45	34748.85
878.0981	1347.3515	35615.2	34667.25
878.2422	1349.2196	35509.45	34567.05
878.3862	1351.087	35449.55	34506.4
878.5303	1352.9537	35392.9	34447.2
878.6743	1354.8197	35488.2	34545.75
878.8184	1356.6849	35631.5	34686.85
878.9624	1358.5493	35584.15	34643.5
879.1064	1360.4131	35448.8	34507
879.2504	1362.276	35324.45	34380.3
879.3944	1364.1383	35051.15	34111.6
879.5384	1365.9998	34760.65	33814.45
879.6823	1367.8606	34320.95	33380.45
879.8263	1369.7206	34028.95	33086.75
879.9702	1371.5799	33798.05	32851.65
880.1142	1373.4384	33550.75	32609.5
880.2581	1375.2962	33374.8	32432.1
880.402	1377.1533	32990.1	32052.35
880.5459	1379.0096	32584.15	31645.2
880.6898	1380.8652	32264.5	31325.25
880.8337	1382.7201	32012.75	31076.55
880.9776	1384.5742	31608.75	30665.95
881.1215	1386.4275	31369.8	30425.9
881.2653	1388.2802	31107.8	30165.65
881.4092	1390.132	30943.55	30000.35
881.553	1391.9832	30859.55	29916.85
881.6968	1393.8336	30603.85	29664.2
881.8406	1395.6832	30521.05	29575.6
881.9844	1397.5322	30410.4	29470.2
882.1282	1399.3803	30258.35	29313.2
882.272	1401.2278	30062.4	29122.95
882.4158	1403.0745	30002.6	29063
882.5595	1404.9204	29840.85	28901.95
882.7033	1406.7656	29832.1	28892.6
882.847	1408.6101	29692.75	28753.05
882.9908	1410.4538	29559.95	28622.75
883.1345	1412.2968	29507.15	28566.65
883.2782	1414.139	29497.65	28561.85
883.4219	1415.9805	29479.1	28539.35
883.5656	1417.8213	29438.8	28476.8
883.7092	1419.6613	29455	28516.3
883.8529	1421.5006	29616.7	28682.1
883.9965	1423.3391	29776.6	28835.95
884.1402	1425.1769	29984.2	29043.65
884.2838	1427.0139	30507.4	29569.3
884.4274	1428.8502	31069.8	30129.6
884.571	1430.6858	31509.2	30573.2
884.7146	1432.5206	31853.95	30915.35
884.8582	1434.3547	32051.15	31111.75
885.0018	1436.188	32092	31156.05
885.1453	1438.0206	31984.8	31047.45
885.2889	1439.8524	31710.75	30772.55
885.4324	1441.6835	31602.05	30664.15
885.5759	1443.5139	31449.55	30509.25
885.7194	1445.3435	31311.85	30375.25
885.8629	1447.1724	31198.35	30263.35
886.0064	1449.0005	31001.9	30068.3
886.1499	1450.8279	30862.45	29926
886.2933	1452.6545	30803.95	29872
886.4368	1454.4804	30820.6	29886.8
886.5802	1456.3056	30737.6	29795.45
886.7237	1458.13	30509.7	29576.55
886.8671	1459.9536	30325.85	29390.1
887.0105	1461.7766	29898.55	28964.2
887.1539	1463.5987	29405	28466.7
887.2972	1465.4202	28954.1	28016.5
887.4406	1467.2409	28499	27561.25
887.584	1469.0608	28194.05	27255.25
887.7273	1470.88	27888.4	26954.05
887.8706	1472.6984	27615.6	26682.9
888.0139	1474.5161	27300.55	26363.9
888.1572	1476.3331	27067.75	26134.75
888.3005	1478.1493	26930.25	25994.75
888.4438	1479.9648	26802	25864.05
888.5871	1481.7795	26653.75	25718.7
888.7303	1483.5935	26539.7	25605.8
888.8736	1485.4067	26465.35	25532.15
889.0168	1487.2192	26345.5	25410.5
889.16	1489.031	26267.75	25332.75
889.3032	1490.842	26170.3	25234.95
889.4464	1492.6522	26106.8	25170.55
889.5896	1494.4618	25958.1	25024.65
889.7327	1496.2705	25936.45	24999.6
889.8759	1498.0785	25876.75	24944.2
890.019	1499.8858	25735.35	24799.8
890.1622	1501.6924	25701.8	24770.1
890.3053	1503.4981	25642.85	24711.05
890.4484	1505.3032	25610.4	24675.4
890.5914	1507.1075	25505.75	24570.15
890.7345	1508.911	25409.45	24472.75
890.8776	1510.7138	25339.1	24405.3
891.0206	1512.5159	25229.05	24295.45
891.1637	1514.3172	25104.3	24169.8
891.3067	1516.1178	24954.85	24023.7
891.4497	1517.9176	24936.35	24001.7
891.5927	1519.7166	24818.6	23888.55
891.7357	1521.515	24756.7	23816.8
891.8786	1523.3126	24679.95	23747.25
892.0216	1525.1094	24577.2	23644.95
892.1645	1526.9055	24498.1	23567.2
892.3074	1528.7008	24395.95	23467.85
892.4503	1530.4954	24238.65	23303.05
892.5932	1532.2893	24222.15	23293.9
892.7361	1534.0824	24040.85	23112.1
892.879	1535.8747	24051.55	23121.9
893.0218	1537.6663	23950.4	23021.6
893.1647	1539.4572	23844.25	22917.5
893.3075	1541.2473	23782.45	22854.5
893.4503	1543.0367	23718.15	22791.45
893.5931	1544.8253	23623.8	22691.6
893.7359	1546.6132	23584.05	22654.95
893.8787	1548.4003	23476.15	22539.35
894.0214	1550.1867	23491.4	22555.45
894.1642	1551.9723	23383.6	22455.6
894.3069	1553.7572	23350.25	22422.15
894.4496	1555.5414	23337.25	22414.45
894.5923	1557.3247	23298.4	22373.4
894.735	1559.1074	23228.6	22308.9
894.8777	1560.8893	23205	22286.1
895.0204	1562.6705	23190.15	22267.55
895.163	1564.4509	23195.55	22275.5
895.3056	1566.2305	23211.55	22291
895.4482	1568.0094	23308.7	22392.8
895.5908	1569.7876	23373.6	22453.8
895.7334	1571.565	23357.55	22437.3
895.876	1573.3417	23353.9	22432.95
896.0186	1575.1176	23337.45	22417.85
896.1611	1576.8928	23293.95	22378.65
896.3036	1578.6672	23132.9	22218.75
896.4461	1580.4409	22954.5	22043.2
896.5886	1582.2138	22768	21850
896.7311	1583.986	22557.2	21638.7
896.8736	1585.7575	22429.65	21511.65
897.0161	1587.5282	22259.8	21345.9
897.1585	1589.2981	22195.2	21279.8
897.3009	1591.0673	22030.55	21121.2
897.4433	1592.8358	22011.4	21099.15
897.5857	1594.6035	21933.6	21014.85
897.7281	1596.3704	21831.35	20913.85
897.8705	1598.1366	21791.55	20876.3
898.0128	1599.9021	21736.4	20823.65
898.1551	1601.6668	21685.05	20768
898.2975	1603.4308	21690.3	20772.3
898.4398	1605.194	21722.2	20801.75
898.5821	1606.9564	21712.8	20806.55
898.7243	1608.7182	21742.65	20832.7
898.8666	1610.4791	21804.8	20901.45
899.0088	1612.2394	21883.55	20980.5
899.1511	1613.9988	21975.7	21069.45
899.2933	1615.7576	22176.25	21267.35
899.4355	1617.5156	22386.95	21467.35
899.5776	1619.2728	22625.8	21710.65
899.7198	1621.0293	22776.65	21859.9
899.862	1622.785	22785.9	21872.5
900.0041	1624.54	22633.7	21725.6
900.1462	1626.2942	22468.2	21558.45
900.2883	1628.0477	22122.85	21212.75
900.4304	1629.8005	21838.35	20926.9
900.5725	1631.5525	21543.05	20633.95
900.7145	1633.3037	21259.1	20352.15
900.8566	1635.0542	21059.95	20152
900.9986	1636.804	20864.6	19954.7
901.1406	1638.553	20787.65	19832.7
901.2826	1640.3013	20631.3	19723.3
901.4245	1642.0488	20514.1	19605.4
901.5665	1643.7955	20446.1	19541
901.7085	1645.5416	20400.1	19492.7
901.8504	1647.2868	20418.3	19509.05
901.9923	1649.0313	20401.65	19491.95
902.1342	1650.7751	20512.15	19600.8
902.2761	1652.5181	20624.85	19715.75
902.4179	1654.2604	20768.7	19862.45
902.5598	1656.0019	21053.4	20146.3
902.7016	1657.7427	21396.7	20489.5
902.8434	1659.4828	21757.2	20847.6
902.9852	1661.222	21929	21020.3
903.127	1662.9606	21952.35	21041.15
903.2687	1664.6984	21785.75	20873.95
903.4105	1666.4354	21440.7	20527.45
903.5522	1668.1717	20953.9	20038.75
903.6939	1669.9072	20438.6	19527.45
903.8356	1671.642	20057.2	19143.6
903.9773	1673.3761	19705.1	18792.1
904.119	1675.1094	19404.7	18494.9
904.2606	1676.8419	19185	18274.55
904.4022	1678.5737	18995.8	18085.05
904.5439	1680.3048	18833.25	17920.05
904.6855	1682.0351	18678.75	17767.45
904.827	1683.7646	18540.5	17626.65
904.9686	1685.4934	18508.45	17596.8
905.1101	1687.2215	18419.8	17510
905.2517	1688.9488	18266.1	17359.3
905.3932	1690.6754	18141.05	17233.2
905.5347	1692.4012	18123.75	17213.05
905.6761	1694.1263	18075.1	17165.75
905.8176	1695.8506	18005.1	17095.6
905.9591	1697.5742	17894.3	16987.75
906.1005	1699.297	17858.45	16955.35
906.2419	1701.0191	17721.85	16818.6
906.3833	1702.7404	17641.35	16735.9
906.5246	1704.461	17554.25	16646.7
906.666	1706.1808	17481.6	16572.35
906.8073	1707.8999	17413.5	16508.8
906.9487	1709.6182	17371.2	16470.95
907.09	1711.3358	17301.6	16403.45
907.2313	1713.0527	17213.1	16313.7
907.3725	1714.7688	17153.65	16244.65
907.5138	1716.4841	17069.65	16164
907.655	1718.1987	17092.5	16182.5
907.7962	1719.9126	17017.65	16117
907.9374	1721.6257	16957.25	16057.6
908.0786	1723.338	16902.6	16003
908.2198	1725.0496	16811.35	15908.5
908.3609	1726.7605	16772	15869.35
908.502	1728.4706	16703.55	15801.75
908.6431	1730.18	16609.3	15709.6
908.7842	1731.8886	16560.9	15662.2
908.9253	1733.5964	16526.2	15604.85
909.0664	1735.3036	16458.1	15554.05
909.2074	1737.0099	16424.95	15523.75
909.3484	1738.7156	16365.75	15469.4
909.4894	1740.4204	16302.45	15399.9
909.6304	1742.1246	16306.5	15402.35
909.7714	1743.8279	16230.45	15329.5
909.9123	1745.5306	16208	15309.65
910.0532	1747.2325	16142.6	15243.65
910.1941	1748.9336	16077	15177.2
910.335	1750.634	15997.6	15092.45
910.4759	1752.3336	15964.05	15065.75
910.6168	1754.0325	15966.6	15070.3
910.7576	1755.7307	15897.05	14999.9
910.8984	1757.4281	15913	15015.05
911.0392	1759.1247	15901.3	14991.2
911.18	1760.8206	15829.25	14922.45
911.3208	1762.5158	15806.45	14898.45
911.4615	1764.2102	15729.25	14827.4
911.6022	1765.9039	15667.6	14769.45
911.7429	1767.5968	15618.9	14723.4
911.8836	1769.289	15543.95	14645.1
912.0243	1770.9804	15543.8	14641.9
912.1649	1772.6711	15516.65	14612.5
912.3056	1774.361	15435.4	14531.9
912.4462	1776.0502	15472.2	14569.75
912.5868	1777.7386	15400.85	14498
912.7274	1779.4263	15342.95	14443.35
912.8679	1781.1132	15324.75	14428.25
913.0084	1782.7994	15229.75	14333.7
913.149	1784.4849	15228.85	14331.95
913.2895	1786.1696	15175.8	14259.55
913.4299	1787.8535	15135.55	14238.35
913.5704	1789.5367	15093.65	14199.3
913.7108	1791.2192	15070.1	14172.85
913.8513	1792.9009	15029.1	14102.4
913.9917	1794.5818	14968.15	14067.3
914.132	1796.2621	14933.95	14036.3
914.2724	1797.9415	14901	14001.7
914.4128	1799.6202	14853.75	13954.2
914.5531	1801.2982	14814.15	13912
914.6934	1802.9755	14807.4	13905.4
914.8337	1804.6519	14772.1	13873.7
914.9739	1806.3277	14691.55	13794.15
915.1142	1808.0027	14651.45	13757.85
915.2544	1809.6769	14620.05	13724.8
915.3946	1811.3504	14587.3	13691.75
915.5348	1813.0231	14515.6	13620.15
915.675	1814.6951	14519.85	13623.15
915.8151	1816.3664	14520.7	13622.55
915.9553	1818.0369	14489.3	13588.85
916.0954	1819.7067	14404.5	13505.5
916.2355	1821.3757	14393.95	13491.85
916.3755	1823.044	14356.5	13455.45
916.5156	1824.7115	14324.9	13425.5
916.6556	1826.3783	14283	13385.55
916.7956	1828.0443	14212.25	13313.45
916.9356	1829.7096	14198.65	13300
917.0756	1831.3741	14154.55	13252.4
917.2155	1833.0379	14138.6	13245.6
917.3555	1834.701	14100.45	13204.3
917.4954	1836.3633	14071.15	13176
917.6353	1838.0248	14038.9	13141.45
917.7751	1839.6856	13978.65	13080.65
917.915	1841.3457	13967.8	13071.05
918.0548	1843.005	13920.15	13022.25
918.1946	1844.6636	13907.4	13010.85
918.3344	1846.3214	13896.7	13000.5
918.4742	1847.9785	13835.35	12940.2
918.6139	1849.6349	13828.8	12927.9
918.7537	1851.2904	13815.25	12904.35
918.8934	1852.9453	13748.15	12844.1
919.0331	1854.5994	13687.9	12786.9
919.1727	1856.2528	13715.8	12812.25
919.3124	1857.9054	13659.9	12760.25
919.452	1859.5572	13648.6	12752.6
919.5916	1861.2083	13612.6	12714.45
919.7312	1862.8587	13636.2	12737.8
919.8708	1864.5084	13553.15	12651.5
920.0103	1866.1572	13499.95	12600.35
920.1498	1867.8054	13453.4	12550
920.2893	1869.4528	13445.8	12544.75
920.4288	1871.0994	13414.5	12514.8
920.5683	1872.7453	13390.15	12490.65
920.7077	1874.3905	13361.75	12444.1
920.8471	1876.0349	13312.95	12413.9
920.9865	1877.6786	13309.6	12409.5
921.1259	1879.3215	13307.3	12409.15
921.2653	1880.9637	13219.1	12319.95
921.4046	1882.6051	13194.25	12296.6
921.5439	1884.2458	13142.55	12243.6
921.6832	1885.8858	13097.45	12200.5
921.8225	1887.525	13075.9	12176.8
921.9617	1889.1634	13000.25	12102.05
922.101	1890.8011	12971.25	12072.45
922.2402	1892.4381	12938.15	12040.2
922.3794	1894.0743	12954.75	12055.05
922.5185	1895.7098	12917.05	12019.5
922.6577	1897.3446	12867.7	11967
922.7968	1898.9786	12835.45	11931.05
922.9359	1900.6118	12820.1	11922.75
923.075	1902.2443	12731.55	11831.25
923.214	1903.8761	12738.6	11841.8
923.3531	1905.5071	12654.3	11756.6
923.4921	1907.1374	12629.9	11732.55
923.6311	1908.7669	12584.95	11691.55
923.77	1910.3957	12562.8	11666.45
923.909	1912.0237	12486.85	11591.35
924.0479	1913.651	12473.4	11574.4
924.1868	1915.2776	12412.1	11514.2
924.3257	1916.9034	12369.65	11474.15
924.4646	1918.5285	12338.9	11442.8
924.6034	1920.1528	12281.3	11384.85
924.7422	1921.7764	12266.25	11368.1
924.881	1923.3992	12237.65	11342.3
925.0198	1925.0213	12163.8	11268.75
925.1586	1926.6427	12107.25	11211.6
925.2973	1928.2633	12131.45	11163.55
925.436	1929.8832	12044.95	11146.05
925.5747	1931.5023	11994.05	11096.15
925.7134	1933.1207	11959.1	11062.45
925.852	1934.7383	11943.25	11048.35
925.9906	1936.3552	11889.65	10995.6
926.1292	1937.9714	11882.3	10986.45
926.2678	1939.5868	11821.1	10924.15
926.4064	1941.2015	11747.4	10848.95
926.5449	1942.8154	11738.35	10839.95
926.6834	1944.4286	11686.35	10789.05
926.8219	1946.041	11629.95	10712.4
926.9604	1947.6528	11577.45	10673.9
927.0988	1949.2637	11530.65	10636.15
927.2372	1950.8739	11495.7	10599.95
927.3756	1952.4834	11479.55	10583.35
927.514	1954.0921	11429.9	10534.3
927.6523	1955.7001	11379.8	10479.55
927.7907	1957.3074	11362.45	10471.75
927.929	1958.9139	11330.25	10439.55
928.0673	1960.5197	11293.95	10400.1
928.2055	1962.1247	11243.45	10351.1
928.3438	1963.729	11208.15	10317.55
928.482	1965.3325	11180.35	10262.6
928.6202	1966.9353	11111	10217.05
928.7584	1968.5374	11087.65	10192.6
928.8965	1970.1387	11048.75	10156.6
929.0346	1971.7393	10997.45	10102.85
929.1727	1973.3392	10966.7	10075.35
929.3108	1974.9383	10922.15	10030.95
929.4489	1976.5366	10907.4	10015.55
929.5869	1978.1342	10860.65	9970.4
929.7249	1979.7311	10845.5	9954.2
929.8629	1981.3273	10818.1	9926.7
930.0009	1982.9227	10800.15	9908.7
930.1388	1984.5173	10727.8	9837.45
930.2767	1986.1112	10712.45	9821.6
930.4146	1987.7044	10655.8	9765.55
930.5525	1989.2968	10624.8	9732.3
930.6904	1990.8885	10624.9	9732.75
930.8282	1992.4795	10605.95	9714.7
930.966	1994.0697	10547.95	9660.05
931.1038	1995.6592	10523.15	9634.1
931.2415	1997.2479	10467.85	9578.3
931.3793	1998.8359	10441.15	9551.95
931.517	2000.4232	10371.85	9485.5
931.6547	2002.0097	10363.6	9477.9
931.7923	2003.5955	10312.3	9424.9
931.93	2005.1805	10295.4	9406.5
932.0676	2006.7648	10293.55	9406.65
932.2052	2008.3484	10272.35	9382.6
932.3427	2009.9312	10250.9	9363.15
932.4803	2011.5133	10227.5	9341.45
932.6178	2013.0946	10179.3	9293.8
932.7553	2014.6752	10154.5	9270.3
932.8928	2016.2551	10114.15	9224.5
933.0302	2017.8342	10100.8	9213.1
933.1676	2019.4126	10054.9	9168.45
933.305	2020.9902	9981.6	9095.5
933.4424	2022.5672	9986.65	9099.2
933.5798	2024.1433	9953	9062.85
933.7171	2025.7188	9926.35	9041.6
933.8544	2027.2935	9894.6	9008.55
933.9917	2028.8674	9864.8	8979.7
934.129	2030.4406	9824.3	8942.75
934.2662	2032.0131	9808.5	8923.25
934.4034	2033.5849	9775.3	8887.9
934.5406	2035.1559	9758.15	8872.4
934.6778	2036.7261	9751.4	8864.05
934.8149	2038.2957	9712.05	8823.45
934.952	2039.8645	9695.6	8805.1
935.0891	2041.4325	9666.95	8774.2
935.2262	2042.9998	9637.9	8750.2
935.3632	2044.5664	9623.5	8733.55
935.5002	2046.1323	9594.4	8710.4
935.6372	2047.6974	9537.5	8650.95
935.7742	2049.2617	9504.6	8619.1
935.9111	2050.8254	9509.95	8618.2
936.048	2052.3883	9490.8	8602.2
936.1849	2053.9504	9454.8	8565.95
936.3218	2055.5118	9448.45	8558
936.4586	2057.0725	9380.25	8489.5
936.5955	2058.6325	9377.7	8490.75
936.7323	2060.1917	9350.5	8466.2
936.869	2061.7502	9320.7	8434.15
937.0058	2063.3079	9274.25	8390.9
937.1425	2064.8649	9236.1	8346.5
937.2792	2066.4212	9212.95	8324.75
937.4159	2067.9767	9210.75	8323.65
937.5525	2069.5315	9160.15	8274
937.6891	2071.0856	9136.4	8250.15
937.8257	2072.6389	9096.2	8209.1
937.9623	2074.1915	9049.65	8165.05
938.0989	2075.7433	9012.1	8124.05
938.2354	2077.2945	8987.9	8102.2
938.3719	2078.8448	8959.1	8070.3
938.5084	2080.3945	8937.95	8049.05
938.6448	2081.9434	8942	8052.1
938.7812	2083.4916	8886.2	7994.75
938.9176	2085.039	8850.9	7955.85
939.054	2086.5857	8857.4	7962.7
939.1903	2088.1317	8838.15	7944.9
939.3267	2089.677	8810.1	7917.2
939.463	2091.2215	8757.5	7864.95
939.5992	2092.7652	8761.55	7866.4
939.7355	2094.3083	8731.55	7838.45
939.8717	2095.8506	8727.35	7838.4
940.0079	2097.3921	8719.7	7829.4
940.1441	2098.933	8682.3	7793.45
940.2802	2100.4731	8670.65	7779.4
940.4163	2102.0124	8659	7760.4
940.5524	2103.5511	8615	7719.5
940.6885	2105.089	8599.85	7709.75
940.8245	2106.6261	8609.35	7720.15
940.9606	2108.1626	8568.85	7678.9
941.0965	2109.6983	8558.05	7641.55
941.2325	2111.2332	8514.8	7623.6
941.3684	2112.7675	8502.35	7610.9
941.5044	2114.301	8478.05	7586.2
941.6403	2115.8337	8461.7	7569.1
941.7761	2117.3657	8425.7	7535.65
941.912	2118.897	8403.95	7510.25
942.0478	2120.4276	8404.6	7506.7
942.1835	2121.9575	8341.35	7446.75
942.3193	2123.4866	8334.95	7441.4
942.455	2125.0149	8340.55	7446.8
942.5907	2126.5426	8246	7357.15
942.7264	2128.0695	8267.15	7377.85
942.8621	2129.5956	8231.65	7346.25
942.9977	2131.1211	8211.4	7318.95
943.1333	2132.6458	8176.9	7288.35
943.2689	2134.1698	8174.85	7282.2
943.4044	2135.693	8176.4	7281.15
943.54	2137.2155	8147.2	7251.75
943.6755	2138.7373	8133.6	7242.4
943.8109	2140.2584	8105.2	7217.2
943.9464	2141.7787	8069	7175.9
944.0818	2143.2983	8035.6	7151.2
944.2172	2144.8171	7997.3	7114.3
944.3526	2146.3353	7978.35	7089.15
944.4879	2147.8527	7940.1	7052.5
944.6232	2149.3693	7941.95	7049.9
944.7585	2150.8853	7910.1	7018.05
944.8938	2152.4005	7889.8	6997.3
945.029	2153.9149	7873.8	6982
945.1642	2155.4287	7947.9	6945.6
945.2994	2156.9417	7864.15	6970.25
945.4346	2158.454	7810.8	6919.55
945.5697	2159.9655	7779.85	6891.9
945.7048	2161.4764	7771.25	6881.05
945.8399	2162.9865	7758.4	6868.5
945.9749	2164.4958	7730.6	6840.65
946.1099	2166.0045	7674.2	6784.95
946.2449	2167.5124	7703.6	6814.2
946.3799	2169.0195	7656.4	6766.5
946.5148	2170.526	7651.1	6761.6
946.6498	2172.0317	7602.35	6711.65
946.7846	2173.5367	7600.35	6709.2
946.9195	2175.0409	7559.8	6672.55
947.0543	2176.5445	7574.95	6684.15
947.1891	2178.0473	7545.5	6653
947.3239	2179.5494	7510.65	6616.15
947.4587	2181.0507	7489.2	6597.1
947.5934	2182.5513	7448.05	6557.45
947.7281	2184.0512	7446.95	6555.45
947.8628	2185.5504	7416.2	6527.2
947.9974	2187.0488	7394.95	6504.6
948.132	2188.5465	7374.8	6486.75
948.2666	2190.0435	7351.2	6462.65
948.4012	2191.5397	7338.8	6446.55
948.5357	2193.0353	7298.95	6407.8
948.6702	2194.5301	7280.7	6386.25
948.8047	2196.0241	7238.35	6344.1
948.9392	2197.5175	7223.2	6328.1
949.0736	2199.0101	7218	6319.8
949.208	2200.502	7160.35	6271.05
949.3424	2201.9931	7164.3	6275.2
949.4767	2203.4835	7126.75	6238.05
949.611	2204.9733	7133.15	6228
949.7453	2206.4622	7095.7	6208.75
949.8796	2207.9505	7071.7	6180.25
950.0138	2209.438	7032.1	6142.8
950.148	2210.9248	7014	6122.65
950.2822	2212.4109	6988.3	6100.25
950.4164	2213.8962	6978.8	6082.6
950.5505	2215.3809	6960.5	6067.5
950.6846	2216.8648	6962.45	6066.25
950.8186	2218.3479	6934.65	6033.85
950.9527	2219.8304	6900.7	6001.15
951.0867	2221.3121	6876.95	5978.9
951.2207	2222.7931	6862	5968.15
951.3546	2224.2733	6837.75	5945
951.4886	2225.7529	6793.9	5901.4
951.6225	2227.2317	6773.75	5880.7
951.7563	2228.7098	6778.9	5891.7
951.8902	2230.1872	6737.75	5849.25
952.024	2231.6638	6729.05	5841
952.1578	2233.1397	6712.85	5818.7
952.2916	2234.6149	6701.55	5812.55
952.4253	2236.0894	6676.8	5783.8
952.559	2237.5632	6632.85	5740.95
952.6927	2239.0362	6596.35	5706.55
952.8263	2240.5085	6595.8	5705.65
952.9599	2241.9801	6573	5682.15
953.0935	2243.4509	6560.65	5668.9
953.2271	2244.921	6530.65	5636.05
953.3606	2246.3904	6508.65	5613.5
953.4941	2247.8591	6504.65	5611.55
953.6276	2249.3271	6465.3	5571.4
953.7611	2250.7943	6449.45	5557.1
953.8945	2252.2608	6430.15	5536.85
954.0279	2253.7266	6419.15	5529.65
954.1612	2255.1917	6395.5	5503.75
954.2946	2256.656	6376.6	5487.1
954.4279	2258.1197	6348.2	5458.7
954.5612	2259.5826	6338.85	5447.25
954.6944	2261.0447	6339.35	5446.4
954.8276	2262.5062	6304.15	5411.2
954.9608	2263.9669	6290.85	5394.8
955.094	2265.4269	6279.6	5385.95
955.2271	2266.8862	6266.9	5375.35
955.3602	2268.3448	6246.05	5357.75
955.4933	2269.8026	6241.5	5351.3
955.6264	2271.2598	6218.75	5330
955.7594	2272.7162	6191.05	5302.9
955.8924	2274.1719	6182.45	5288.15
956.0253	2275.6268	6154.75	5261.4
956.1583	2277.0811	6145.3	5250.85
956.2912	2278.5346	6139.7	5248.15
956.4241	2279.9874	6119.25	5230.15
956.5569	2281.4395	6107.35	5219.35
956.6897	2282.8908	6071.35	5177.55
956.8225	2284.3414	6084.85	5191.35
956.9553	2285.7914	6057.75	5165.1
957.088	2287.2406	6055.05	5161.55
957.2207	2288.689	6032.45	5135.15
957.3534	2290.1368	6020.4	5124.7
957.486	2291.5838	6021.55	5124
957.6186	2293.0302	5992.1	5095.4
957.7512	2294.4758	5950.25	5055.3
957.8838	2295.9206	5944.75	5051.3
958.0163	2297.3648	5922.1	5032.9
958.1488	2298.8082	5913.7	5023.3
958.2813	2300.251	5880.85	4986.8
958.4137	2301.693	5873.45	4977.15
958.5461	2303.1343	5864.1	4968.45
958.6785	2304.5748	5837.75	4948.3
958.8108	2306.0147	5802.25	4911.55
958.9432	2307.4538	5801	4908.75
959.0754	2308.8922	5784.3	4899.3
959.2077	2310.3299	5759.55	4868.3
959.3399	2311.7669	5743.05	4851.15
959.4721	2313.2031	5727.6	4835.25
959.6043	2314.6387	5707.25	4813.25
959.7365	2316.0735	5683.25	4790.2
959.8686	2317.5076	5671.5	4779.1
960.0006	2318.941	5676.25	4782.85
960.1327	2320.3737	5661.1	4766.4
960.2647	2321.8056	5649.6	4752.5
960.3967	2323.2369	5617.15	4725.15
960.5287	2324.6674	5592.9	4699.35
960.6606	2326.0972	5597.55	4703.95
960.7925	2327.5263	5571	4676.8
960.9244	2328.9547	5577.7	4683.25
961.0562	2330.3823	5543.7	4649
961.1881	2331.8092	5543.15	4643
961.3198	2333.2355	5504.4	4609.5
961.4516	2334.661	5497.5	4603.7
961.5833	2336.0858	5500.65	4606.65
961.715	2337.5098	5504.3	4611.05
961.8467	2338.9332	5479.2	4587.15
961.9783	2340.3558	5451.3	4555.6
962.1099	2341.7778	5422.55	4531.55
962.2415	2343.199	5398.75	4505.15
962.373	2344.6195	5412.95	4520.6
962.5045	2346.0393	5386.75	4496.05
962.636	2347.4583	5382.05	4487.9
962.7675	2348.8767	5362.55	4470.4
962.8989	2350.2943	5353.75	4458.25
963.0303	2351.7113	5342.4	4445.55
963.1617	2353.1275	5321.45	4425.45
963.293	2354.543	5321.45	4418.8
963.4243	2355.9578	5282.6	4388.35
963.5556	2357.3718	5245.7	4356.25
963.6868	2358.7852	5242.45	4348.65
963.818	2360.1978	5227.3	4336.2
963.9492	2361.6098	5214.1	4321.45
964.0803	2363.021	5196.95	4298.4
964.2114	2364.4315	5180.6	4288.3
964.3425	2365.8413	5172.15	4276.4
964.4736	2367.2504	5133.6	4243.15
964.6046	2368.6587	5115.7	4223.8
964.7356	2370.0664	5109.8	4217.35
964.8666	2371.4733	5090.1	4199.85
964.9975	2372.8795	5082.5	4189.4
965.1284	2374.285	5080.25	4188.8
965.2593	2375.6899	5048	4157.55
965.3901	2377.0939	5014.15	4123.05
965.5209	2378.4973	5008.3	4117.7
965.6517	2379.9	4983.2	4093.25
965.7825	2381.3019	4975.8	4085.35
965.9132	2382.7032	4955.75	4065.5
966.0439	2384.1037	4954.1	4066.6
966.1745	2385.5035	4916.4	4027.15
966.3051	2386.9027	4913.45	4025.75
966.4357	2388.3011	4905.2	4013.75
966.5663	2389.6987	4874.6	3984.65
966.6968	2391.0957	4856.15	3966.75
966.8273	2392.492	4843.05	3954.5
966.9578	2393.8876	4805.7	3915.1
967.0882	2395.2824	4803	3913.4
967.2186	2396.6765	4785.85	3894.95
967.349	2398.07	4779.3	3888.3
967.4793	2399.4627	4775.65	3882.8
967.6097	2400.8547	4747.7	3856.3
967.7399	2402.246	4747.55	3849.55
967.8702	2403.6366	4718.45	3826.9
968.0004	2405.0265	4706.95	3817.4
968.1306	2406.4156	4685.5	3789.5
968.2607	2407.8041	4676.55	3784.1
968.3909	2409.1918	4671.15	3778.2
968.521	2410.5789	4654.2	3761.7
968.651	2411.9652	4631.25	3736.1
968.781	2413.3508	4617.3	3726.5
968.911	2414.7358	4602.8	3710.65
969.041	2416.12	4585.9	3694.7
969.1709	2417.5035	4578.95	3688.65
969.3008	2418.8863	4562	3670.6
969.4307	2420.2684	4540.9	3648.4
969.5606	2421.6497	4533.2	3642.1
969.6904	2423.0304	4496.55	3604.4
969.8201	2424.4104	4494.4	3602.9
969.9499	2425.7896	4474.55	3582.1
970.0796	2427.1682	4492.1	3602.05
970.2093	2428.546	4455.1	3563.9
970.3389	2429.9232	4451.8	3557.85
970.4685	2431.2996	4449.65	3557.7
970.5981	2432.6753	4428.85	3535.9
970.7277	2434.0503	4426.2	3536.95
970.8572	2435.4246	4394.4	3502.45
970.9867	2436.7982	4396.4	3502.8
971.1161	2438.1711	4366.8	3475.1
971.2456	2439.5433	4368.55	3476
971.375	2440.9148	4349.1	3453.45
971.5043	2442.2856	4330.75	3439.95
971.6336	2443.6557	4338.7	3445.25
971.7629	2445.025	4313.8	3422.25
971.8922	2446.3937	4307.2	3413.2
972.0214	2447.7617	4286.1	3396.3
972.1506	2449.1289	4270.65	3377.8
972.2798	2450.4955	4279.75	3386.2
972.4089	2451.8613	4268.8	3378.5
972.538	2453.2265	4258.05	3368.25
972.6671	2454.5909	4236.45	3344.6
972.7961	2455.9546	4236.45	3345.1
972.9251	2457.3177	4230.05	3336.15
973.0541	2458.68	4213.35	3320.2
973.1831	2460.0416	4195.2	3303.75
973.312	2461.4025	4191.05	3297.75
973.4408	2462.7627	4182.8	3281.35
973.5697	2464.1222	4163.35	3276.2
973.6985	2465.4811	4154.45	3263.85
973.8273	2466.8392	4156.05	3264.75
973.956	2468.1966	4146.85	3253.45
974.0847	2469.5533	4139.4	3246.65
974.2134	2470.9093	4135.1	3244.35
974.3421	2472.2645	4106.85	3213.35
974.4707	2473.6191	4096.65	3204.35
974.5993	2474.973	4102.45	3211.65
974.7278	2476.3262	4058.6	3164.85
974.8563	2477.6787	4061.15	3171.45
974.9848	2479.0305	4043.6	3152.85
975.1132	2480.3816	4039.6	3145.6
975.2417	2481.7319	4024.15	3131.6
975.37	2483.0816	3999.95	3108.5
975.4984	2484.4306	3998.4	3108.5
975.6267	2485.7789	3985.2	3097.4
975.755	2487.1264	3963.2	3071.4
975.8833	2488.4733	3948.5	3059.3
976.0115	2489.8195	3963.9	3055
976.1397	2491.165	3944.3	3050.45
976.2678	2492.5097	3926.05	3034
976.3959	2493.8538	3891.85	3003.85
976.524	2495.1972	3896.4	3005.6
976.6521	2496.5398	3871.1	2977.5
976.7801	2497.8818	3882.95	2989.75
976.9081	2499.2231	3873.95	2979.5
977.036	2500.5637	3851.75	2957.45
977.164	2501.9035	3833.15	2941.55
977.2918	2503.2427	3834.9	2938.05
977.4197	2504.5812	3797.2	2905.45
977.5475	2505.919	3803.55	2911.75
977.6753	2507.256	3800.85	2911.55
977.8031	2508.5924	3775.45	2883.9
977.9308	2509.9281	3790.3	2896.25
978.0585	2511.2631	3759.6	2871.05
978.1861	2512.5974	3769.35	2879.4
978.3137	2513.9309	3750.9	2859
978.4413	2515.2638	3769.75	2852.4
978.5689	2516.596	3733.4	2843.25
978.6964	2517.9275	3710.1	2816.2
978.8239	2519.2583	3718.8	2828.25
978.9513	2520.5884	3710.65	2817.8
979.0788	2521.9178	3685.15	2793.3
979.2062	2523.2465	3682.05	2793.5
979.3335	2524.5745	3659.5	2769.9
979.4608	2525.9018	3654.4	2763.85
979.5881	2527.2284	3647.45	2758.3
979.7154	2528.5543	3639.35	2750.2
979.8426	2529.8796	3641.65	2750.3
979.9698	2531.2041	3618.8	2726.6
980.0969	2532.5279	3613.55	2723.7
980.224	2533.851	3608.45	2716.05
980.3511	2535.1735	3591.9	2699.7
980.4781	2536.4952	3581.05	2689.9
980.6052	2537.8163	3577.45	2685.05
980.7321	2539.1366	3561.1	2670.95
980.8591	2540.4562	3560.65	2668.3
980.986	2541.7752	3559	2668.75
981.1129	2543.0935	3549.4	2659
981.2397	2544.411	3538	2644
981.3665	2545.7279	3535.3	2644.9
981.4933	2547.0441	3533.7	2641.75
981.62	2548.3596	3535.65	2642.95
981.7467	2549.6744	3532.7	2641.55
981.8734	2550.9885	3512.95	2619.95
982.0001	2552.3019	3504.35	2612.65
982.1267	2553.6146	3502.85	2609
982.2532	2554.9266	3475.75	2583.1
982.3798	2556.2379	3477.2	2583.3
982.5063	2557.5485	3463.45	2572.6
982.6327	2558.8585	3466.15	2568.35
982.7592	2560.1677	3464.6	2568.95
982.8856	2561.4762	3460.75	2570.1
983.0119	2562.7841	3440.85	2545.2
983.1383	2564.0913	3440.3	2549.1
983.2646	2565.3977	3445.05	2554.4
983.3908	2566.7035	3411.2	2520.45
983.517	2568.0086	3410.6	2517.05
983.6432	2569.313	3401	2507.65
983.7694	2570.6167	3407.6	2511.55
983.8955	2571.9197	3393	2502.65
984.0216	2573.222	3394.45	2498.45
984.1476	2574.5236	3387.7	2495.9
984.2737	2575.8246	3392.6	2498.9
984.3996	2577.1248	3379.35	2486.2
984.5256	2578.4244	3362.3	2471.55
984.6515	2579.7232	3352.55	2462.3
984.7774	2581.0214	3376.2	2452.85
984.9032	2582.3189	3352.85	2461.95
985.029	2583.6157	3350.4	2452.35
985.1548	2584.9118	3341.8	2450.85
985.2806	2586.2072	3324.75	2432.75
985.4063	2587.5019	3316.1	2425.55
985.5319	2588.7959	3306.85	2414.45
985.6576	2590.0893	3320.85	2426.65
985.7832	2591.3819	3319.2	2426.25
985.9087	2592.6739	3306	2410.95
986.0343	2593.9652	3311.3	2418.55
986.1597	2595.2557	3290.8	2398.65
986.2852	2596.5456	3294.5	2399.5
986.4106	2597.8348	3282.5	2389.3
986.536	2599.1234	3276.2	2385.9
986.6614	2600.4112	3281.2	2386.95
986.7867	2601.6983	3252	2358.6
986.912	2602.9848	3245.65	2353.25
987.0372	2604.2705	3239.25	2339.1
987.1624	2605.5556	3230.4	2338.7
987.2876	2606.84	3236.05	2343.65
987.4128	2608.1237	3222.95	2330.1
987.5379	2609.4067	3208.2	2314.7
987.6629	2610.689	3202.55	2301.75
987.788	2611.9707	3201.15	2305.2
987.913	2613.2516	3172.8	2276.75
988.0379	2614.5319	3169.65	2278.5
988.1629	2615.8115	3146.75	2255
988.2878	2617.0903	3145.4	2253.1
988.4126	2618.3685	3129.9	2237.3
988.5375	2619.6461	3128.15	2236.15
988.6622	2620.9229	3117.2	2225.3
988.787	2622.199	3117.8	2225.55
988.9117	2623.4745	3115.8	2223.85
989.0364	2624.7493	3108.85	2218.3
989.161	2626.0234	3097.25	2205.1
989.2857	2627.2968	3090.55	2200.7
989.4102	2628.5695	3089.3	2195.4
989.5348	2629.8415	3081.95	2191
989.6593	2631.1128	3064.7	2171.4
989.7837	2632.3835	3058.1	2167.75
989.9082	2633.6535	3041.4	2152
990.0326	2634.9228	3056.35	2165.7
990.1569	2636.1914	3042.05	2151.1
990.2812	2637.4593	3050.4	2154
990.4055	2638.7265	3021	2128.7
990.5298	2639.9931	3008.55	2115.7
990.654	2641.259	3015.9	2123.55
990.7782	2642.5242	3004.25	2111.2
990.9023	2643.7887	2984.8	2092.95
991.0264	2645.0525	2975.3	2081.9
991.1505	2646.3156	2979.35	2074.05
991.2745	2647.5781	2973.15	2084.1
991.3985	2648.8398	2963.65	2073.3
991.5225	2650.1009	2962.25	2046.15
991.6464	2651.3613	2961.6	2069.8
991.7703	2652.6211	2941.7	2049.15
991.8942	2653.8801	2930.6	2039.05
992.018	2655.1385	2941.5	2048.05
992.1418	2656.3961	2923.25	2030.55
992.2655	2657.6531	2918.45	2028.75
992.3892	2658.9094	2915	2022.7
992.5129	2660.1651	2912	2023.15
992.6366	2661.42	2901.1	2009.85
992.7602	2662.6743	2904.35	2010.25
992.8837	2663.9279	2907.05	2016.05
993.0073	2665.1808	2897.3	2004
993.1307	2666.433	2881.05	1987.9
993.2542	2667.6846	2870.4	1980
993.3776	2668.9354	2886.45	1993.2
993.501	2670.1856	2882.7	1990.7
993.6244	2671.4351	2873.35	1982.35
993.7477	2672.6839	2875.4	1984.4
993.8709	2673.9321	2861.9	1972.4
993.9942	2675.1795	2861.6	1969.65
994.1174	2676.4263	2854.5	1963.6
994.2405	2677.6724	2851.55	1960.7
994.3637	2678.9179	2849.25	1957.6
994.4868	2680.1626	2846.15	1953.35
994.6098	2681.4067	2847.15	1955.5
994.7328	2682.6501	2836.1	1946.1
994.8558	2683.8928	2828.85	1936.5
994.9788	2685.1348	2823.7	1933.05
995.1017	2686.3761	2810.35	1920.45
995.2245	2687.6168	2808.8	1919.45
995.3474	2688.8568	2790.5	1899.45
995.4702	2690.0961	2781.65	1892.15
995.5929	2691.3348	2788.35	1897.15
995.7156	2692.5727	2773.15	1880.8
995.8383	2693.81	2774.4	1883
995.961	2695.0466	2761.45	1874.5
996.0836	2696.2826	2749.95	1857.75
996.2062	2697.5178	2745.9	1852.95
996.3287	2698.7524	2731.5	1842.15
996.4512	2699.9863	2741.5	1849.4
996.5737	2701.2195	2729.65	1840.4
996.6961	2702.452	2728.7	1833.95
996.8185	2703.6839	2728.55	1839
996.9408	2704.9151	2729	1838.1
997.0631	2706.1456	2721.6	1832.85
997.1854	2707.3755	2738.25	1846.45
997.3077	2708.6046	2733.55	1841.4
997.4299	2709.8331	2743.8	1851.7
997.552	2711.0609	2721.8	1831.1
997.6742	2712.2881	2736.85	1846.1
997.7963	2713.5145	2741.2	1850.25
997.9183	2714.7403	2748.05	1858.15
998.0403	2715.9654	2739.9	1848.15
998.1623	2717.1899	2757.8	1854.2
998.2842	2718.4136	2750.85	1860.85
998.4062	2719.6367	2760.75	1870.05
998.528	2720.8591	2773.8	1876.75
998.6498	2722.0809	2766.8	1875.95
998.7716	2723.3019	2785.45	1893
998.8934	2724.5223	2784.35	1893.7
999.0151	2725.7421	2777.85	1886.75
999.1368	2726.9611	2770.85	1880.75
999.2584	2728.1795	2769.25	1874.6
999.38	2729.3972	2741.6	1851.7
999.5016	2730.6142	2745.35	1846.8
999.6231	2731.8306	2717.15	1828.1
999.7446	2733.0462	2698.05	1805.25
999.8661	2734.2612	2671.95	1777.05
999.9875	2735.4756	2664.75	1772.65
1000.1089	2736.6892	2634.65	1744.45
1000.2302	2737.9022	2615.75	1726.7
1000.3515	2739.1145	2590.2	1702.05
1000.4728	2740.3262	2584.65	1686.45
1000.594	2741.5372	2564.9	1676.05
1000.7152	2742.7475	2542.4	1652.6
1000.8363	2743.9571	2539.5	1647.9
1000.9575	2745.1661	2521	1628.85
1001.0785	2746.3744	2507.2	1617.4
1001.1996	2747.582	2497.05	1606.45
1001.3206	2748.7889	2482.5	1590.6
1001.4415	2749.9952	2467.2	1577.75
1001.5625	2751.2008	2463.25	1574.15
1001.6833	2752.4057	2466.8	1575.3
1001.8042	2753.61	2441.9	1551.4
1001.925	2754.8136	2441.95	1548.55
1002.0458	2756.0165	2424.75	1535
1002.1665	2757.2188	2430.55	1543.15
1002.2872	2758.4204	2427.4	1538.85
1002.4078	2759.6213	2432.2	1541.7
1002.5285	2760.8215	2437	1543.3
1002.649	2762.0211	2405.55	1514.45
1002.7696	2763.22	2402.8	1511.15
1002.8901	2764.4182	2398	1506.7
1003.0106	2765.6158	2398.35	1508.25
1003.131	2766.8127	2386.7	1498.5
1003.2514	2768.009	2384.75	1496.85
1003.3717	2769.2045	2366.75	1477.05
1003.492	2770.3994	2368.9	1477.25
1003.6123	2771.5936	2366.9	1477.05
1003.7325	2772.7872	2355.7	1468.55
1003.8527	2773.9801	2344.2	1453.05
1003.9729	2775.1723	2367.1	1460
1004.093	2776.3639	2331.75	1443
1004.2131	2777.5548	2337.75	1448.05
1004.3331	2778.745	2333	1442.9
1004.4531	2779.9346	2325.7	1436.85
1004.5731	2781.1235	2325.85	1437.8
1004.693	2782.3117	2324.45	1433.85
1004.8129	2783.4992	2335.45	1446.95
1004.9328	2784.6861	2328.1	1438.75
1005.0526	2785.8723	2334.85	1447.65
1005.1723	2787.0579	2334	1446.95
1005.2921	2788.2428	2333.75	1444.45
1005.4118	2789.427	2338	1447
1005.5314	2790.6106	2334.6	1446.55
1005.651	2791.7935	2339.15	1449.2
1005.7706	2792.9757	2353.6	1466.85
1005.8902	2794.1573	2360.3	1464.9
1006.0097	2795.3382	2369.65	1481.8
1006.1291	2796.5184	2386.4	1500
1006.2485	2797.698	2393.3	1503.55
1006.3679	2798.8769	2407.1	1519.3
1006.4873	2800.0551	2432.85	1542.85
1006.6066	2801.2327	2444.45	1553
1006.7258	2802.4096	2445	1556.7
1006.8451	2803.5859	2467.15	1578.3
1006.9642	2804.7615	2483.7	1593.3
1007.0834	2805.9364	2505.3	1618.8
1007.2025	2807.1106	2533.15	1646.6
1007.3216	2808.2842	2568.75	1680.9
1007.4406	2809.4572	2593.55	1704.9
1007.5596	2810.6294	2637.1	1748.6
1007.6785	2811.801	2670.3	1783.6
1007.7975	2812.972	2704.65	1818.9
1007.9163	2814.1423	2748	1859.15
1008.0352	2815.3119	2790.3	1901.55
1008.154	2816.4808	2836.25	1949.7
1008.2727	2817.6491	2887.9	1999.85
1008.3914	2818.8167	2928	2041.1
1008.5101	2819.9837	2971.25	2076.75
1008.6288	2821.15	3016.8	2127
1008.7474	2822.3157	3051.95	2165.9
1008.8659	2823.4807	3099.65	2211.55
1008.9844	2824.645	3145.85	2258.05
1009.1029	2825.8086	3186.35	2299.4
1009.2214	2826.9716	3209.65	2322.75
1009.3398	2828.134	3261.95	2373.8
1009.4581	2829.2957	3296.5	2408.75
1009.5764	2830.4567	3303.15	2415.9
1009.6947	2831.617	3320.35	2431.85
1009.813	2832.7767	3346.6	2460.35
1009.9312	2833.9358	3342.25	2454.55
1010.0493	2835.0941	3326	2435.15
1010.1675	2836.2519	3323.5	2433.75
1010.2855	2837.4089	3291.55	2402.65
1010.4036	2838.5653	3279.65	2391.15
1010.5216	2839.7211	3287.1	2402.15
1010.6396	2840.8761	3300.45	2410.4
1010.7575	2842.0306	3320	2433.55
1010.8754	2843.1843	3362.65	2478.25
1010.9932	2844.3374	3398	2514.4
1011.111	2845.4899	3448.2	2559.3
1011.2288	2846.6417	3538.15	2650.45
1011.3465	2847.7928	3630.65	2742.15
1011.4642	2848.9433	3689.95	2801.7
1011.5818	2850.0931	3764.65	2877.55
1011.6995	2851.2422	3846.15	2958.65
1011.817	2852.3907	3915.3	3030.25
1011.9345	2853.5385	3976.45	3085.65
1012.052	2854.6857	4048.9	3151.4
1012.1695	2855.8323	4072.45	3185
1012.2869	2856.9781	4124.5	3238.85
1012.4042	2858.1233	4167.6	3280.4
1012.5216	2859.2679	4208.15	3321.85
1012.6389	2860.4118	4259.85	3372.35
1012.7561	2861.555	4288.8	3395.7
1012.8733	2862.6976	4330.9	3440.9
1012.9905	2863.8395	4353.4	3466.5
1013.1076	2864.9808	4395.85	3509.45
1013.2247	2866.1214	4404.25	3519.4
1013.3417	2867.2614	4413.6	3525.5
1013.4587	2868.4007	4419.6	3531.55
1013.5757	2869.5393	4416.3	3527.45
1013.6926	2870.6773	4436.3	3546.9
1013.8095	2871.8146	4447.5	3558
1013.9263	2872.9513	4436.7	3548.3
1014.0431	2874.0874	4416.15	3529.85
1014.1599	2875.2227	4412.35	3523.55
1014.2766	2876.3574	4397.25	3511.25
1014.3933	2877.4915	4376.6	3490.25
1014.51	2878.6249	4326.05	3440.4
1014.6266	2879.7577	4318	3431.45
1014.7431	2880.8898	4324.15	3426.6
1014.8596	2882.0212	4269.75	3382.2
1014.9761	2883.152	4260	3373.1
1015.0925	2884.2821	4256.7	3370.4
1015.2089	2885.4116	4227.85	3341.3
1015.3253	2886.5405	4227.85	3340.5
1015.4416	2887.6686	4238.2	3348.55
1015.5579	2888.7962	4257.55	3372.75
1015.6741	2889.923	4254.45	3369.15
1015.7903	2891.0493	4263.7	3376.55
1015.9065	2892.1748	4259.4	3373.25
1016.0226	2893.2997	4273.5	3386.8
1016.1387	2894.424	4281.85	3396.15
1016.2547	2895.5476	4302.3	3416.25
1016.3707	2896.6706	4307.25	3420.8
1016.4866	2897.7929	4343.7	3455.4
1016.6025	2898.9145	4359.9	3473.55
1016.7184	2900.0355	4395.25	3508.15
1016.8342	2901.1559	4429.65	3543.45
1016.95	2902.2756	4460.75	3573.85
1017.0658	2903.3946	4499.85	3612.2
1017.1815	2904.513	4521.65	3633
1017.2971	2905.6308	4532	3647.2
1017.4127	2906.7479	4550.85	3661.65
1017.5283	2907.8643	4581.95	3695.45
1017.6439	2908.9801	4575.35	3687.8
1017.7594	2910.0953	4582.9	3696.65
1017.8748	2911.2098	4588.35	3700.95
1017.9902	2912.3236	4566.2	3672.45
1018.1056	2913.4368	4571.85	3682.1
1018.2209	2914.5494	4545	3658.2
1018.3362	2915.6613	4517.4	3626.15
1018.4515	2916.7725	4480.1	3590.1
1018.5667	2917.8831	4465.75	3577.6
1018.6819	2918.9931	4424.8	3538.45
1018.797	2920.1024	4401.45	3513.25
1018.9121	2921.211	4347.9	3462
1019.0271	2922.319	4355	3467.75
1019.1421	2923.4264	4325.15	3440.65
1019.2571	2924.5331	4298.25	3413.5
1019.372	2925.6391	4312.65	3426.95
1019.4869	2926.7445	4278.85	3393.6
1019.6017	2927.8493	4273.4	3389.4
1019.7165	2928.9534	4268.75	3381.05
1019.8313	2930.0569	4246.85	3359.1
1019.946	2931.1597	4247.4	3358.8
1020.0606	2932.2619	4231.75	3346.2
1020.1753	2933.3634	4229.8	3343.3
1020.2899	2934.4643	4222	3330
1020.4044	2935.5645	4179.5	3288.7
1020.5189	2936.6641	4146.8	3257.1
1020.6334	2937.763	4105.5	3219.9
1020.7478	2938.8613	4040.8	3154
1020.8622	2939.959	3987.1	3097.65
1020.9765	2941.056	3916.05	3030.9
1021.0908	2942.1523	3830.05	2942.55
1021.2051	2943.248	3734.55	2850.15
1021.3193	2944.3431	3640	2754.65
1021.4334	2945.4375	3532.2	2647.1
1021.5476	2946.5313	3430.85	2547.3
1021.6617	2947.6244	3317.4	2430.7
1021.7757	2948.7169	3222.25	2337.7
1021.8897	2949.8087	3115.35	2229.65
1022.0037	2950.8999	3010.55	2123.75
1022.1176	2951.9904	2934.15	2048.6
1022.2315	2953.0803	2863.25	1976.95
1022.3453	2954.1696	2796.65	1910.45
1022.4591	2955.2582	2729.8	1845.2
1022.5728	2956.3462	2692.3	1806.7
1022.6865	2957.4335	2641.1	1755.45
1022.8002	2958.5202	2618.4	1731.15
1022.9138	2959.6062	2583.8	1699.15
1023.0274	2960.6916	2558.1	1673.7
1023.141	2961.7764	2543	1657.65
1023.2545	2962.8605	2520.6	1635.1
1023.3679	2963.9439	2497.45	1611.85
1023.4813	2965.0267	2474.6	1587.25
1023.5947	2966.1089	2506.35	1596.3
1023.708	2967.1905	2472.65	1586.9
1023.8213	2968.2714	2466.25	1582.85
1023.9346	2969.3516	2462.7	1578.5
1024.0478	2970.4312	2462.95	1569.8
1024.1609	2971.5102	2458.05	1571.7
1024.274	2972.5885	2462.35	1578.1
1024.3871	2973.6662	2454.55	1564.75
1024.5002	2974.7432	2437.75	1552.7
1024.6132	2975.8196	2436.05	1549.15
1024.7261	2976.8954	2425.3	1541.25
1024.839	2977.9705	2408.55	1525.3
1024.9519	2979.045	2390.7	1504.1
1025.0647	2980.1188	2373.35	1488.7
1025.1775	2981.192	2362.8	1480.5
1025.2902	2982.2645	2334.9	1448.1
1025.4029	2983.3364	2311.4	1425.85
1025.5156	2984.4077	2278.3	1395.85
1025.6282	2985.4783	2244.75	1354.7
1025.7407	2986.5483	2209.6	1326
1025.8532	2987.6177	2176.9	1293.35
1025.9657	2988.6864	2140.45	1256.2
1026.0782	2989.7545	2112.3	1224.1
1026.1906	2990.8219	2078.85	1194.05
1026.3029	2991.8887	2029.7	1143.75
1026.4152	2992.9548	2007.8	1123.7
1026.5275	2994.0204	1971.6	1087.45
1026.6397	2995.0852	1945.4	1061.05
1026.7519	2996.1495	1912.25	1026.6
1026.864	2997.2131	1882.05	996.65
1026.9761	2998.276	1867.7	982.55
1027.0882	2999.3383	1839.5	954.85
1027.2002	3000.4	1821.9	934.45
1027.3122	3001.4611	1800.95	915.6
1027.4241	3002.5215	1791.75	907.85
1027.536	3003.5812	1769.55	886.85
1027.6478	3004.6404	1755.1	872.3
1027.7596	3005.6989	1757.75	871.5
1027.8714	3006.7567	1740.85	854.75
1027.9831	3007.8139	1753.45	846.95
1028.0947	3008.8705	1727.35	841.45
1028.2064	3009.9264	1727.45	825.8
1028.3179	3010.9818	1719.15	833.85
1028.4295	3012.0364	1711.3	825.15
1028.541	3013.0905	1707.15	825.85
1028.6524	3014.1439	1708.05	822
1028.7638	3015.1966	1697.15	813.15
1028.8752	3016.2487	1702.35	816.75
1028.9865	3017.3002	1702.6	811.55
1029.0978	3018.3511	1696.7	812.15
1029.209	3019.4013	1694.85	811.65
1029.3202	3020.4509	1695.05	809.3
1029.4314	3021.4998	1695.5	810.75
1029.5425	3022.5481	1690.1	805.8
1029.6535	3023.5958	1687.7	803.55
1029.7645	3024.6428	1685.3	802.15
1029.8755	3025.6892	1686.1	801.55
1029.9864	3026.735	1696.1	811.6
1030.0973	3027.7802	1696.85	811.3
1030.2082	3028.8247	1691.8	807.9
1030.319	3029.8685	1691.4	806.8
1030.4297	3030.9118	1699.25	814.5
1030.5404	3031.9544	1700.65	816.85
1030.6511	3032.9963	1701.85	819.65
1030.7617	3034.0376	1698.45	814.95
1030.8723	3035.0783	1706.6	818.95
1030.9829	3036.1184	1709.85	823.95
1031.0934	3037.1578	1711	828.4
1031.2038	3038.1966	1715.6	831.45
1031.3142	3039.2348	1713.4	827.55
1031.4246	3040.2723	1717.15	825.8
1031.5349	3041.3092	1700.65	815.5
1031.6452	3042.3455	1710.55	826.9
1031.7554	3043.3811	1699.1	812.8
1031.8656	3044.4161	1694.2	808.5
1031.9758	3045.4505	1682.6	802.25
1032.0859	3046.4842	1685.85	800.4
1032.1959	3047.5173	1674.15	789.8
1032.3059	3048.5498	1663.45	779.55
1032.4159	3049.5816	1661.4	777.3
1032.5258	3050.6128	1654.05	771.2
1032.6357	3051.6434	1642.25	756.55
1032.7455	3052.6734	1634.35	748.85
1032.8553	3053.7027	1619.6	733.9
1032.9651	3054.7314	1612.85	729.7
1033.0748	3055.7594	1612.6	728.25
1033.1845	3056.7868	1609.55	722.7
1033.2941	3057.8136	1598.75	714.35
1033.4037	3058.8398	1592	710.35
1033.5132	3059.8653	1572.7	689
1033.6227	3060.8902	1577.1	691.75
1033.7321	3061.9145	1567.8	683.25
1033.8415	3062.9381	1560.6	676.1
1033.9509	3063.9612	1575.65	674.7
1034.0602	3064.9835	1537.1	654.1
1034.1694	3066.0053	1544.35	656.85
1034.2787	3067.0264	1531.1	647.7
1034.3878	3068.0469	1524.55	638.05
1034.497	3069.0668	1522.7	635.2
1034.6061	3070.086	1503.45	618.95
1034.7151	3071.1046	1492.1	606
1034.8241	3072.1226	1486	598.2
1034.9331	3073.1399	1478.05	596.8
1035.042	3074.1567	1458.45	573.8
1035.1508	3075.1727	1464.4	579.45
1035.2597	3076.1882	1442.2	558.8
1035.3684	3077.203	1434.45	550.75
1035.4772	3078.2173	1421.2	537.8
1035.5859	3079.2308	1416.85	530
1035.6945	3080.2438	1412.1	525.8
1035.8031	3081.2561	1394.8	510.45
1035.9117	3082.2678	1386.25	504.25
1036.0202	3083.2789	1387.7	505.65
1036.1286	3084.2893	1382	497.35
1036.2371	3085.2991	1363.4	482.8
1036.3454	3086.3083	1367.15	478.1
1036.4538	3087.3169	1357.9	473.35
1036.562	3088.3248	1356.45	470.05
1036.6703	3089.3321	1342.7	458.15
1036.7785	3090.3388	1343.8	460.55
1036.8866	3091.3449	1334.95	451.95
1036.9948	3092.3503	1327.25	441.05
1037.1028	3093.3551	1324.95	443.3
1037.2108	3094.3593	1319.5	437.55
1037.3188	3095.3629	1319.2	434.7
1037.4267	3096.3658	1309.1	423
1037.5346	3097.3681	1308.4	425.5
1037.6425	3098.3698	1310.7	427.85
1037.7503	3099.3708	1309	419.95
1037.858	3100.3713	1291.15	409
1037.9657	3101.3711	1289.9	405.25
1038.0734	3102.3702	1424.55	405.9
1038.181	3103.3688	1291.25	404.45
1038.2886	3104.3667	1278.95	395.6
1038.3961	3105.364	1279.45	398.45
1038.5036	3106.3607	1276.1	391.45
1038.611	3107.3568	1280.1	397.35
1038.7184	3108.3522	1269.15	386.8
1038.8257	3109.347	1269.7	385.4
1038.933	3110.3412	1270.75	382
1039.0403	3111.3348	1259.05	376.3
1039.1475	3112.3277	1260.6	379.4
1039.2547	3113.32	1252.1	369.5
1039.3618	3114.3117	1256.15	372.65
1039.4689	3115.3028	1254.65	372.15
1039.5759	3116.2932	1253.3	368.25
1039.6829	3117.2831	1255.5	368
1039.7898	3118.2723	1247.8	366
1039.8967	3119.2608	1250.35	366.1
1040.0035	3120.2488	1238.45	354.05
1040.1103	3121.2361	1246.4	363.2
1040.2171	3122.2229	1234	352.1
1040.3238	3123.209	1233.95	350.2
1040.4305	3124.1944	1231.2	348.35
1040.5371	3125.1793	1233.2	348.2
1040.6437	3126.1635	1233.05	349.35
1040.7502	3127.1471	1224.05	340.15
1040.8567	3128.1301	1223.35	340.8
1040.9631	3129.1125	1222.15	339.35
1041.0695	3130.0942	1220.85	337.15
1041.1759	3131.0753	1222.4	331.65
1041.2822	3132.0558	1217.1	330
1041.3884	3133.0357	1213.5	329.85
1041.4946	3134.015	1207.2	323.6
1041.6008	3134.9936	1210.1	325.4
1041.7069	3135.9716	1231.75	330.45
1041.813	3136.949	1205.85	322.1
1041.919	3137.9258	1216.25	315.5
1042.025	3138.902	1204.05	314.35
1042.1309	3139.8775	1199.95	317.8
1042.2368	3140.8524	1202.35	318.8
1042.3427	3141.8267	1192.85	308.9
1042.4485	3142.8004	1192.55	309.4
1042.5542	3143.7735	1196.7	308.45
1042.6599	3144.7459	1195.35	310.7
1042.7656	3145.7178	1191.8	307.8
1042.8712	3146.689	1187.15	303.75
1042.9768	3147.6596	1184.4	299.25
1043.0823	3148.6295	1181.2	296.35
1043.1878	3149.5989	1183.6	301.35
1043.2932	3150.5676	1177.7	294.15
1043.3986	3151.5357	1176.8	294.95
1043.5039	3152.5032	1176.15	295.6
1043.6092	3153.4701	1170.45	287.85
1043.7145	3154.4364	1175.4	288.2
1043.8197	3155.402	1169.6	288.9
1043.9248	3156.367	1167.3	281.3
1044.03	3157.3315	1202.75	286.15
1044.135	3158.2952	1168.35	284.95
1044.24	3159.2584	1163.25	281.35
1044.345	3160.221	1162.55	279.45
1044.4499	3161.1829	1163.3	281.65
1044.5548	3162.1442	1157.3	273.75
1044.6596	3163.105	1156.1	272.25
1044.7644	3164.065	1158.9	274.35
1044.8692	3165.0245	1153.35	268.6
1044.9739	3165.9834	1146.4	264.55
1045.0785	3166.9416	1143.15	261.35
1045.1831	3167.8993	1150.85	267
1045.2877	3168.8563	1145.85	263.35
1045.3922	3169.8127	1147.15	264.35
1045.4966	3170.7684	1139.7	256.75
1045.6011	3171.7236	1144.3	260.75
1045.7054	3172.6782	1139.95	258
1045.8098	3173.6321	1140.3	258
1045.914	3174.5854	1142.95	256.15
1046.0183	3175.5381	1137.3	253.8
1046.1224	3176.4902	1132.05	252
1046.2266	3177.4417	1131.75	249.1
1046.3307	3178.3926	1131.2	250.15
1046.4347	3179.3428	1127.75	246.55
1046.5387	3180.2924	1131.4	249.4
1046.6427	3181.2415	1125.75	242.35
1046.7466	3182.1899	1128.15	244.2
1046.8504	3183.1377	1121.75	239.45
1046.9542	3184.0848	1125.65	238.75
1047.058	3185.0314	1117.25	234.1
1047.1617	3185.9773	1119.15	236.3
1047.2654	3186.9227	1119.15	235.25
1047.369	3187.8674	1119.3	238.55
1047.4726	3188.8115	1119.45	234.55
1047.5761	3189.755	1111.65	229.25
1047.6796	3190.6979	1113.3	231.45
1047.783	3191.6402	1116.95	234.3
1047.8864	3192.5818	1109.15	227.5
1047.9898	3193.5229	1111.5	223.6
1048.0931	3194.4633	1110.45	228.45
1048.1963	3195.4031	1111.35	226.45
1048.2995	3196.3423	1104.65	222.35
1048.4027	3197.2809	1107.1	225.45
1048.5058	3198.2189	1103.3	220.7
1048.6089	3199.1563	1109.6	220.55
1048.7119	3200.0931	1098.3	217.65
1048.8148	3201.0292	1095.5	214.25
1048.9178	3201.9648	1101.05	218.95
1049.0206	3202.8997	1099.65	214.8
1049.1235	3203.834	1096.95	214.3
1049.2262	3204.7677	1099.85	218.3
1049.329	3205.7008	1095.2	210.1
1049.4317	3206.6333	1098.75	218.2
1049.5343	3207.5652	1096.55	213.1
1049.6369	3208.4964	1090.5	208.25
1049.7394	3209.4271	1086.1	204.7
1049.8419	3210.3571	1086.55	205.25
1049.9444	3211.2865	1089.65	206.45
1050.0468	3212.2154	1088.05	202.8
1050.1491	3213.1436	1093.2	209.85
1050.2514	3214.0712	1093.7	205.45
1050.3537	3214.9982	1087.2	203.05
1050.4559	3215.9246	1086.35	202.6
1050.5581	3216.8503	1081.35	199.7
1050.6602	3217.7755	1080.85	197.25
1050.7623	3218.7001	1082.3	201.2
1050.8643	3219.624	1078.85	196.85
1050.9663	3220.5473	1078.45	195.55
1051.0682	3221.4701	1079.55	195.55
1051.1701	3222.3922	1081.55	197.4
1051.2719	3223.3137	1077.2	195.05
1051.3737	3224.2346	1073.6	190.4
1051.4754	3225.1549	1070.35	187.5
1051.5771	3226.0746	1071.75	189.7
1051.6788	3226.9937	1071.8	188.95
1051.7804	3227.9121	1070.35	189.15
1051.8819	3228.83	1069.15	187.1
1051.9834	3229.7473	1067.95	184.65
1052.0849	3230.6639	1063.8	182.15
1052.1863	3231.5799	1063.05	181.95
1052.2876	3232.4954	1066.55	183.45
1052.3889	3233.4102	1063.35	180.3
1052.4902	3234.3244	1064.95	181.55
1052.5914	3235.238	1060.2	178.25
1052.6926	3236.151	1088.2	179.45
1052.7937	3237.0634	1061.1	180.2
1052.8948	3237.9752	1058.95	175.7
1052.9958	3238.8864	1057.9	175.35
1053.0968	3239.797	1054.45	174.05
1053.1977	3240.7069	1056.3	173.45
1053.2986	3241.6163	1056.15	172.9
1053.3994	3242.5251	1049.45	167.1
1053.5002	3243.4332	1051.6	170.65
1053.6009	3244.3408	1052.6	169.25
1053.7016	3245.2477	1050.95	169.65
1053.8022	3246.154	1048.25	165
1053.9028	3247.0598	1051.85	168.7
1054.0034	3247.9649	1047.95	164.9
1054.1039	3248.8694	1047.35	166.7
1054.2043	3249.7733	1044.6	161.9
1054.3047	3250.6766	1044.95	162.7
1054.4051	3251.5793	1040.9	158.4
1054.5054	3252.4814	1039.05	156.55
1054.6056	3253.3829	1033.15	152.15
1054.7058	3254.2838	1036.45	154.3
1054.806	3255.1841	1037.7	157.05
1054.9061	3256.0838	1036.6	155.75
1055.0061	3256.9829	1033.05	151.6
1055.1062	3257.8814	1034.7	150.95
1055.2061	3258.7792	1030.95	146.45
1055.306	3259.6765	1034.55	152.35
1055.4059	3260.5731	1026.7	145.2
1055.5057	3261.4692	1028.25	145.35
1055.6055	3262.3647	1026.6	146.05
1055.7052	3263.2595	1024.75	142.25
1055.8049	3264.1538	1018.95	135.85
1055.9045	3265.0474	1021.3	140.5
1056.0041	3265.9404	1014.5	132.45
1056.1036	3266.8329	1013.75	133.45
1056.2031	3267.7247	1020.95	128.85
1056.3025	3268.616	1008.85	127.8
1056.4019	3269.5066	1005.15	122.35
1056.5013	3270.3966	1006.05	121.7
1056.6005	3271.286	1000.15	119.85
