Software Version:	3.9.2.0
Unit SN:	10000200
Spectrometer SN:	6960
Date:	3/26/2024 1:53:00 PM
Data Line Index:	25
Spectral Points:	2048
Integration time (ms):	125
Averages:	20
Delay (ms):	30000
Sequence Number:	1
Processing:	dark subtract
Laser Power (mW):	300
Laser Current (mA):	821
Laser Diode Temp (C):	25.1
Laser Case Temp (C):	27.3
System Temp (C):	27.3
Spectrometer Temp (C):	25.3
CCD Temp (C):	0.012
Secondary Temp (C):	20.004
Heatsink Temp (C):	22.536
CCDPCB Temp (C):	36.863
SecondaryPCB Temp (C):	34.384

Wavelength	RamanShift	Raw Counts	Dark Subtracted
787.061	30.1047	581.55	169.9
787.2016	32.3739	585.4	175
787.3422	34.6426	600.65	189.5
787.4828	36.9109	611.85	198.9
787.6235	39.1787	627.85	212.2
787.7642	41.4461	651.3	229.05
787.9049	43.7131	663.4	237.55
788.0456	45.9796	686.85	259.05
788.1863	48.2456	711.25	279.25
788.3271	50.5112	721.3	285.55
788.4679	52.7764	743.9	306.45
788.6087	55.0411	765.95	325.1
788.7496	57.3054	791.75	344.55
788.8904	59.5692	814.05	366.75
789.0313	61.8326	842.4	390.6
789.1722	64.0955	874.25	417.2
789.3132	66.3579	908.75	447.95
789.4541	68.6199	956.25	492.75
789.5951	70.8815	1025	559.45
789.7361	73.1426	1185.85	714.85
789.8771	75.4032	1579.15	1100
790.0181	77.6634	2542.55	2058
790.1592	79.9231	4958.6	4465.55
790.3003	82.1824	10458.4	9946.5
790.4414	84.4412	21335.45	20786.85
790.5825	86.6995	40441.7	39848.9
790.7237	88.9574	53466.1	52829.1
790.8648	91.2148	59289.45	58616.05
791.006	93.4717	60723.8	60034.35
791.1472	95.7282	61294.05	60591.05
791.2885	97.9842	61461	60753.35
791.4297	100.2398	61448.9	60735.85
791.571	102.4949	61324.2	60613.9
791.7123	104.7495	61302.75	60590.65
791.8536	107.0036	61033.5	60318.8
791.9949	109.2573	61216.35	60499.3
792.1363	111.5105	60834.5	60114.7
792.2777	113.7632	60856.05	60135.7
792.4191	116.0154	60905.65	60173.95
792.5605	118.2672	61046.05	60318.3
792.7019	120.5185	60977.1	60252.15
792.8434	122.7693	60918.95	60191.6
792.9849	125.0197	60571.5	59839.4
793.1264	127.2696	61149.2	60418.85
793.2679	129.519	61032.5	60292.25
793.4094	131.7679	61223.5	60481.05
793.551	134.0163	60568.4	59817.45
793.6926	136.2642	60808.9	60060.9
793.8342	138.5117	61145	60390.75
793.9758	140.7587	60930.65	60181.15
794.1175	143.0052	60917.5	60160.6
794.2591	145.2512	60506.5	59750.2
794.4008	147.4967	60945.05	60190.05
794.5425	149.7417	60774.7	60018.2
794.6842	151.9863	60747.15	59988.4
794.826	154.2304	60488.45	59722.25
794.9677	156.4739	60631.9	59864.35
795.1095	158.717	60877.75	60107.35
795.2513	160.9596	60644.95	59872.7
795.3931	163.2017	60278.9	59504.4
795.535	165.4433	60580.1	59804.1
795.6768	167.6844	60295.45	59515.8
795.8187	169.925	60423.75	59644.8
795.9606	172.1651	60167.75	59387.35
796.1025	174.4047	60226.8	59439.5
796.2445	176.6439	60180.6	59397.95
796.3864	178.8825	60024.7	59231.85
796.5284	181.1206	60321.05	59523.95
796.6704	183.3582	60207	59404.95
796.8124	185.5954	60017.7	59218.75
796.9544	187.832	60098.75	59297.55
797.0965	190.0681	59853	59048.25
797.2386	192.3037	60227.35	59420
797.3806	194.5388	60628.5	59814.15
797.5228	196.7734	59662.4	58846.4
797.6649	199.0075	60574.15	59753.15
797.807	201.2411	60261.85	59437.3
797.9492	203.4742	60729.3	59911.15
798.0914	205.7068	60628.65	59805.5
798.2336	207.9389	60646.85	59825.3
798.3758	210.1704	60618.55	59794.25
798.518	212.4015	60925.35	60097.2
798.6603	214.632	60552.35	59727.55
798.8025	216.862	60967.2	60150.25
798.9448	219.0915	60820.8	60013.15
799.0871	221.3205	60757.35	59948.2
799.2294	223.549	61041.95	60234.2
799.3718	225.777	61048.05	60244.6
799.5141	228.0044	61143.8	60333.5
799.6565	230.2314	61140.5	60338.35
799.7989	232.4578	61164.35	60358.5
799.9413	234.6837	61191.9	60377.05
800.0837	236.909	61421.9	60603.25
800.2262	239.1339	61064.6	60221.15
800.3687	241.3582	61264.9	60438.9
800.5111	243.582	61248.45	60386.8
800.6536	245.8053	61238.8	60397.65
800.7961	248.0281	61235.55	60397.25
800.9387	250.2503	61257.75	60413.6
801.0812	252.472	61131.7	60283.55
801.2238	254.6932	61197.05	60342.2
801.3664	256.9139	61147.85	60299.85
801.509	259.134	61369.55	60516.35
801.6516	261.3536	61127.4	60271.85
801.7942	263.5727	61325.15	60466.6
801.9369	265.7912	61251.85	60396.8
802.0795	268.0092	61282.4	60430.6
802.2222	270.2267	61280.3	60426.9
802.3649	272.4436	61207.6	60351.4
802.5076	274.6601	61247.5	60381.75
802.6504	276.8759	61259.9	60405.15
802.7931	279.0913	61267.8	60409.7
802.9359	281.3061	61248.35	60388.85
803.0787	283.5204	61297.1	60434.15
803.2215	285.7341	61258.65	60387.5
803.3643	287.9473	61353.85	60473
803.5071	290.16	61297.5	60423.2
803.6499	292.3721	61442.05	60575
803.7928	294.5837	61273.4	60403.15
803.9357	296.7947	61240.65	60365.6
804.0786	299.0052	61385.9	60517.55
804.2215	301.2152	61307.6	60435.15
804.3644	303.4246	61384.7	60517.95
804.5074	305.6334	61317.35	60447.3
804.6503	307.8418	61173.8	60302.6
804.7933	310.0495	61164.7	60291.6
804.9363	312.2568	61093.8	60222
805.0793	314.4635	61040.05	60167.2
805.2223	316.6696	61080.65	60202.8
805.3653	318.8752	61102.65	60219.9
805.5084	321.0802	60764.75	59889.3
805.6514	323.2847	60986.1	60106.95
805.7945	325.4887	60944.6	60067.1
805.9376	327.692	60868.7	59984.4
806.0807	329.8949	60935.85	60053.75
806.2238	332.0972	60842.9	59962.05
806.367	334.2989	60860.85	59975.7
806.5101	336.5001	60897.1	60007
806.6533	338.7007	60545.55	59659.15
806.7965	340.9008	60783.15	59899.4
806.9397	343.1003	60769.45	59880.05
807.0829	345.2992	60849.5	59960.9
807.2261	347.4976	60669.85	59776.55
807.3693	349.6955	60755.3	59858.6
807.5126	351.8927	60629.55	59732
807.6559	354.0895	60701.7	59791.95
807.7991	356.2856	60730	59829.8
807.9424	358.4812	60845.05	59944.9
808.0857	360.6763	60556.65	59660.85
808.2291	362.8707	60780.75	59881.9
808.3724	365.0646	60675.15	59776.05
808.5158	367.258	60668.75	59770.15
808.6591	369.4508	60422.25	59518.2
808.8025	371.643	60780.05	59871.75
808.9459	373.8346	60624.2	59716.75
809.0893	376.0257	60627.05	59716.75
809.2327	378.2162	60572.35	59665.2
809.3762	380.4062	60266.15	59358.15
809.5196	382.5956	60533.3	59622.5
809.6631	384.7844	60449.8	59543.75
809.8066	386.9726	60533.7	59624.75
809.9501	389.1603	60500.9	59592
810.0936	391.3474	60291.85	59343.55
810.2371	393.5339	60447.2	59537.15
810.3806	395.7199	60059.1	59152.8
810.5241	397.9052	60166.85	59264.95
810.6677	400.09	60226.35	59327.55
810.8113	402.2743	60449.45	59553.75
810.9548	404.4579	60155.9	59254.25
811.0984	406.641	60239.2	59337
811.2421	408.8235	60374.4	59474.8
811.3857	411.0054	60497.15	59593.7
811.5293	413.1868	60574	59662.95
811.673	415.3675	60489.95	59582
811.8166	417.5477	60498.9	59587.75
811.9603	419.7273	60533.15	59625.55
812.104	421.9064	60431.2	59514.3
812.2477	424.0848	60421.2	59511.4
812.3914	426.2627	60548.3	59636.1
812.5351	428.4399	60232.7	59320.55
812.6788	430.6166	59848	58929.2
812.8226	432.7928	60132.3	59215.95
812.9663	434.9683	59830.65	58915.3
813.1101	437.1432	59748.5	58835.35
813.2539	439.3176	59901.1	58987.25
813.3977	441.4914	59468.5	58560.85
813.5415	443.6645	59524.15	58611.75
813.6853	445.8371	59539.1	58621.4
813.8291	448.0091	59357.55	58441.55
813.973	450.1806	59246.9	58332.25
814.1168	452.3514	59293.25	58382.5
814.2607	454.5216	59046.1	58126.95
814.4046	456.6913	59256.85	58340.15
814.5485	458.8603	59360.4	58444.6
814.6924	461.0288	59026.55	58118.5
814.8363	463.1967	59266.75	58361.5
814.9802	465.3639	59241	58329.6
815.1241	467.5306	58760.35	57846.4
815.2681	469.6967	59064.25	58155.75
815.412	471.8622	59256.2	58350
815.556	474.0271	59054.35	58141.05
815.7	476.1914	59117.55	58201.4
815.844	478.3551	59112.85	58196.2
815.988	480.5182	59447.55	58533.5
816.132	482.6807	59027.8	58119.9
816.276	484.8426	59066.15	58169.85
816.4201	487.0039	59510.9	58600.9
816.5641	489.1647	59544.55	58625.7
816.7082	491.3248	59241.35	58323.35
816.8522	493.4843	59655.7	58740.1
816.9963	495.6432	59675.3	58763
817.1404	497.8015	59144.85	58225.6
817.2845	499.9592	59438	58514.45
817.4286	502.1163	59401.85	58476.55
817.5727	504.2728	59238.6	58322.05
817.7168	506.4287	59166.9	58257.95
817.861	508.5839	58892.85	57981.3
818.0051	510.7386	58988.55	58076.85
818.1493	512.8927	58996.8	58072.3
818.2935	515.0461	58897.55	57980
818.4377	517.199	59138.45	58215.15
818.5818	519.3512	58916.05	57992.35
818.726	521.5029	58963.65	58038.7
818.8703	523.6539	59022.8	58103.75
819.0145	525.8043	58669.35	57746.05
819.1587	527.9541	58947.05	58023
819.303	530.1033	58884	57959.1
819.4472	532.2519	58751.8	57829.05
819.5915	534.3999	58992.85	58065.25
819.7357	536.5472	59139.15	58217
819.88	538.694	58771.55	57852.4
820.0243	540.8401	59095.35	58169.8
820.1686	542.9856	59235.05	58301.05
820.3129	545.1305	59398.1	58462.4
820.4572	547.2748	59103.65	58161.5
820.6016	549.4185	58943.2	58001.35
820.7459	551.5615	59149.35	58213.45
820.8902	553.704	59053.4	58114.75
821.0346	555.8458	58852.05	57917.7
821.1789	557.987	58927.55	57999.95
821.3233	560.1276	59074	58140.4
821.4677	562.2675	58984.65	58049.3
821.6121	564.4069	59062.35	58123.05
821.7565	566.5456	59218.1	58283.45
821.9009	568.6837	58914.4	57983
822.0453	570.8212	58937.3	58006.35
822.1897	572.958	58396.8	57462.95
822.3342	575.0942	58650.2	57721.1
822.4786	577.2299	58375.8	57449.7
822.6231	579.3648	58249.3	57336.7
822.7675	581.4992	58152.8	57246.8
822.912	583.6329	58181.95	57277.45
823.0565	585.766	58216.15	57305.45
823.201	587.8985	58304.8	57385.45
823.3454	590.0304	57937.25	56987.45
823.4899	592.1616	58206.25	57273.35
823.6345	594.2922	57963.1	57029.7
823.779	596.4222	57711.4	56775.5
823.9235	598.5515	57741.85	56805.7
824.068	600.6802	57849.3	56912.35
824.2126	602.8083	57407.6	56472.8
824.3571	604.9358	57388.75	56457.7
824.5017	607.0626	57667.5	56730.3
824.6462	609.1888	57224.55	56280.1
824.7908	611.3144	57494	56553
824.9354	613.4393	57338.6	56397.9
825.08	615.5636	57088.8	56150
825.2246	617.6873	57300.6	56361.15
825.3692	619.8103	56949.95	56009.6
825.5138	621.9327	57250.75	56312.35
825.6584	624.0544	57255	56324.15
825.803	626.1756	57092.5	56158.85
825.9477	628.2961	57005.8	56070
826.0923	630.4159	56854	55910.35
826.237	632.5351	56767.2	55827.2
826.3816	634.6537	57231.35	56288.25
826.5263	636.7716	56694.6	55749.85
826.6709	638.8889	56817.25	55866.9
826.8156	641.0056	56780.15	55830.35
826.9603	643.1216	56840.8	55894.95
827.105	645.237	56943.85	55999.35
827.2497	647.3518	56618.8	55683.45
827.3944	649.4659	56705.15	55775.5
827.5391	651.5793	56691.65	55761
827.6838	653.6922	56760.6	55827.3
827.8285	655.8043	56320.55	55383.45
827.9733	657.9159	56893.75	55957.8
828.118	660.0268	55908.65	54968.5
828.2627	662.137	56379.35	55438.85
828.4075	664.2466	56468.3	55523.45
828.5522	666.3556	56258.25	55316.05
828.697	668.4639	56383	55444.55
828.8418	670.5716	56188.2	55254.7
828.9865	672.6786	56372.05	55432.2
829.1313	674.785	55995.6	55049.95
829.2761	676.8907	56021.1	55078.7
829.4209	678.9958	56172	55236.2
829.5657	681.1002	56200.35	55257.9
829.7105	683.204	55912.55	54959.9
829.8553	685.3072	55695.1	54743.6
830.0001	687.4097	55789.3	54844.9
830.1449	689.5115	55686.35	54743.4
830.2898	691.6127	55906.85	54964.8
830.4346	693.7132	55575.85	54635.45
830.5794	695.8131	55653.5	54686.95
830.7243	697.9123	55719.3	54771.9
830.8691	700.0109	55765.2	54811.25
831.014	702.1089	55384.4	54437.25
831.1588	704.2061	55484.5	54543.7
831.3037	706.3028	55560.5	54610.15
831.4486	708.3987	55552.35	54604.4
831.5935	710.4941	55371.85	54425.1
831.7383	712.5887	55628.5	54682.5
831.8832	714.6827	55487.65	54539.25
832.0281	716.7761	55764.1	54824.8
832.173	718.8688	55899.1	54957
832.3179	720.9608	55698.95	54748.4
832.4628	723.0522	55757.85	54800.65
832.6077	725.1429	55422.35	54470.65
832.7527	727.233	55998.1	55051.3
832.8976	729.3224	55022.85	54076
833.0425	731.4112	55265.35	54315.35
833.1874	733.4993	55201.25	54248.35
833.3324	735.5867	55108.75	54159.75
833.4773	737.6735	54861.9	53913.75
833.6222	739.7596	54572.4	53621.2
833.7672	741.845	54535.55	53588.65
833.9122	743.9298	54768.75	53818.05
834.0571	746.014	54441.65	53490.95
834.2021	748.0974	54227.6	53275
834.347	750.1802	54666.5	53712.2
834.492	752.2624	54012.85	53062.25
834.637	754.3439	54072.05	53119.6
834.782	756.4247	54242.2	53280.2
834.9269	758.5048	54001.25	53046.9
835.0719	760.5843	54105.9	53155.4
835.2169	762.6631	54312.2	53357.45
835.3619	764.7413	54356	53406.55
835.5069	766.8188	54581.05	53629.55
835.6519	768.8956	54835.95	53884.7
835.7969	770.9718	54938.2	53983.75
835.9419	773.0473	54766.3	53814.9
836.0869	775.1221	54383.4	53431.2
836.232	777.1962	54177.9	53227.8
836.377	779.2697	53759.8	52804.15
836.522	781.3426	53937.9	52973.8
836.667	783.4147	54030.55	53074.6
836.8121	785.4862	54037.2	53085.5
836.9571	787.557	53708.05	52754.2
837.1021	789.6271	53862	52906.75
837.2472	791.6966	53329.75	52379.25
837.3922	793.7654	52740.85	51785.2
837.5373	795.8335	52611.5	51656.25
837.6823	797.901	52576.1	51621.35
837.8274	799.9678	52335.4	51379.1
837.9724	802.0339	52208.1	51250.75
838.1175	804.0993	52224.4	51264
838.2626	806.1641	52027.7	51068.8
838.4076	808.2282	51900.1	50946.2
838.5527	810.2916	51765.65	50808.6
838.6978	812.3544	51900.45	50949.35
838.8428	814.4164	51412.95	50459.35
838.9879	816.4778	51587.25	50625.9
839.133	818.5385	51529.3	50574.65
839.2781	820.5986	51527.1	50566.45
839.4232	822.658	51618.4	50658.25
839.5682	824.7166	51699.55	50744.1
839.7133	826.7747	51548.85	50595.4
839.8584	828.832	51867	50905.95
840.0035	830.8886	52086.05	51127.3
840.1486	832.9446	52125.95	51168.85
840.2937	834.9999	51427.85	50476.5
840.4388	837.0545	51655.55	50697.25
840.5839	839.1085	51611.75	50654.85
840.729	841.1618	51386.1	50424.4
840.8741	843.2143	50868.4	49914.95
841.0192	845.2662	50763.35	49807.4
841.1643	847.3175	50856.45	49901.9
841.3095	849.368	50274.85	49315.4
841.4546	851.4179	50567.8	49611.95
841.5997	853.467	50119.05	49164.3
841.7448	855.5155	50253.1	49296.25
841.8899	857.5633	49867.9	48911
842.0351	859.6105	49673.6	48716.35
842.1802	861.6569	49770.1	48810.85
842.3253	863.7027	49385.3	48426.7
842.4704	865.7478	49471.4	48515.15
842.6156	867.7922	49389.9	48433.6
842.7607	869.8359	49522.7	48564.8
842.9058	871.8789	49075.5	48122.6
843.0509	873.9212	49371.7	48382.2
843.1961	875.9629	49341.7	48386.05
843.3412	878.0039	49304.05	48343.55
843.4863	880.0441	49224.95	48270.1
843.6315	882.0837	49184.3	48227.6
843.7766	884.1226	49170.4	48211.45
843.9218	886.1609	49085.95	48129.8
844.0669	888.1984	48940.35	47986.3
844.212	890.2352	49224.6	48267.4
844.3572	892.2714	48759.1	47799
844.5023	894.3069	48871.2	47913.35
844.6475	896.3416	48566.05	47603.6
844.7926	898.3757	48443.85	47483.85
844.9377	900.4091	48076.55	47114.15
845.0829	902.4418	48443.5	47480.75
845.228	904.4739	48099.95	47137.85
845.3732	906.5052	48178.05	47215.25
845.5183	908.5358	47944.1	46984.55
845.6635	910.5658	47722.5	46763.1
845.8086	912.595	47555.7	46595.2
845.9538	914.6236	47077.45	46115.15
846.0989	916.6515	47550.1	46592.2
846.2441	918.6786	46875.4	45912.85
846.3892	920.7051	47012.4	46048.45
846.5344	922.7309	46968	46009.5
846.6795	924.756	46936.55	45974.7
846.8246	926.7804	46824.9	45865.55
846.9698	928.8041	46317.05	45354.95
847.1149	930.8272	46530.65	45574.25
847.2601	932.8495	46427.8	45469.4
847.4052	934.8711	46203.3	45244.55
847.5504	936.892	45974.7	45014.35
847.6955	938.9123	45878.7	44920.9
847.8407	940.9318	45700.45	44741.9
847.9858	942.9506	45549.05	44590.15
848.131	944.9688	45493.7	44533.05
848.2761	946.9862	45073.3	44116.5
848.4213	949.003	44981.75	44020.4
848.5664	951.019	44692.7	43732.55
848.7115	953.0344	44666.45	43708.95
848.8567	955.0491	44597.95	43639
849.0018	957.063	44646.15	43687.2
849.147	959.0763	44745.05	43778.85
849.2921	961.0888	44545.95	43587.7
849.4373	963.1007	44648.7	43691.8
849.5824	965.1119	44544.55	43597.8
849.7275	967.1223	44446.1	43500.2
849.8727	969.1321	44479.5	43533.5
850.0178	971.1412	44199.35	43251.05
850.1629	973.1495	44067.85	43113.15
850.3081	975.1572	44162.45	43165.45
850.4532	977.1641	44072.5	43110.55
850.5983	979.1704	43899.6	42943.7
850.7435	981.1759	43786.7	42828.1
850.8886	983.1808	43673.05	42712.65
851.0337	985.1849	43627.4	42658.6
851.1788	987.1884	43608.1	42648.1
851.324	989.1911	43689.85	42734.15
851.4691	991.1932	43484.85	42530.1
851.6142	993.1945	43406.9	42450.85
851.7593	995.1951	43271.75	42313.4
851.9045	997.1951	43161.8	42201.9
852.0496	999.1943	42929.65	41976.05
852.1947	1001.1928	42816.8	41857.6
852.3398	1003.1906	42697.2	41739.15
852.4849	1005.1877	42643.4	41686.45
852.63	1007.1841	42437.95	41483.05
852.7751	1009.1798	42310	41355.55
852.9202	1011.1748	42109.55	41154.65
853.0653	1013.1691	41890.95	40938.25
853.2104	1015.1627	41533.35	40575.95
853.3555	1017.1556	41194.75	40238.8
853.5006	1019.1477	41113.6	40159.55
853.6457	1021.1392	40772.15	39825.7
853.7908	1023.1299	40594.9	39649.25
853.9359	1025.12	40473.3	39531.9
854.081	1027.1093	40283	39351.3
854.2261	1029.0979	40323.95	39394.75
854.3712	1031.0859	40235.9	39299.8
854.5163	1033.0731	40068.05	39125.1
854.6613	1035.0596	39919.1	38974.1
854.8064	1037.0454	39654.7	38706.4
854.9515	1039.0304	39501.6	38547.15
855.0965	1041.0148	39253.7	38302.75
855.2416	1042.9985	39089.35	38131.65
855.3867	1044.9814	39042.05	38088.3
855.5317	1046.9636	38796.85	37845.55
855.6768	1048.9452	38687.9	37740.2
855.8219	1050.926	38658.55	37706.85
855.9669	1052.9061	38536.4	37584.8
856.112	1054.8855	38517.1	37562.05
856.257	1056.8642	38424.55	37470.9
856.4021	1058.8421	38376	37419.75
856.5471	1060.8194	38294.4	37339.8
856.6921	1062.7959	38208.45	37255.15
856.8372	1064.7717	38152.9	37201.55
856.9822	1066.7469	38087.9	37133.4
857.1272	1068.7213	38028.5	37073.95
857.2723	1070.695	37985	37035.95
857.4173	1072.6679	37767.75	36812.8
857.5623	1074.6402	37773.2	36819.6
857.7073	1076.6117	37680.65	36718.7
857.8523	1078.5826	37609.7	36654.75
857.9973	1080.5527	37437.15	36484.1
858.1423	1082.5221	37287.05	36337
858.2873	1084.4908	37318	36367.9
858.4323	1086.4587	37277.65	36323.8
858.5773	1088.426	37343.05	36388.2
858.7223	1090.3925	37121.35	36165.95
858.8673	1092.3584	37093.7	36144.1
859.0123	1094.3235	36839.1	35886.2
859.1573	1096.2879	36764.45	35811.75
859.3022	1098.2515	36742.5	35791.8
859.4472	1100.2145	36762	35809.3
859.5922	1102.1767	36743.65	35788.65
859.7371	1104.1382	36814.4	35863.6
859.8821	1106.099	36914.25	35964.55
860.027	1108.0591	36946.65	35993.55
860.172	1110.0185	36961.3	36006.8
860.3169	1111.9771	36949.15	35998.4
860.4619	1113.9351	36721	35769.15
860.6068	1115.8923	36438.85	35489.1
860.7517	1117.8488	36184.75	35229.6
860.8967	1119.8045	35849.8	34898.2
861.0416	1121.7596	35761.05	34810.15
861.1865	1123.7139	35558.2	34612.2
861.3314	1125.6675	35471.8	34520.1
861.4763	1127.6204	35551.35	34600.95
861.6212	1129.5726	35364.9	34411.2
861.7661	1131.524	35314.45	34364.75
861.911	1133.4748	35163.95	34213.85
862.0559	1135.4248	34918.8	33966.15
862.2008	1137.3741	34857.55	33906.2
862.3457	1139.3226	34724.15	33773.75
862.4905	1141.2705	34628.65	33679.15
862.6354	1143.2176	34463.55	33505.95
862.7803	1145.164	34346.8	33395.35
862.9251	1147.1097	34267	33316.15
863.07	1149.0546	34169.65	33219.1
863.2148	1150.9989	34071.35	33119.8
863.3597	1152.9424	33998.85	33046.25
863.5045	1154.8852	33841.25	32894.05
863.6493	1156.8272	33731.65	32781.25
863.7942	1158.7686	33725.95	32770.25
863.939	1160.7092	33565.75	32614.5
864.0838	1162.6491	33424.35	32470.75
864.2286	1164.5883	33451.3	32500.65
864.3734	1166.5267	33420.65	32468.3
864.5182	1168.4644	33513.8	32565.05
864.663	1170.4014	33563.25	32610.3
864.8078	1172.3377	33708.5	32764.65
864.9526	1174.2732	33845.05	32897.1
865.0974	1176.2081	34018.25	33070.6
865.2421	1178.1421	34215.4	33264.2
865.3869	1180.0755	34478.8	33533.15
865.5317	1182.0082	34466.35	33519.25
865.6764	1183.9401	34503.2	33555.75
865.8212	1185.8713	34307.15	33362.75
865.9659	1187.8017	34074	33137.25
866.1106	1189.7315	33796.05	32867.6
866.2554	1191.6605	33363.8	32435.15
866.4001	1193.5888	33119.15	32185.05
866.5448	1195.5163	32895.05	31958.75
866.6895	1197.4432	32826.7	31881.15
866.8342	1199.3693	32689.3	31747.25
866.9789	1201.2947	32565	31615.75
867.1236	1203.2193	32442.4	31498.25
867.2683	1205.1432	32394.15	31446
867.413	1207.0664	32265.55	31318.1
867.5576	1208.9889	32172.1	31223.7
867.7023	1210.9106	32052.5	31109.55
867.847	1212.8316	31949.8	31006.1
867.9916	1214.7519	31940.05	30984.65
868.1363	1216.6715	31879.55	30934.05
868.2809	1218.5903	31853.4	30908.4
868.4255	1220.5084	31765.15	30819.3
868.5701	1222.4257	31804.4	30862.6
868.7148	1224.3424	31628.5	30685.4
868.8594	1226.2583	31663.85	30713.65
869.004	1228.1735	31631.65	30686.95
869.1486	1230.0879	31583.5	30636.65
869.2932	1232.0016	31647.55	30705.45
869.4377	1233.9146	31639.25	30690.45
869.5823	1235.8269	31460.35	30512.85
869.7269	1237.7384	31421.25	30475.9
869.8715	1239.6492	31197.15	30253.95
870.016	1241.5592	31080.05	30135.55
870.1606	1243.4686	30954.7	30008.85
870.3051	1245.3772	30959.2	30018.4
870.4496	1247.285	30935.75	29993.2
870.5941	1249.1922	30932.35	29990.2
870.7387	1251.0986	30869.7	29926.85
870.8832	1253.0042	30763.45	29819.65
871.0277	1254.9092	30790.45	29849.35
871.1722	1256.8134	30754.15	29813.2
871.3167	1258.7169	30872.9	29927.2
871.4611	1260.6196	30883.15	29942.1
871.6056	1262.5216	31015.05	30071.95
871.7501	1264.4229	31061.5	30122.7
871.8945	1266.3234	31161.55	30221.65
872.039	1268.2232	31211.2	30266.7
872.1834	1270.1223	31151.95	30209.25
872.3278	1272.0207	31061.85	30117.95
872.4723	1273.9183	31019.8	30068.1
872.6167	1275.8151	30871.95	29930.65
872.7611	1277.7113	30831.45	29890.4
872.9055	1279.6067	30700.1	29758.5
873.0499	1281.5014	30670.85	29727
873.1943	1283.3953	30771.55	29827.95
873.3386	1285.2885	30924.3	29982.85
873.483	1287.181	30987.45	30044.85
873.6274	1289.0727	31234	30295.25
873.7717	1290.9637	31288.7	30348.3
873.9161	1292.854	31433	30490.65
874.0604	1294.7435	31363.35	30421.8
874.2047	1296.6323	31337	30394.25
874.349	1298.5204	31308.75	30365.65
874.4933	1300.4077	31235.7	30292.5
874.6376	1302.2943	31158.9	30218.85
874.7819	1304.1802	31086.95	30145.2
874.9262	1306.0653	30757.05	29816.9
875.0705	1307.9497	30471.95	29533.75
875.2147	1309.8333	30213.15	29273.45
875.359	1311.7162	30027.45	29087.35
875.5032	1313.5984	29915.2	28972.45
875.6475	1315.4798	29836.9	28880.55
875.7917	1317.3605	29780.25	28819.5
875.9359	1319.2405	29791.15	28846.1
876.0801	1321.1197	29604.8	28662.75
876.2243	1322.9982	29394.4	28451.3
876.3685	1324.876	29299.95	28358.35
876.5127	1326.753	29031.45	28091.7
876.6569	1328.6293	28949.85	28005.75
876.801	1330.5048	28903.2	27956.75
876.9452	1332.3796	28730.25	27787.6
877.0893	1334.2537	28680.3	27717.8
877.2335	1336.127	28531.6	27592.6
877.3776	1337.9996	28490	27553.05
877.5217	1339.8714	28448.85	27509
877.6658	1341.7426	28416.55	27430.75
877.8099	1343.6129	28357.55	27413.55
877.954	1345.4826	28263.4	27323.25
878.0981	1347.3515	28278.65	27337.6
878.2422	1349.2196	28168.5	27226.9
878.3862	1351.087	28181.75	27242
878.5303	1352.9537	28155.4	27213.55
878.6743	1354.8197	28208.25	27270.45
878.8184	1356.6849	28315.85	27373.45
878.9624	1358.5493	28363.1	27420.9
879.1064	1360.4131	28398.8	27457.4
879.2504	1362.276	28341.1	27398.75
879.3944	1364.1383	28256.55	27318.6
879.5384	1365.9998	28055.5	27111.05
879.6823	1367.8606	27741.35	26798.95
879.8263	1369.7206	27430.7	26488.1
879.9702	1371.5799	27146.4	26202.4
880.1142	1373.4384	26912.25	25970
880.2581	1375.2962	26732.9	25792.5
880.402	1377.1533	26439.2	25502.25
880.5459	1379.0096	26089.05	25151.4
880.6898	1380.8652	25817.3	24881.85
880.8337	1382.7201	25569.9	24636.2
880.9776	1384.5742	25319.3	24381.1
881.1215	1386.4275	25079.15	24140.2
881.2653	1388.2802	24916.65	23982.5
881.4092	1390.132	24761.5	23825.75
881.553	1391.9832	24655.35	23715.05
881.6968	1393.8336	24499.45	23557.2
881.8406	1395.6832	24402.95	23465.15
881.9844	1397.5322	24338.3	23399.8
882.1282	1399.3803	24260.85	23316
882.272	1401.2278	24098.1	23158.15
882.4158	1403.0745	24021.05	23083.4
882.5595	1404.9204	23901.95	22967.1
882.7033	1406.7656	23936.4	23000.2
882.847	1408.6101	23896.6	22961.65
882.9908	1410.4538	23783.15	22844.8
883.1345	1412.2968	23765	22830.5
883.2782	1414.139	23697.25	22761.5
883.4219	1415.9805	23708.55	22773.05
883.5656	1417.8213	23748.1	22789.65
883.7092	1419.6613	23755.95	22821.6
883.8529	1421.5006	23821.1	22886.2
883.9965	1423.3391	23889.1	22953.8
884.1402	1425.1769	24076.1	23138.3
884.2838	1427.0139	24358.4	23420.95
884.4274	1428.8502	24679.9	23743.85
884.571	1430.6858	24997.65	24062.1
884.7146	1432.5206	25198.05	24265.4
884.8582	1434.3547	25370.55	24431.9
885.0018	1436.188	25353.8	24417.95
885.1453	1438.0206	25245.15	24306.65
885.2889	1439.8524	25090.65	24152.8
885.4324	1441.6835	24951	24010.85
885.5759	1443.5139	24795.35	23854.65
885.7194	1445.3435	24727.25	23789.75
885.8629	1447.1724	24649.3	23713.15
886.0064	1449.0005	24601.75	23665.9
886.1499	1450.8279	24493.8	23560.8
886.2933	1452.6545	24442.45	23509.2
886.4368	1454.4804	24467.5	23533.65
886.5802	1456.3056	24421.45	23484
886.7237	1458.13	24298.6	23365.65
886.8671	1459.9536	24156.55	23222.6
887.0105	1461.7766	23915.55	22981.55
887.1539	1463.5987	23566.65	22627.75
887.2972	1465.4202	23311.5	22376.75
887.4406	1467.2409	23008.25	22073.5
887.584	1469.0608	22811.55	21880.5
887.7273	1470.88	22578.6	21644.55
887.8706	1472.6984	22389.4	21457.35
888.0139	1474.5161	22141.85	21206.85
888.1572	1476.3331	21985.65	21051.85
888.3005	1478.1493	21874.4	20939.65
888.4438	1479.9648	21802.25	20867.6
888.5871	1481.7795	21678.45	20743.95
888.7303	1483.5935	21641.45	20707.05
888.8736	1485.4067	21531.25	20595.75
889.0168	1487.2192	21501.7	20567.1
889.16	1489.031	21441.55	20506.5
889.3032	1490.842	21389.9	20456.25
889.4464	1492.6522	21324.45	20391.9
889.5896	1494.4618	21257.05	20323.3
889.7327	1496.2705	21216	20283.5
889.8759	1498.0785	21136.55	20203.15
890.019	1499.8858	21085.15	20151
890.1622	1501.6924	21049.55	20119.65
890.3053	1503.4981	20991.35	20059.7
890.4484	1505.3032	20924.05	19989.05
890.5914	1507.1075	20841.85	19907.8
890.7345	1508.911	20794.3	19861.35
890.8776	1510.7138	20731.6	19796.65
891.0206	1512.5159	20643	19712.7
891.1637	1514.3172	20576.55	19646.2
891.3067	1516.1178	20490.85	19560.4
891.4497	1517.9176	20467.6	19531.6
891.5927	1519.7166	20404.1	19473.85
891.7357	1521.515	20319.15	19386.1
891.8786	1523.3126	20226.3	19296.2
892.0216	1525.1094	20155.35	19223.4
892.1645	1526.9055	20052.95	19123.7
892.3074	1528.7008	20040.35	19110.3
892.4503	1530.4954	19910.15	18975.6
892.5932	1532.2893	19882.8	18954.9
892.7361	1534.0824	19765.85	18833.05
892.879	1535.8747	19749.3	18825.4
893.0218	1537.6663	19674.6	18751.3
893.1647	1539.4572	19652	18724.9
893.3075	1541.2473	19594.5	18664.4
893.4503	1543.0367	19544.05	18618.2
893.5931	1544.8253	19492	18559.2
893.7359	1546.6132	19474.75	18545.95
893.8787	1548.4003	19394.2	18455.75
894.0214	1550.1867	19401	18465.3
894.1642	1551.9723	19386.7	18458.35
894.3069	1553.7572	19393.15	18468.6
894.4496	1555.5414	19392.5	18467.05
894.5923	1557.3247	19397	18476.95
894.735	1559.1074	19463.95	18545.3
894.8777	1560.8893	19498.45	18579.4
895.0204	1562.6705	19504.45	18582.4
895.163	1564.4509	19564.75	18646
895.3056	1566.2305	19566.4	18651.85
895.4482	1568.0094	19564.55	18649.15
895.5908	1569.7876	19571.3	18653.45
895.7334	1571.565	19572.65	18655.55
895.876	1573.3417	19541.65	18621
896.0186	1575.1176	19507.35	18591.25
896.1611	1576.8928	19452.2	18536.75
896.3036	1578.6672	19349.85	18438.4
896.4461	1580.4409	19280.8	18370.25
896.5886	1582.2138	19172.95	18257.9
896.7311	1583.986	19119.1	18202.1
896.8736	1585.7575	19072.75	18155
897.0161	1587.5282	19051.9	18138.65
897.1585	1589.2981	19059.8	18148.65
897.3009	1591.0673	18999.5	18086.1
897.4433	1592.8358	19012.3	18097.5
897.5857	1594.6035	19082.05	18165.15
897.7281	1596.3704	18998	18080.7
897.8705	1598.1366	19041.8	18127.8
898.0128	1599.9021	19032.35	18119.6
898.1551	1601.6668	19016.15	18098.55
898.2975	1603.4308	19053.05	18133
898.4398	1605.194	19108.15	18189.3
898.5821	1606.9564	19209.85	18300.55
898.7243	1608.7182	19340.2	18433.15
898.8666	1610.4791	19438.55	18536.7
899.0088	1612.2394	19542.95	18644.3
899.1511	1613.9988	19685.25	18783.2
899.2933	1615.7576	19864.8	18957.75
899.4355	1617.5156	19953.45	19035
899.5776	1619.2728	20089.05	19170.1
899.7198	1621.0293	20090	19178.5
899.862	1622.785	19946.95	19036.6
900.0041	1624.54	19753.9	18846.2
900.1462	1626.2942	19535.95	18625.95
900.2883	1628.0477	19238.3	18327.45
900.4304	1629.8005	18992.55	18078.7
900.5725	1631.5525	18812.4	17905.65
900.7145	1633.3037	18557.5	17648.2
900.8566	1635.0542	18395.25	17486.3
900.9986	1636.804	18267.4	17359.7
901.1406	1638.553	18244.3	17281.05
901.2826	1640.3013	18113.95	17205.35
901.4245	1642.0488	18040.2	17127.85
901.5665	1643.7955	18044	17139.4
901.7085	1645.5416	18023.8	17115.45
901.8504	1647.2868	18077.4	17169.55
901.9923	1649.0313	18145.25	17235.4
902.1342	1650.7751	18197.3	17284.35
902.2761	1652.5181	18252.1	17346.9
902.4179	1654.2604	18339.05	17435.5
902.5598	1656.0019	18463.95	17560.55
902.7016	1657.7427	18666.6	17759.4
902.8434	1659.4828	18829.95	17919.4
902.9852	1661.222	18896.65	17986.85
903.127	1662.9606	18851.4	17943.35
903.2687	1664.6984	18700.75	17789.75
903.4105	1666.4354	18405.05	17492.3
903.5522	1668.1717	17980.55	17066.45
903.6939	1669.9072	17526.65	16613.75
903.8356	1671.642	17145.75	16230.35
903.9773	1673.3761	16891.65	15981.3
904.119	1675.1094	16606.25	15696.75
904.2606	1676.8419	16399.6	15489.05
904.4022	1678.5737	16239.7	15329.2
904.5439	1680.3048	16081.5	15170.65
904.6855	1682.0351	15920.65	15009.6
904.827	1683.7646	15818.2	14906.65
904.9686	1685.4934	15738.75	14831.85
905.1101	1687.2215	15655.05	14745.35
905.2517	1688.9488	15562.2	14655.15
905.3932	1690.6754	15456.75	14549.35
905.5347	1692.4012	15405.3	14495.5
905.6761	1694.1263	15349.7	14441.2
905.8176	1695.8506	15272.45	14365.6
905.9591	1697.5742	15217.25	14311
906.1005	1699.297	15155.4	14250.1
906.2419	1701.0191	15070.8	14167.95
906.3833	1702.7404	15027.6	14122.45
906.5246	1704.461	14938.35	14032.5
906.666	1706.1808	14883.75	13978.85
906.8073	1707.8999	14810.85	13905.7
906.9487	1709.6182	14768.95	13866.35
907.09	1711.3358	14729.85	13828.9
907.2313	1713.0527	14684.65	13784.7
907.3725	1714.7688	14624.05	13718.95
907.5138	1716.4841	14576.35	13670.95
907.655	1718.1987	14554.25	13644.9
907.7962	1719.9126	14465.95	13564.2
907.9374	1721.6257	14407.35	13506.85
908.0786	1723.338	14386.1	13487.55
908.2198	1725.0496	14318	13415.2
908.3609	1726.7605	14285.1	13380.4
908.502	1728.4706	14235.65	13330.7
908.6431	1730.18	14139.35	13236.3
908.7842	1731.8886	14118.85	13220.2
908.9253	1733.5964	14104.85	13185.9
909.0664	1735.3036	14058.4	13151.6
909.2074	1737.0099	14018.5	13118.95
909.3484	1738.7156	14000.85	13103.1
909.4894	1740.4204	13919.55	13017.25
909.6304	1742.1246	13921.05	13019.8
909.7714	1743.8279	13893.3	12995.05
909.9123	1745.5306	13812.6	12912.25
910.0532	1747.2325	13783.55	12884.25
910.1941	1748.9336	13736.55	12836.4
910.335	1750.634	13672.95	12768.55
910.4759	1752.3336	13665.3	12765.45
910.6168	1754.0325	13667.6	12771.25
910.7576	1755.7307	13610.6	12710.9
910.8984	1757.4281	13626.7	12724.5
911.0392	1759.1247	13574.6	12664.85
911.18	1760.8206	13547.15	12637.3
911.3208	1762.5158	13479.85	12572.6
911.4615	1764.2102	13438.5	12537.1
911.6022	1765.9039	13411.45	12512.3
911.7429	1767.5968	13383.6	12486.5
911.8836	1769.289	13336.5	12437.95
912.0243	1770.9804	13289.05	12387.95
912.1649	1772.6711	13291.1	12387.2
912.3056	1774.361	13256.6	12353.45
912.4462	1776.0502	13209.3	12307.4
912.5868	1777.7386	13194.8	12290
912.7274	1779.4263	13138.7	12239.8
912.8679	1781.1132	13134.4	12237.95
913.0084	1782.7994	13101.35	12204.85
913.149	1784.4849	13071.4	12176.35
913.2895	1786.1696	13056.7	12152.7
913.4299	1787.8535	13015	12120.45
913.5704	1789.5367	12969.35	12073
913.7108	1791.2192	12945.6	12048.85
913.8513	1792.9009	12940.75	12014.95
913.9917	1794.5818	12880.55	11979.15
914.132	1796.2621	12833.75	11934.15
914.2724	1797.9415	12789.9	11887.65
914.4128	1799.6202	12783.25	11881.5
914.5531	1801.2982	12768.9	11867.85
914.6934	1802.9755	12741.4	11839.85
914.8337	1804.6519	12704.25	11802.85
914.9739	1806.3277	12643.25	11744.6
915.1142	1808.0027	12597.1	11703.1
915.2544	1809.6769	12599.55	11706.55
915.3946	1811.3504	12535.9	11638.9
915.5348	1813.0231	12535.95	11640.35
915.675	1814.6951	12529.4	11632.75
915.8151	1816.3664	12550.35	11651.3
915.9553	1818.0369	12486.15	11587.25
916.0954	1819.7067	12455.3	11558.1
916.2355	1821.3757	12431.8	11530.65
916.3755	1823.044	12409.15	11508.1
916.5156	1824.7115	12392.65	11492.85
916.6556	1826.3783	12348.65	11448.65
916.7956	1828.0443	12311.65	11413.2
916.9356	1829.7096	12284.9	11384
917.0756	1831.3741	12262.95	11357.95
917.2155	1833.0379	12222.5	11327.65
917.3555	1834.701	12201.65	11307.65
917.4954	1836.3633	12150.95	11256.05
917.6353	1838.0248	12123.25	11228
917.7751	1839.6856	12103.25	11205.85
917.915	1841.3457	12096.1	11197.85
918.0548	1843.005	12075.4	11176.5
918.1946	1844.6636	12074.9	11176.45
918.3344	1846.3214	12042.9	11143.2
918.4742	1847.9785	12041.5	11142.75
918.6139	1849.6349	11979.5	11077.9
918.7537	1851.2904	11996.45	11085.1
918.8934	1852.9453	11939.05	11035.55
919.0331	1854.5994	11927.6	11023.3
919.1727	1856.2528	11904.45	11002
919.3124	1857.9054	11871.05	10972.15
919.452	1859.5572	11857.45	10961.85
919.5916	1861.2083	11843.8	10945.1
919.7312	1862.8587	11839.95	10939.75
919.8708	1864.5084	11819	10916
920.0103	1866.1572	11740.3	10839.7
920.1498	1867.8054	11746.6	10843.55
920.2893	1869.4528	11699.65	10796.55
920.4288	1871.0994	11663.55	10762.6
920.5683	1872.7453	11627.5	10725
920.7077	1874.3905	11613	10707.95
920.8471	1876.0349	11605.95	10705.2
920.9865	1877.6786	11577.65	10678.8
921.1259	1879.3215	11587.3	10687.6
921.2653	1880.9637	11541.1	10640.9
921.4046	1882.6051	11492.6	10593.25
921.5439	1884.2458	11463.4	10562.9
921.6832	1885.8858	11434.7	10535.05
921.8225	1887.525	11440.4	10539
921.9617	1889.1634	11355.95	10455
922.101	1890.8011	11312.55	10411.3
922.2402	1892.4381	11304.1	10402.95
922.3794	1894.0743	11294.75	10396.2
922.5185	1895.7098	11275.55	10376.05
922.6577	1897.3446	11276.8	10376.65
922.7968	1898.9786	11248.4	10344.75
922.9359	1900.6118	11210.5	10310.85
923.075	1902.2443	11150.65	10247.15
923.214	1903.8761	11174.5	10276.6
923.3531	1905.5071	11085.55	10185.7
923.4921	1907.1374	11064.25	10164.75
923.6311	1908.7669	11020.25	10124.3
923.77	1910.3957	10999.4	10100.45
923.909	1912.0237	10938.65	10042.7
924.0479	1913.651	10931.1	10029.7
924.1868	1915.2776	10910.1	10013.5
924.3257	1916.9034	10846.9	9949.05
924.4646	1918.5285	10824.3	9927.25
924.6034	1920.1528	10755.7	9857.8
924.7422	1921.7764	10774.35	9876.05
924.881	1923.3992	10713.75	9815.45
925.0198	1925.0213	10649.3	9751.8
925.1586	1926.6427	10626.25	9729.45
925.2973	1928.2633	10642.1	9677
925.436	1929.8832	10566.7	9665.25
925.5747	1931.5023	10535.3	9636
925.7134	1933.1207	10555.2	9657.95
925.852	1934.7383	10502.55	9603.55
925.9906	1936.3552	10455.45	9559.9
926.1292	1937.9714	10447.55	9550.55
926.2678	1939.5868	10400.25	9502.2
926.4064	1941.2015	10348.75	9450
926.5449	1942.8154	10306.25	9405.7
926.6834	1944.4286	10289.15	9391.7
926.8219	1946.041	10257.3	9336.1
926.9604	1947.6528	10205.7	9303.05
927.0988	1949.2637	10168.7	9272.95
927.2372	1950.8739	10124.05	9224.45
927.3756	1952.4834	10151.3	9251.2
927.514	1954.0921	10115	9219.4
927.6523	1955.7001	10056.2	9155.1
927.7907	1957.3074	10058.45	9165.55
927.929	1958.9139	10011.15	9118.45
928.0673	1960.5197	9991.75	9097.05
928.2055	1962.1247	9944.75	9051.35
928.3438	1963.729	9884.25	8992.75
928.482	1965.3325	9868.05	8950.65
928.6202	1966.9353	9849.05	8955.4
928.7584	1968.5374	9797.85	8902
928.8965	1970.1387	9780.5	8887.5
929.0346	1971.7393	9735.15	8841.85
929.1727	1973.3392	9718.65	8824.4
929.3108	1974.9383	9682.5	8790.6
929.4489	1976.5366	9629.35	8736.1
929.5869	1978.1342	9610.9	8719.2
929.7249	1979.7311	9614.15	8721.65
929.8629	1981.3273	9589.15	8697
930.0009	1982.9227	9545.7	8653.1
930.1388	1984.5173	9510.7	8620.05
930.2767	1986.1112	9459.35	8569.45
930.4146	1987.7044	9451.15	8558.75
930.5525	1989.2968	9409.75	8518.65
930.6904	1990.8885	9409.2	8515.3
930.8282	1992.4795	9381.95	8490.9
930.966	1994.0697	9345.3	8458.7
931.1038	1995.6592	9326.7	8437.85
931.2415	1997.2479	9309.85	8419.15
931.3793	1998.8359	9277.75	8390.45
931.517	2000.4232	9244.55	8357.65
931.6547	2002.0097	9224.95	8342.15
931.7923	2003.5955	9174.95	8287.1
931.93	2005.1805	9173.25	8284.9
932.0676	2006.7648	9142.6	8254.65
932.2052	2008.3484	9119.4	8230.5
932.3427	2009.9312	9132.95	8247.5
932.4803	2011.5133	9080.55	8196.8
932.6178	2013.0946	9042.25	8158.3
932.7553	2014.6752	9031.3	8146.35
932.8928	2016.2551	9020.2	8132.85
933.0302	2017.8342	8988	8102.1
933.1676	2019.4126	8939.6	8053.6
933.305	2020.9902	8919.65	8035.85
933.4424	2022.5672	8899.75	8013.3
933.5798	2024.1433	8873.15	7982.45
933.7171	2025.7188	8836.6	7952.65
933.8544	2027.2935	8812.45	7929.5
933.9917	2028.8674	8782.75	7898.7
934.129	2030.4406	8770.35	7889
934.2662	2032.0131	8718.7	7835.45
934.4034	2033.5849	8718	7829.05
934.5406	2035.1559	8701.05	7818.6
934.6778	2036.7261	8699.4	7815.35
934.8149	2038.2957	8647.5	7759.1
934.952	2039.8645	8648.7	7758.75
935.0891	2041.4325	8636.1	7744.75
935.2262	2042.9998	8599	7712.2
935.3632	2044.5664	8593.55	7706.85
935.5002	2046.1323	8574.75	7692.05
935.6372	2047.6974	8528.9	7646
935.7742	2049.2617	8519.8	7636.3
935.9111	2050.8254	8528.65	7620.2
936.048	2052.3883	8511.9	7623.15
936.1849	2053.9504	8454.45	7567.8
936.3218	2055.5118	8433.5	7545.25
936.4586	2057.0725	8371.3	7479.7
936.5955	2058.6325	8365.6	7479.35
936.7323	2060.1917	8347.4	7460.85
936.869	2061.7502	8352.25	7466
937.0058	2063.3079	8314.05	7429.7
937.1425	2064.8649	8289.95	7400.3
937.2792	2066.4212	8297.55	7412.05
937.4159	2067.9767	8240.25	7352.55
937.5525	2069.5315	8238.2	7352.05
937.6891	2071.0856	8194	7307.35
937.8257	2072.6389	8157.85	7274.2
937.9623	2074.1915	8128.85	7246.05
938.0989	2075.7433	8072.85	7187.1
938.2354	2077.2945	8061.2	7177.15
938.3719	2078.8448	8047.45	7161.3
938.5084	2080.3945	8043.85	7156.25
938.6448	2081.9434	8034.05	7147.2
938.7812	2083.4916	8004.8	7114.75
938.9176	2085.039	7983.45	7090.25
939.054	2086.5857	7958.15	7064.35
939.1903	2088.1317	7930.8	7037.9
939.3267	2089.677	7914.85	7021.8
939.463	2091.2215	7889.15	6994.8
939.5992	2092.7652	7888.55	6993.8
939.7355	2094.3083	7868.75	6975.5
939.8717	2095.8506	7847.6	6959.3
940.0079	2097.3921	7834.65	6947.55
940.1441	2098.933	7814.55	6926.2
940.2802	2100.4731	7790.3	6899
940.4163	2102.0124	7800.2	6902.6
940.5524	2103.5511	7757	6867.95
940.6885	2105.089	7737.35	6846.25
940.8245	2106.6261	7742.15	6852.9
940.9606	2108.1626	7719.3	6830.25
941.0965	2109.6983	7711.45	6793.85
941.2325	2111.2332	7687.45	6799.1
941.3684	2112.7675	7651.2	6761.9
941.5044	2114.301	7634.15	6739.25
941.6403	2115.8337	7638.25	6746.5
941.7761	2117.3657	7595.75	6704.75
941.912	2118.897	7600.7	6708.45
942.0478	2120.4276	7566.45	6670.2
942.1835	2121.9575	7559.45	6667.6
942.3193	2123.4866	7543.55	6651.95
942.455	2125.0149	7493.5	6600.8
942.5907	2126.5426	7465.85	6577.7
942.7264	2128.0695	7466.85	6576
942.8621	2129.5956	7463.7	6580.4
942.9977	2131.1211	7434	6542.5
943.1333	2132.6458	7409.35	6520.6
943.2689	2134.1698	7395.25	6504.5
943.4044	2135.693	7368	6472.95
943.54	2137.2155	7351.75	6457
943.6755	2138.7373	7340.55	6451.7
943.8109	2140.2584	7310.2	6423.95
943.9464	2141.7787	7299.9	6409.8
944.0818	2143.2983	7268.9	6386.1
944.2172	2144.8171	7222.95	6338.85
944.3526	2146.3353	7221.8	6334.65
944.4879	2147.8527	7214.9	6329.55
944.6232	2149.3693	7192.45	6301.85
944.7585	2150.8853	7170.4	6279.25
944.8938	2152.4005	7132.2	6240.55
945.029	2153.9149	7123.05	6232.75
945.1642	2155.4287	7200.7	6207.55
945.2994	2156.9417	7108.9	6217.9
945.4346	2158.454	7080.45	6191.6
945.5697	2159.9655	7073.8	6187.5
945.7048	2161.4764	7062.2	6175.9
945.8399	2162.9865	7037.45	6150.85
945.9749	2164.4958	7026.65	6140.05
946.1099	2166.0045	6971.55	6080.55
946.2449	2167.5124	6969.9	6081.85
946.3799	2169.0195	6957.05	6069.35
946.5148	2170.526	6962.2	6071.85
946.6498	2172.0317	6924.55	6035.25
946.7846	2173.5367	6918.2	6028.55
946.9195	2175.0409	6896.5	6008.9
947.0543	2176.5445	6874.65	5984.4
947.1891	2178.0473	6857.6	5966.85
947.3239	2179.5494	6836	5941.8
947.4587	2181.0507	6812.35	5922.5
947.5934	2182.5513	6785.1	5897.95
947.7281	2184.0512	6770.7	5881
947.8628	2185.5504	6765.1	5874.05
947.9974	2187.0488	6733.8	5847.25
948.132	2188.5465	6725.7	5839.45
948.2666	2190.0435	6703.65	5816.15
948.4012	2191.5397	6688.7	5799
948.5357	2193.0353	6660.15	5769.4
948.6702	2194.5301	6639.25	5744.95
948.8047	2196.0241	6617.55	5723.9
948.9392	2197.5175	6602.4	5709.35
949.0736	2199.0101	6576.25	5678.9
949.208	2200.502	6555.3	5665.8
949.3424	2201.9931	6544.55	5657.6
949.4767	2203.4835	6494.7	5605.55
949.611	2204.9733	6498.8	5594.3
949.7453	2206.4622	6478.25	5591.1
949.8796	2207.9505	6455.6	5567.95
950.0138	2209.438	6402	5521
950.148	2210.9248	6401.95	5513.8
950.2822	2212.4109	6395.3	5506.65
950.4164	2213.8962	6370.45	5477.55
950.5505	2215.3809	6365.1	5471.3
950.6846	2216.8648	6351.05	5456.7
950.8186	2218.3479	6344.75	5444.4
950.9527	2219.8304	6314.45	5418
951.0867	2221.3121	6285.75	5391.5
951.2207	2222.7931	6270.9	5379.8
951.3546	2224.2733	6248.3	5355.8
951.4886	2225.7529	6228.45	5337.3
951.6225	2227.2317	6210.05	5323.3
951.7563	2228.7098	6189.3	5303.85
951.8902	2230.1872	6154.15	5265.75
952.024	2231.6638	6156.3	5270.15
952.1578	2233.1397	6122.2	5231.95
952.2916	2234.6149	6114.1	5228.3
952.4253	2236.0894	6105.25	5217.65
952.559	2237.5632	6096.15	5205.45
952.6927	2239.0362	6058.1	5170.95
952.8263	2240.5085	6044.45	5155.65
952.9599	2241.9801	6034.4	5143.05
953.0935	2243.4509	6025.7	5134.65
953.2271	2244.921	5986.6	5093.8
953.3606	2246.3904	5981.55	5087.5
953.4941	2247.8591	5947.25	5056.55
953.6276	2249.3271	5955.25	5064.5
953.7611	2250.7943	5919.85	5028.45
953.8945	2252.2608	5891.1	4996.75
954.0279	2253.7266	5887.8	4997.35
954.1612	2255.1917	5871.85	4982.45
954.2946	2256.656	5867.9	4981.5
954.4279	2258.1197	5847.2	4960
954.5612	2259.5826	5836.3	4945.55
954.6944	2261.0447	5831.9	4942.3
954.8276	2262.5062	5796.95	4904.7
954.9608	2263.9669	5792.15	4900.5
955.094	2265.4269	5789.85	4900
955.2271	2266.8862	5758.6	4866.4
955.3602	2268.3448	5758.6	4870.5
955.4933	2269.8026	5736.85	4847.65
955.6264	2271.2598	5707	4819.55
955.7594	2272.7162	5707.25	4819.7
955.8924	2274.1719	5695.3	4803.95
956.0253	2275.6268	5678.5	4786.35
956.1583	2277.0811	5671.6	4779.05
956.2912	2278.5346	5655.6	4767.3
956.4241	2279.9874	5633.05	4744.75
956.5569	2281.4395	5624.8	4736.05
956.6897	2282.8908	5619.9	4728.2
956.8225	2284.3414	5608.55	4715.7
956.9553	2285.7914	5560.9	4671.95
957.088	2287.2406	5560.3	4668.3
957.2207	2288.689	5574.3	4682.65
957.3534	2290.1368	5540.2	4645
957.486	2291.5838	5534.5	4638.6
957.6186	2293.0302	5507.6	4612.3
957.7512	2294.4758	5479.25	4584.2
957.8838	2295.9206	5470.5	4577.8
958.0163	2297.3648	5467.4	4577.3
958.1488	2298.8082	5451.7	4560.95
958.2813	2300.251	5422.1	4530.05
958.4137	2301.693	5418.4	4524.3
958.5461	2303.1343	5420.15	4528.2
958.6785	2304.5748	5388.55	4497.65
958.8108	2306.0147	5385.45	4497.8
958.9432	2307.4538	5383.95	4493.6
959.0754	2308.8922	5358.45	4473.35
959.2077	2310.3299	5325.3	4437.7
959.3399	2311.7669	5320.4	4431.8
959.4721	2313.2031	5307.6	4417.5
959.6043	2314.6387	5294.7	4402.8
959.7365	2316.0735	5274.3	4382.75
959.8686	2317.5076	5257.7	4366.55
960.0006	2318.941	5247	4355.65
960.1327	2320.3737	5222.65	4329.4
960.2647	2321.8056	5220.5	4326.25
960.3967	2323.2369	5195.9	4305.6
960.5287	2324.6674	5201	4307.95
960.6606	2326.0972	5186.5	4295.05
960.7925	2327.5263	5166.15	4278.8
960.9244	2328.9547	5157.8	4265.05
961.0562	2330.3823	5140.55	4249.65
961.1881	2331.8092	5147.45	4250.8
961.3198	2333.2355	5111.75	4217.4
961.4516	2334.661	5099.65	4207.4
961.5833	2336.0858	5089.85	4194.8
961.715	2337.5098	5062.7	4171.75
961.8467	2338.9332	5055	4165.15
961.9783	2340.3558	5051.85	4159.6
962.1099	2341.7778	5037.05	4147.6
962.2415	2343.199	5024.5	4133.95
962.373	2344.6195	5008.8	4119.95
962.5045	2346.0393	4993.45	4104.7
962.636	2347.4583	5005.6	4113.9
962.7675	2348.8767	4993.6	4101.85
962.8989	2350.2943	4973.25	4078.7
963.0303	2351.7113	4963.95	4067.65
963.1617	2353.1275	4943.55	4050.1
963.293	2354.543	4956.05	4037.4
963.4243	2355.9578	4920.55	4028.45
963.5556	2357.3718	4906.35	4015.25
963.6868	2358.7852	4874.55	3984.3
963.818	2360.1978	4859.95	3970.05
963.9492	2361.6098	4847.05	3958.3
964.0803	2363.021	4828.65	3933.9
964.2114	2364.4315	4811.1	3919.1
964.3425	2365.8413	4824.7	3931.35
964.4736	2367.2504	4789.3	3899.55
964.6046	2368.6587	4758.85	3869.45
964.7356	2370.0664	4756.7	3868.45
964.8666	2371.4733	4779.45	3887.75
964.9975	2372.8795	4722.3	3831.6
965.1284	2374.285	4714.55	3823.2
965.2593	2375.6899	4713.25	3821.6
965.3901	2377.0939	4692.1	3801.15
965.5209	2378.4973	4679.65	3791.4
965.6517	2379.9	4670.9	3779.2
965.7825	2381.3019	4654.95	3764.5
965.9132	2382.7032	4633.8	3745.2
966.0439	2384.1037	4630.35	3743.45
966.1745	2385.5035	4608.25	3720.25
966.3051	2386.9027	4579.3	3692.55
966.4357	2388.3011	4587.15	3699.2
966.5663	2389.6987	4575.25	3687.2
966.6968	2391.0957	4567.45	3678.45
966.8273	2392.492	4547.35	3657.8
966.9578	2393.8876	4517.3	3627.45
967.0882	2395.2824	4511.95	3623.3
967.2186	2396.6765	4491.05	3600.85
967.349	2398.07	4473.95	3581.7
967.4793	2399.4627	4476	3580.65
967.6097	2400.8547	4464.5	3571.7
967.7399	2402.246	4464.55	3568.3
967.8702	2403.6366	4436.2	3544.75
968.0004	2405.0265	4424.65	3534.85
968.1306	2406.4156	4418.75	3523.45
968.2607	2407.8041	4398.8	3503.45
968.3909	2409.1918	4363.4	3469.35
968.521	2410.5789	4359.8	3466.55
968.651	2411.9652	4349.6	3455.2
968.781	2413.3508	4344.65	3452.05
968.911	2414.7358	4344.05	3452.75
969.041	2416.12	4319.2	3428.25
969.1709	2417.5035	4306.2	3415.6
969.3008	2418.8863	4277.2	3383.6
969.4307	2420.2684	4282.4	3389
969.5606	2421.6497	4248.1	3356.95
969.6904	2423.0304	4227.5	3336.6
969.8201	2424.4104	4248.8	3358.05
969.9499	2425.7896	4229.8	3339.5
970.0796	2427.1682	4213.8	3322.45
970.2093	2428.546	4197.9	3305.7
970.3389	2429.9232	4199.05	3305.75
970.4685	2431.2996	4190.75	3299.55
970.5981	2432.6753	4192.75	3301.05
970.7277	2434.0503	4161.35	3269.25
970.8572	2435.4246	4146.45	3255.95
970.9867	2436.7982	4132.4	3239.75
971.1161	2438.1711	4109.7	3218.1
971.2456	2439.5433	4123.1	3230.8
971.375	2440.9148	4112.65	3216.6
971.5043	2442.2856	4071.35	3182.25
971.6336	2443.6557	4084.35	3190.85
971.7629	2445.025	4052.45	3161.55
971.8922	2446.3937	4031.35	3137.85
972.0214	2447.7617	4033.65	3141.85
972.1506	2449.1289	4035.65	3144.95
972.2798	2450.4955	4012.4	3119.85
972.4089	2451.8613	4018.5	3129.8
972.538	2453.2265	3992.05	3101.6
972.6671	2454.5909	3991.65	3097.9
972.7961	2455.9546	3982.4	3091.7
972.9251	2457.3177	3980.75	3091.85
973.0541	2458.68	3965.45	3072.75
973.1831	2460.0416	3952.95	3061.25
973.312	2461.4025	3964.3	3074.25
973.4408	2462.7627	3949.95	3049.35
973.5697	2464.1222	3926.15	3041
973.6985	2465.4811	3922.15	3033.05
973.8273	2466.8392	3900.25	3009.55
973.956	2468.1966	3894.8	3001.95
974.0847	2469.5533	3900.65	3007.9
974.2134	2470.9093	3885.6	2992.95
974.3421	2472.2645	3880.9	2990.5
974.4707	2473.6191	3864.7	2975.35
974.5993	2474.973	3856.75	2964.95
974.7278	2476.3262	3840.45	2946.4
974.8563	2477.6787	3833.75	2944.75
974.9848	2479.0305	3814.3	2924.65
975.1132	2480.3816	3810.55	2920.25
975.2417	2481.7319	3788.9	2898.15
975.37	2483.0816	3792.7	2901.15
975.4984	2484.4306	3792.2	2901.8
975.6267	2485.7789	3768.7	2878.85
975.755	2487.1264	3748.85	2858.55
975.8833	2488.4733	3736.35	2846.95
976.0115	2489.8195	3735.2	2838.45
976.1397	2491.165	3725.25	2833.65
976.2678	2492.5097	3703.7	2814.2
976.3959	2493.8538	3687.7	2798.55
976.524	2495.1972	3679.75	2790.05
976.6521	2496.5398	3673.5	2780.05
976.7801	2497.8818	3663.35	2769
976.9081	2499.2231	3662.75	2772
977.036	2500.5637	3649.8	2756.2
977.164	2501.9035	3631.5	2740.2
977.2918	2503.2427	3638.15	2742.35
977.4197	2504.5812	3617.3	2725.6
977.5475	2505.919	3610.1	2716.1
977.6753	2507.256	3604.25	2712.9
977.8031	2508.5924	3593.75	2703.2
977.9308	2509.9281	3580.65	2684
978.0585	2511.2631	3569.2	2679.05
978.1861	2512.5974	3558	2666
978.3137	2513.9309	3557.85	2666.95
978.4413	2515.2638	3551.25	2636.8
978.5689	2516.596	3532.25	2642.25
978.6964	2517.9275	3510.55	2618.65
978.8239	2519.2583	3504.35	2614.2
978.9513	2520.5884	3515.2	2621.35
979.0788	2521.9178	3504.8	2616.35
979.2062	2523.2465	3480.35	2590.65
979.3335	2524.5745	3471.05	2581.05
979.4608	2525.9018	3456.05	2566.55
979.5881	2527.2284	3460.55	2569.85
979.7154	2528.5543	3439.3	2550.2
979.8426	2529.8796	3429.3	2538.2
979.9698	2531.2041	3425.05	2533.9
980.0969	2532.5279	3417.65	2530.55
980.224	2533.851	3430.25	2538.65
980.3511	2535.1735	3405.3	2514.4
980.4781	2536.4952	3409.65	2519.25
980.6052	2537.8163	3398.8	2505.75
980.7321	2539.1366	3388.5	2497.75
980.8591	2540.4562	3379.65	2486.85
980.986	2541.7752	3377.1	2486.75
981.1129	2543.0935	3367.05	2473.9
981.2397	2544.411	3367.15	2474.45
981.3665	2545.7279	3361.25	2468.65
981.4933	2547.0441	3361.15	2469.35
981.62	2548.3596	3354.35	2460.8
981.7467	2549.6744	3343.9	2453.05
981.8734	2550.9885	3337.15	2444.25
982.0001	2552.3019	3336.4	2445.95
982.1267	2553.6146	3320.15	2426.75
982.2532	2554.9266	3310.1	2418.55
982.3798	2556.2379	3289.6	2396.7
982.5063	2557.5485	3298.2	2408.45
982.6327	2558.8585	3289.95	2394.65
982.7592	2560.1677	3288.55	2393.4
982.8856	2561.4762	3286.5	2394.8
983.0119	2562.7841	3286.6	2394
983.1383	2564.0913	3268.35	2377.85
983.2646	2565.3977	3262.1	2371.05
983.3908	2566.7035	3250.65	2358.15
983.517	2568.0086	3251.95	2357.55
983.6432	2569.313	3256.35	2365
983.7694	2570.6167	3248.9	2352.2
983.8955	2571.9197	3229.25	2338.25
984.0216	2573.222	3232.35	2338.4
984.1476	2574.5236	3231.7	2339.85
984.2737	2575.8246	3224.95	2331.35
984.3996	2577.1248	3211.75	2317.8
984.5256	2578.4244	3201.6	2312.4
984.6515	2579.7232	3199.45	2307.6
984.7774	2581.0214	3214.8	2295.95
984.9032	2582.3189	3205.4	2313.9
985.029	2583.6157	3193.55	2296.3
985.1548	2584.9118	3189.35	2297.5
985.2806	2586.2072	3174.1	2284.5
985.4063	2587.5019	3174.15	2280.25
985.5319	2588.7959	3164	2272.6
985.6576	2590.0893	3170.65	2278.15
985.7832	2591.3819	3149	2258.1
985.9087	2592.6739	3148	2257.4
986.0343	2593.9652	3138.5	2246.2
986.1597	2595.2557	3131.8	2239.3
986.2852	2596.5456	3122.95	2227.95
986.4106	2597.8348	3113.7	2220.55
986.536	2599.1234	3100.85	2209.95
986.6614	2600.4112	3092.8	2202.25
986.7867	2601.6983	3104.6	2211.55
986.912	2602.9848	3086	2195.1
987.0372	2604.2705	3088.35	2190.55
987.1624	2605.5556	3073.9	2182.1
987.2876	2606.84	3061.3	2169.4
987.4128	2608.1237	3055.4	2164.85
987.5379	2609.4067	3046.05	2153.85
987.6629	2610.689	3043.55	2141.25
987.788	2611.9707	3041.8	2147.15
987.913	2613.2516	3024.4	2130.1
988.0379	2614.5319	3007.95	2117.55
988.1629	2615.8115	3001.8	2110.6
988.2878	2617.0903	2990.9	2098.35
988.4126	2618.3685	2983.45	2092.15
988.5375	2619.6461	2978.5	2086.4
988.6622	2620.9229	2968.1	2078.3
988.787	2622.199	2967.5	2074.2
988.9117	2623.4745	2959	2066.2
989.0364	2624.7493	2949.1	2058.9
989.161	2626.0234	2953.95	2064
989.2857	2627.2968	2934.8	2045.2
989.4102	2628.5695	2940.7	2050.55
989.5348	2629.8415	2910.25	2018.25
989.6593	2631.1128	2909.25	2018.4
989.7837	2632.3835	2905	2015.1
989.9082	2633.6535	2894.85	2005.1
990.0326	2634.9228	2884.35	1994.6
990.1569	2636.1914	2889.5	1999.35
990.2812	2637.4593	2867.8	1974.2
990.4055	2638.7265	2857.15	1966.25
990.5298	2639.9931	2851.3	1961
990.654	2641.259	2867	1975.15
990.7782	2642.5242	2853.3	1961.45
990.9023	2643.7887	2844.5	1954.05
991.0264	2645.0525	2825.65	1936.65
991.1505	2646.3156	2842	1938.85
991.2745	2647.5781	2816.9	1927.1
991.3985	2648.8398	2805.85	1913.45
991.5225	2650.1009	2821.85	1906.65
991.6464	2651.3613	2802.2	1910.2
991.7703	2652.6211	2799.3	1909.6
991.8942	2653.8801	2794.9	1904.85
992.018	2655.1385	2780.35	1886.6
992.1418	2656.3961	2776.45	1886.5
992.2655	2657.6531	2766.2	1876.95
992.3892	2658.9094	2764.95	1873.35
992.5129	2660.1651	2769.3	1881.65
992.6366	2661.42	2743.55	1852.55
992.7602	2662.6743	2749.25	1858.9
992.8837	2663.9279	2744.75	1854.35
993.0073	2665.1808	2752.3	1862.2
993.1307	2666.433	2738.45	1848.1
993.2542	2667.6846	2741.05	1851.8
993.3776	2668.9354	2747.5	1855.25
993.501	2670.1856	2734.5	1843.25
993.6244	2671.4351	2722.05	1831.35
993.7477	2672.6839	2724.6	1834.45
993.8709	2673.9321	2720.95	1831.4
993.9942	2675.1795	2722.55	1831.45
994.1174	2676.4263	2714.5	1823.4
994.2405	2677.6724	2698.95	1809.7
994.3637	2678.9179	2699.35	1811.15
994.4868	2680.1626	2692.95	1804.3
994.6098	2681.4067	2688.55	1797.9
994.7328	2682.6501	2686.8	1795.8
994.8558	2683.8928	2672.55	1782.85
994.9788	2685.1348	2665.35	1776.45
995.1017	2686.3761	2659.5	1770.4
995.2245	2687.6168	2651.3	1761.9
995.3474	2688.8568	2650.3	1761.3
995.4702	2690.0961	2642.45	1752.1
995.5929	2691.3348	2638.45	1747.3
995.7156	2692.5727	2623.75	1733.75
995.8383	2693.81	2617.6	1727
995.961	2695.0466	2615.15	1729.7
996.0836	2696.2826	2619.6	1728.05
996.2062	2697.5178	2603.15	1711.4
996.3287	2698.7524	2596.35	1706.3
996.4512	2699.9863	2596.2	1704.9
996.5737	2701.2195	2586.7	1697.1
996.6961	2702.452	2595.45	1702.7
996.8185	2703.6839	2582	1691.8
996.9408	2704.9151	2586.05	1698.8
997.0631	2706.1456	2589.2	1700.1
997.1854	2707.3755	2571.7	1682.2
997.3077	2708.6046	2584.25	1695.15
997.4299	2709.8331	2583.6	1693.4
997.552	2711.0609	2573.95	1684.05
997.6742	2712.2881	2589.35	1700.1
997.7963	2713.5145	2566.5	1676.9
997.9183	2714.7403	2570.3	1679.5
998.0403	2715.9654	2587.55	1699.65
998.1623	2717.1899	2597.15	1696.25
998.2842	2718.4136	2585.55	1697.7
998.4062	2719.6367	2597.35	1707.45
998.528	2720.8591	2592.4	1698.35
998.6498	2722.0809	2571.75	1682
998.7716	2723.3019	2586.75	1694.55
998.8934	2724.5223	2592.55	1699.95
999.0151	2725.7421	2589.75	1697.55
999.1368	2726.9611	2588.95	1698.4
999.2584	2728.1795	2573.85	1681.4
999.38	2729.3972	2565.6	1679.95
999.5016	2730.6142	2558.15	1663.4
999.6231	2731.8306	2536.9	1647.45
999.7446	2733.0462	2531	1640.3
999.8661	2734.2612	2513.3	1619.35
999.9875	2735.4756	2499.2	1608.6
1000.1089	2736.6892	2476.85	1586.65
1000.2302	2737.9022	2468.2	1580.35
1000.3515	2739.1145	2438.8	1550.8
1000.4728	2740.3262	2441.7	1547.3
1000.594	2741.5372	2418.15	1531.25
1000.7152	2742.7475	2403.05	1515.45
1000.8363	2743.9571	2416.45	1526.8
1000.9575	2745.1661	2402.7	1509.4
1001.0785	2746.3744	2377.4	1488.7
1001.1996	2747.582	2367.75	1480.4
1001.3206	2748.7889	2366.5	1477.35
1001.4415	2749.9952	2347.45	1459.45
1001.5625	2751.2008	2339.2	1450.8
1001.6833	2752.4057	2337.75	1444.75
1001.8042	2753.61	2326.25	1437.5
1001.925	2754.8136	2322.4	1433.85
1002.0458	2756.0165	2316.3	1429.55
1002.1665	2757.2188	2307.15	1421.3
1002.2872	2758.4204	2304.75	1416.8
1002.4078	2759.6213	2305.9	1415.85
1002.5285	2760.8215	2307.6	1415.55
1002.649	2762.0211	2301.5	1410.9
1002.7696	2763.22	2295.15	1403.6
1002.8901	2764.4182	2286.15	1397.55
1003.0106	2765.6158	2277.35	1389.45
1003.131	2766.8127	2272.6	1384.45
1003.2514	2768.009	2262.4	1374.7
1003.3717	2769.2045	2269.8	1382.25
1003.492	2770.3994	2261.45	1370.9
1003.6123	2771.5936	2257.75	1369.65
1003.7325	2772.7872	2255.95	1368.9
1003.8527	2773.9801	2228.15	1338.9
1003.9729	2775.1723	2246.2	1341.45
1004.093	2776.3639	2220.55	1332.85
1004.2131	2777.5548	2223.65	1335.75
1004.3331	2778.745	2220.25	1331.65
1004.4531	2779.9346	2215.5	1329.45
1004.5731	2781.1235	2219.6	1329.95
1004.693	2782.3117	2205.9	1320.05
1004.8129	2783.4992	2206.15	1319.85
1004.9328	2784.6861	2202.25	1314.75
1005.0526	2785.8723	2207.85	1320.4
1005.1723	2787.0579	2206.85	1317.9
1005.2921	2788.2428	2216.5	1330.45
1005.4118	2789.427	2208.55	1323.2
1005.5314	2790.6106	2202.35	1316.25
1005.651	2791.7935	2193.35	1305.05
1005.7706	2792.9757	2206.45	1320.6
1005.8902	2794.1573	2201.85	1311.2
1006.0097	2795.3382	2216.3	1331.4
1006.1291	2796.5184	2219.15	1332.8
1006.2485	2797.698	2218	1328.7
1006.3679	2798.8769	2234.9	1347.65
1006.4873	2800.0551	2233.4	1345.8
1006.6066	2801.2327	2238.6	1349.3
1006.7258	2802.4096	2242.05	1356.55
1006.8451	2803.5859	2250.45	1364.85
1006.9642	2804.7615	2262.45	1372.8
1007.0834	2805.9364	2264.55	1378.15
1007.2025	2807.1106	2279	1393
1007.3216	2808.2842	2293.75	1405.15
1007.4406	2809.4572	2301.7	1413.2
1007.5596	2810.6294	2330.8	1442.75
1007.6785	2811.801	2349.45	1463.45
1007.7975	2812.972	2380.75	1493.4
1007.9163	2814.1423	2392.35	1504.1
1008.0352	2815.3119	2426.4	1540
1008.154	2816.4808	2461.05	1576.65
1008.2727	2817.6491	2501.4	1613.4
1008.3914	2818.8167	2530.65	1646.3
1008.5101	2819.9837	2575.4	1682.9
1008.6288	2821.15	2597.85	1711.75
1008.7474	2822.3157	2635.05	1749.35
1008.8659	2823.4807	2668.65	1781.6
1008.9844	2824.645	2709.45	1820.95
1009.1029	2825.8086	2736.6	1852.05
1009.2214	2826.9716	2766	1881.2
1009.3398	2828.134	2803.7	1916
1009.4581	2829.2957	2828.3	1942.3
1009.5764	2830.4567	2854.7	1969.2
1009.6947	2831.617	2865.5	1979.05
1009.813	2832.7767	2866.6	1981.3
1009.9312	2833.9358	2866.35	1981.75
1010.0493	2835.0941	2862.85	1975.4
1010.1675	2836.2519	2843.75	1955.4
1010.2855	2837.4089	2831.1	1944.35
1010.4036	2838.5653	2818.5	1932.7
1010.5216	2839.7211	2824.25	1939.5
1010.6396	2840.8761	2822	1932.5
1010.7575	2842.0306	2825.3	1940.7
1010.8754	2843.1843	2840.55	1952.15
1010.9932	2844.3374	2863.25	1975.55
1011.111	2845.4899	2894.15	2007.8
1011.2288	2846.6417	2937.25	2051.65
1011.3465	2847.7928	2975.6	2090.15
1011.4642	2848.9433	3014.15	2129.15
1011.5818	2850.0931	3066	2180.55
1011.6995	2851.2422	3116.35	2227.45
1011.817	2852.3907	3156.05	2268.85
1011.9345	2853.5385	3194.7	2304.7
1012.052	2854.6857	3230.8	2336.65
1012.1695	2855.8323	3253.05	2370.75
1012.2869	2856.9781	3282.9	2397.55
1012.4042	2858.1233	3327.85	2441.55
1012.5216	2859.2679	3355.6	2471
1012.6389	2860.4118	3385.4	2499.1
1012.7561	2861.555	3421.8	2530.5
1012.8733	2862.6976	3470.3	2581.15
1012.9905	2863.8395	3463.3	2577.3
1013.1076	2864.9808	3476.5	2589.9
1013.2247	2866.1214	3494.4	2608.8
1013.3417	2867.2614	3504.1	2618.35
1013.4587	2868.4007	3511.4	2623.1
1013.5757	2869.5393	3506.6	2618.25
1013.6926	2870.6773	3520.15	2629.55
1013.8095	2871.8146	3540.55	2650.1
1013.9263	2872.9513	3514.75	2626.05
1014.0431	2874.0874	3511.65	2626.3
1014.1599	2875.2227	3506.05	2618.6
1014.2766	2876.3574	3491.25	2606.1
1014.3933	2877.4915	3480.6	2595.45
1014.51	2878.6249	3444.8	2560.4
1014.6266	2879.7577	3430.7	2544.05
1014.7431	2880.8898	3404.8	2509.2
1014.8596	2882.0212	3396.7	2511.1
1014.9761	2883.152	3385.05	2498.8
1015.0925	2884.2821	3367	2481.65
1015.2089	2885.4116	3371.05	2486.1
1015.3253	2886.5405	3353.75	2468.95
1015.4416	2887.6686	3366.4	2479.15
1015.5579	2888.7962	3352.85	2470.25
1015.6741	2889.923	3373.45	2490.45
1015.7903	2891.0493	3376.8	2492.2
1015.9065	2892.1748	3383.2	2498.25
1016.0226	2893.2997	3371.55	2487.45
1016.1387	2894.424	3394.4	2510.8
1016.2547	2895.5476	3398.15	2514.85
1016.3707	2896.6706	3406.05	2522.1
1016.4866	2897.7929	3412.65	2527.85
1016.6025	2898.9145	3430.1	2545.05
1016.7184	2900.0355	3450.05	2563.2
1016.8342	2901.1559	3484.2	2599.45
1016.95	2902.2756	3494.05	2610
1017.0658	2903.3946	3507.1	2620.95
1017.1815	2904.513	3535.85	2649.4
1017.2971	2905.6308	3544.75	2660.6
1017.4127	2906.7479	3559.6	2674
1017.5283	2907.8643	3561.1	2676.15
1017.6439	2908.9801	3573.85	2690.2
1017.7594	2910.0953	3571.2	2685.45
1017.8748	2911.2098	3576.9	2687.6
1017.9902	2912.3236	3569.85	2677.8
1018.1056	2913.4368	3555.75	2668.6
1018.2209	2914.5494	3535.05	2650.6
1018.3362	2915.6613	3519.2	2629.7
1018.4515	2916.7725	3486	2598.85
1018.5667	2917.8831	3460.85	2574.3
1018.6819	2918.9931	3459.5	2573.05
1018.797	2920.1024	3424.85	2537.8
1018.9121	2921.211	3407.6	2523.4
1019.0271	2922.319	3396.95	2512
1019.1421	2923.4264	3372.1	2489.1
1019.2571	2924.5331	3362.15	2479.05
1019.372	2925.6391	3359.45	2473.85
1019.4869	2926.7445	3349.55	2467
1019.6017	2927.8493	3348.4	2463.75
1019.7165	2928.9534	3330.35	2445.45
1019.8313	2930.0569	3345.4	2457.9
1019.946	2931.1597	3341.15	2456.05
1020.0606	2932.2619	3337.55	2453.05
1020.1753	2933.3634	3334.95	2452.2
1020.2899	2934.4643	3337.1	2444.15
1020.4044	2935.5645	3308.05	2418.6
1020.5189	2936.6641	3302.75	2414.4
1020.6334	2937.763	3272.5	2389.7
1020.7478	2938.8613	3248.95	2363.65
1020.8622	2939.959	3214.5	2322.1
1020.9765	2941.056	3155.25	2272.1
1021.0908	2942.1523	3104.3	2217.85
1021.2051	2943.248	3041.3	2156.85
1021.3193	2944.3431	2969.45	2086.85
1021.4334	2945.4375	2898	2012.2
1021.5476	2946.5313	2830.15	1946.5
1021.6617	2947.6244	2754.4	1869.75
1021.7757	2948.7169	2682.85	1798.55
1021.8897	2949.8087	2606.1	1721.95
1022.0037	2950.8999	2551	1666
1022.1176	2951.9904	2491.9	1607.9
1022.2315	2953.0803	2442.75	1557.45
1022.3453	2954.1696	2382.75	1498.25
1022.4591	2955.2582	2356.05	1472.75
1022.5728	2956.3462	2320.65	1438.45
1022.6865	2957.4335	2284.7	1399.8
1022.8002	2958.5202	2253.2	1370.05
1022.9138	2959.6062	2242.05	1357.2
1023.0274	2960.6916	2215.65	1330.85
1023.141	2961.7764	2199.1	1313.2
1023.2545	2962.8605	2183.65	1299.95
1023.3679	2963.9439	2168.9	1284.5
1023.4813	2965.0267	2165.35	1281.55
1023.5947	2966.1089	2186.65	1279.5
1023.708	2967.1905	2152.7	1270.05
1023.8213	2968.2714	2149.9	1266.95
1023.9346	2969.3516	2143.4	1261.05
1024.0478	2970.4312	2149.3	1258.4
1024.1609	2971.5102	2145.55	1264.1
1024.274	2972.5885	2144.1	1260.05
1024.3871	2973.6662	2145.85	1258.45
1024.5002	2974.7432	2141.85	1258.45
1024.6132	2975.8196	2122.7	1239
1024.7261	2976.8954	2118.25	1236.75
1024.839	2977.9705	2112.3	1229.6
1024.9519	2979.045	2113.3	1229.75
1025.0647	2980.1188	2090.25	1209.1
1025.1775	2981.192	2080.75	1199.4
1025.2902	2982.2645	2066.1	1181.4
1025.4029	2983.3364	2052.55	1166.6
1025.5156	2984.4077	2017.25	1132.55
1025.6282	2985.4783	2010.25	1120.55
1025.7407	2986.5483	1978.7	1096.1
1025.8532	2987.6177	1959.3	1077.05
1025.9657	2988.6864	1931.35	1046.5
1026.0782	2989.7545	1903.95	1019.4
1026.1906	2990.8219	1877	992.65
1026.3029	2991.8887	1856.75	971.9
1026.4152	2992.9548	1829	945.75
1026.5275	2994.0204	1801.75	918.9
1026.6397	2995.0852	1783.95	902.25
1026.7519	2996.1495	1759	874.3
1026.864	2997.2131	1744	861.65
1026.9761	2998.276	1732.25	849.05
1027.0882	2999.3383	1711.55	827.25
1027.2002	3000.4	1692.6	807.55
1027.3122	3001.4611	1683.5	799.85
1027.4241	3002.5215	1659.45	775.75
1027.536	3003.5812	1650.65	768.4
1027.6478	3004.6404	1631.75	748.9
1027.7596	3005.6989	1629.1	744.85
1027.8714	3006.7567	1627.2	743.2
1027.9831	3007.8139	1629.15	729.45
1028.0947	3008.8705	1602	717.45
1028.2064	3009.9264	1613.85	714.95
1028.3179	3010.9818	1592.75	708.55
1028.4295	3012.0364	1584.75	700.2
1028.541	3013.0905	1577.85	693.75
1028.6524	3014.1439	1578.25	694.15
1028.7638	3015.1966	1574.95	692.5
1028.8752	3016.2487	1566.5	682.4
1028.9865	3017.3002	1566.75	679.85
1029.0978	3018.3511	1567.7	685.95
1029.209	3019.4013	1565.3	684.7
1029.3202	3020.4509	1553.05	670.85
1029.4314	3021.4998	1551.9	669.2
1029.5425	3022.5481	1545.25	661.3
1029.6535	3023.5958	1551.55	668.95
1029.7645	3024.6428	1548.85	664.6
1029.8755	3025.6892	1553.3	672.9
1029.9864	3026.735	1541.35	659.65
1030.0973	3027.7802	1538.05	654.95
1030.2082	3028.8247	1542.25	660.35
1030.319	3029.8685	1540.45	656.9
1030.4297	3030.9118	1543.35	660.1
1030.5404	3031.9544	1535.15	652.15
1030.6511	3032.9963	1534.45	652.05
1030.7617	3034.0376	1543.95	660.5
1030.8723	3035.0783	1542.25	656.8
1030.9829	3036.1184	1543.7	657.8
1031.0934	3037.1578	1545.2	662.8
1031.2038	3038.1966	1543	658.7
1031.3142	3039.2348	1544.4	660.5
1031.4246	3040.2723	1550.45	661.15
1031.5349	3041.3092	1533.9	654.15
1031.6452	3042.3455	1539.45	656.5
1031.7554	3043.3811	1537.15	654.65
1031.8656	3044.4161	1533.45	651.4
1031.9758	3045.4505	1526.1	645.2
1032.0859	3046.4842	1534.7	649.15
1032.1959	3047.5173	1515.45	635.15
1032.3059	3048.5498	1517.25	634.8
1032.4159	3049.5816	1514.25	631.1
1032.5258	3050.6128	1503.3	620.25
1032.6357	3051.6434	1502.2	619.45
1032.7455	3052.6734	1497.6	613.15
1032.8553	3053.7027	1495	611.35
1032.9651	3054.7314	1487.95	605.9
1033.0748	3055.7594	1485.4	602.75
1033.1845	3056.7868	1481.95	600.35
1033.2941	3057.8136	1475.35	591.3
1033.4037	3058.8398	1474.95	593.05
1033.5132	3059.8653	1469.25	587.15
1033.6227	3060.8902	1466.45	582.85
1033.7321	3061.9145	1457.95	575.6
1033.8415	3062.9381	1460.5	576.4
1033.9509	3063.9612	1465.35	565.95
1034.0602	3064.9835	1445.25	563.1
1034.1694	3066.0053	1446.8	561.8
1034.2787	3067.0264	1437.75	555.8
1034.3878	3068.0469	1437	554.35
1034.497	3069.0668	1439.05	555.55
1034.6061	3070.086	1423.35	540.75
1034.7151	3071.1046	1418.05	534.95
1034.8241	3072.1226	1412.05	528.35
1034.9331	3073.1399	1404.75	522.85
1035.042	3074.1567	1401.9	518.9
1035.1508	3075.1727	1394.25	509.7
1035.2597	3076.1882	1381.35	498.25
1035.3684	3077.203	1374.1	491.35
1035.4772	3078.2173	1379.4	495.5
1035.5859	3079.2308	1373.6	488.45
1035.6945	3080.2438	1368.25	483.65
1035.8031	3081.2561	1347.85	466.8
1035.9117	3082.2678	1348.6	466.45
1036.0202	3083.2789	1349.5	465.75
1036.1286	3084.2893	1339.05	458.95
1036.2371	3085.2991	1334.4	452.3
1036.3454	3086.3083	1333	446.5
1036.4538	3087.3169	1325.5	441.75
1036.562	3088.3248	1325	441.15
1036.6703	3089.3321	1314.05	428.75
1036.7785	3090.3388	1308.6	427.45
1036.8866	3091.3449	1305.1	424.35
1036.9948	3092.3503	1304.95	422.35
1037.1028	3093.3551	1294.65	413.8
1037.2108	3094.3593	1294.25	413.85
1037.3188	3095.3629	1293.4	413.7
1037.4267	3096.3658	1290.45	406.85
1037.5346	3097.3681	1287.65	406
1037.6425	3098.3698	1280.85	395.85
1037.7503	3099.3708	1288.3	398.35
1037.858	3100.3713	1277.15	397.2
1037.9657	3101.3711	1274.25	391.7
1038.0734	3102.3702	1407.35	384.8
1038.181	3103.3688	1272.95	389.9
1038.2886	3104.3667	1261.75	379.55
1038.3961	3105.364	1261.95	379.6
1038.5036	3106.3607	1260.25	376.6
1038.611	3107.3568	1253.35	371.1
1038.7184	3108.3522	1252.9	372.65
1038.8257	3109.347	1250.65	366.1
1038.933	3110.3412	1250.1	363.5
1039.0403	3111.3348	1244.3	363.3
1039.1475	3112.3277	1245.95	364.35
1039.2547	3113.32	1238.25	356.25
1039.3618	3114.3117	1239.2	356.65
1039.4689	3115.3028	1238.35	356.05
1039.5759	3116.2932	1231.7	348.4
1039.6829	3117.2831	1237.5	349.55
1039.7898	3118.2723	1231.15	348.7
1039.8967	3119.2608	1227.75	345.7
1040.0035	3120.2488	1226.65	344.55
1040.1103	3121.2361	1225.35	343
1040.2171	3122.2229	1215.6	332.95
1040.3238	3123.209	1217.2	335.35
1040.4305	3124.1944	1213.5	330.65
1040.5371	3125.1793	1214.95	333.15
1040.6437	3126.1635	1204.95	324.1
1040.7502	3127.1471	1205.1	324.5
1040.8567	3128.1301	1207.3	326.75
1040.9631	3129.1125	1205.35	323.5
1041.0695	3130.0942	1202.2	320.1
1041.1759	3131.0753	1211.35	321.35
1041.2822	3132.0558	1204.05	320.9
1041.3884	3133.0357	1200.65	316.8
1041.4946	3134.015	1201.05	317
1041.6008	3134.9936	1192	308.85
1041.7069	3135.9716	1210.6	307.3
1041.813	3136.949	1188.4	306.65
1041.919	3137.9258	1209.9	309.85
1042.025	3138.902	1190.05	305.25
1042.1309	3139.8775	1182.1	302.7
1042.2368	3140.8524	1181.2	299.4
1042.3427	3141.8267	1179.05	295.6
1042.4485	3142.8004	1179.5	297.1
1042.5542	3143.7735	1178.1	290.6
1042.6599	3144.7459	1181.25	296.8
1042.7656	3145.7178	1180.35	297.55
1042.8712	3146.689	1170.85	290.7
1042.9768	3147.6596	1168.65	285
1043.0823	3148.6295	1172.4	289.6
1043.1878	3149.5989	1166.95	286
1043.2932	3150.5676	1167.6	288.45
1043.3986	3151.5357	1162.7	281
1043.5039	3152.5032	1163.7	283.7
1043.6092	3153.4701	1163.8	283.55
1043.7145	3154.4364	1158.75	273.35
1043.8197	3155.402	1157.6	276.45
1043.9248	3156.367	1152.5	269.95
1044.03	3157.3315	1192.75	274.25
1044.135	3158.2952	1158.6	278.85
1044.24	3159.2584	1146.65	265.35
1044.345	3160.221	1152.1	270.5
1044.4499	3161.1829	1146.65	265.05
1044.5548	3162.1442	1149.8	268.45
1044.6596	3163.105	1140.4	258.25
1044.7644	3164.065	1145.15	262.85
1044.8692	3165.0245	1142.35	257.8
1044.9739	3165.9834	1139.9	260.3
1045.0785	3166.9416	1137.15	257.25
1045.1831	3167.8993	1143.7	261.6
1045.2877	3168.8563	1134.85	252.65
1045.3922	3169.8127	1132.95	252.4
1045.4966	3170.7684	1129.45	248.1
1045.6011	3171.7236	1136.85	254.7
1045.7054	3172.6782	1127.45	244.65
1045.8098	3173.6321	1129.4	248.75
1045.914	3174.5854	1136.45	252.1
1046.0183	3175.5381	1132.9	252.1
1046.1224	3176.4902	1120.95	240.05
1046.2266	3177.4417	1125.05	244.8
1046.3307	3178.3926	1120.8	240.4
1046.4347	3179.3428	1116.25	236.05
1046.5387	3180.2924	1121.35	238.85
1046.6427	3181.2415	1118.9	238.3
1046.7466	3182.1899	1120.45	235.6
1046.8504	3183.1377	1113.5	234.7
1046.9542	3184.0848	1116.6	232.85
1047.058	3185.0314	1116.15	235.4
1047.1617	3185.9773	1115.9	235.35
1047.2654	3186.9227	1110.1	229.3
1047.369	3187.8674	1105.85	223.15
1047.4726	3188.8115	1111.5	225.85
1047.5761	3189.755	1106.85	224.65
1047.6796	3190.6979	1106.8	225.7
1047.783	3191.6402	1105.2	223.8
1047.8864	3192.5818	1105.6	225.85
1047.9898	3193.5229	1105.55	219.95
1048.0931	3194.4633	1102.6	222.05
1048.1963	3195.4031	1104.15	221.25
1048.2995	3196.3423	1094.9	216.4
1048.4027	3197.2809	1097.8	215.35
1048.5058	3198.2189	1096.95	214.55
1048.6089	3199.1563	1095.95	207.95
1048.7119	3200.0931	1089.75	208.2
1048.8148	3201.0292	1092.25	212.55
1048.9178	3201.9648	1092.2	210.3
1049.0206	3202.8997	1089.1	203.95
1049.1235	3203.834	1091	209.8
1049.2262	3204.7677	1088.9	207.2
1049.329	3205.7008	1089.8	207.15
1049.4317	3206.6333	1087.85	207.75
1049.5343	3207.5652	1087.3	202.6
1049.6369	3208.4964	1088.65	207
1049.7394	3209.4271	1083.35	202.35
1049.8419	3210.3571	1080.9	199.15
1049.9444	3211.2865	1080	198.05
1050.0468	3212.2154	1077.55	197.75
1050.1491	3213.1436	1084.1	201.55
1050.2514	3214.0712	1082.3	196.45
1050.3537	3214.9982	1079.05	199
1050.4559	3215.9246	1074.75	192.25
1050.5581	3216.8503	1074.15	194.55
1050.6602	3217.7755	1070.5	188.15
1050.7623	3218.7001	1070.35	189.85
1050.8643	3219.624	1073.5	193.35
1050.9663	3220.5473	1070.95	190.25
1051.0682	3221.4701	1068.15	188.05
1051.1701	3222.3922	1073.3	189.45
1051.2719	3223.3137	1063.2	181.9
1051.3737	3224.2346	1072.05	191.1
1051.4754	3225.1549	1068.15	186
1051.5771	3226.0746	1062.2	182.2
1051.6788	3226.9937	1065.6	184.65
1051.7804	3227.9121	1062.2	183.3
1051.8819	3228.83	1057.55	178.4
1051.9834	3229.7473	1061.7	181.9
1052.0849	3230.6639	1056.25	175.25
1052.1863	3231.5799	1058.15	177.35
1052.2876	3232.4954	1056.05	174.25
1052.3889	3233.4102	1056.15	177.7
1052.4902	3234.3244	1056.4	174.55
1052.5914	3235.238	1058.35	179.4
1052.6926	3236.151	1081.75	175.05
1052.7937	3237.0634	1054.6	175.45
1052.8948	3237.9752	1044.85	167.2
1052.9958	3238.8864	1049.65	168.75
1053.0968	3239.797	1047.45	167.7
1053.1977	3240.7069	1048.85	167.15
1053.2986	3241.6163	1047.4	166.05
1053.3994	3242.5251	1046.95	167.7
1053.5002	3243.4332	1039.8	159.55
1053.6009	3244.3408	1042.4	161.35
1053.7016	3245.2477	1044.95	164.8
1053.8022	3246.154	1040.35	156.1
1053.9028	3247.0598	1041.55	160
1054.0034	3247.9649	1039.25	157.65
1054.1039	3248.8694	1041.1	162.1
1054.2043	3249.7733	1037.5	157.3
1054.3047	3250.6766	1037.35	157
1054.4051	3251.5793	1038.6	157.2
1054.5054	3252.4814	1037.2	156.3
1054.6056	3253.3829	1033.45	153.7
1054.7058	3254.2838	1030.4	150.6
1054.806	3255.1841	1032.35	151.8
1054.9061	3256.0838	1030.95	151.55
1055.0061	3256.9829	1026.65	148.75
1055.1062	3257.8814	1027.9	144.7
1055.2061	3258.7792	1027.2	144.95
1055.306	3259.6765	1027.3	145.9
1055.4059	3260.5731	1022.3	141.45
1055.5057	3261.4692	1023.2	142
1055.6055	3262.3647	1017.1	137.1
1055.7052	3263.2595	1011.2	131.45
1055.8049	3264.1538	1014.8	135.85
1055.9045	3265.0474	1015.1	133.45
1056.0041	3265.9404	1012	131.7
1056.1036	3266.8329	1009.7	130.3
1056.2031	3267.7247	1018.55	129.1
1056.3025	3268.616	1005.25	128.35
1056.4019	3269.5066	1003.6	122.05
1056.5013	3270.3966	1001.85	120.5
1056.6005	3271.286	991.45	112.95
