Software Version:	3.9.2.0
Unit SN:	10000200
Spectrometer SN:	6960
Date:	3/26/2024 2:22:18 PM
Data Line Index:	25
Spectral Points:	2048
Integration time (ms):	125
Averages:	20
Delay (ms):	30000
Sequence Number:	1
Processing:	dark subtract
Laser Power (mW):	305
Laser Current (mA):	820
Laser Diode Temp (C):	25.1
Laser Case Temp (C):	27.6
System Temp (C):	27.7
Spectrometer Temp (C):	25.6
CCD Temp (C):	0.002
Secondary Temp (C):	20.007
Heatsink Temp (C):	23.156
CCDPCB Temp (C):	37.118
SecondaryPCB Temp (C):	34.528

Wavelength	RamanShift	Raw Counts	Dark Subtracted
787.061	30.1047	667.5	256.95
787.2016	32.3739	681.15	272.05
787.3422	34.6426	702.8	292.85
787.4828	36.9109	722.8	310.75
787.6235	39.1787	741.55	325.95
787.7642	41.4461	780	356.6
787.9049	43.7131	800.25	375
788.0456	45.9796	827.4	398.65
788.1863	48.2456	852.6	421.25
788.3271	50.5112	889.6	454.45
788.4679	52.7764	913.25	475.3
788.6087	55.0411	947.4	507
788.7496	57.3054	987.2	541.55
788.8904	59.5692	1022.3	572.75
789.0313	61.8326	1062.2	609.55
789.1722	64.0955	1107.25	652.4
789.3132	66.3579	1151.95	689.75
789.4541	68.6199	1227.2	762.5
789.5951	70.8815	1333	864.3
789.7361	73.1426	1553.15	1081.45
789.8771	75.4032	2122.6	1644.9
790.0181	77.6634	3521.5	3036.6
790.1592	79.9231	7068.7	6576.4
790.3003	82.1824	15244.4	14731.9
790.4414	84.4412	36498.5	35952.7
790.5825	86.6995	64183.5	63591.2
790.7237	88.9574	65535	64899.15
790.8648	91.2148	65535	64862.75
791.006	93.4717	65535	64849.65
791.1472	95.7282	65535	64839.25
791.2885	97.9842	65535	64829.6
791.4297	100.2398	65535	64830.65
791.571	102.4949	65535	64828.3
791.7123	104.7495	65535	64823.5
791.8536	107.0036	65535	64825.1
791.9949	109.2573	65535	64819.7
792.1363	111.5105	65535	64822.1
792.2777	113.7632	65535	64816.7
792.4191	116.0154	65535	64810.9
792.5605	118.2672	65535	64810.9
792.7019	120.5185	65535	64814.15
792.8434	122.7693	65535	64813.4
792.9849	125.0197	65535	64810.6
793.1264	127.2696	65535	64806.5
793.2679	129.519	65535	64803.65
793.4094	131.7679	65535	64800.2
793.551	134.0163	65535	64790.95
793.6926	136.2642	65535	64789.35
793.8342	138.5117	65535	64788.2
793.9758	140.7587	65535	64787.5
794.1175	143.0052	65535	64783.05
794.2591	145.2512	65535	64784.05
794.4008	147.4967	65535	64783.25
794.5425	149.7417	65535	64781.1
794.6842	151.9863	65535	64782.15
794.826	154.2304	65535	64771.35
794.9677	156.4739	65535	64771.65
795.1095	158.717	65535	64769.65
795.2513	160.9596	65535	64765.65
795.3931	163.2017	65535	64759.25
795.535	165.4433	65535	64764.75
795.6768	167.6844	65535	64758.9
795.8187	169.925	65535	64754.6
795.9606	172.1651	65535	64760.85
796.1025	174.4047	65535	64753.05
796.2445	176.6439	65535	64752.35
796.3864	178.8825	65535	64748.7
796.5284	181.1206	65535	64746.15
796.6704	183.3582	65535	64740.85
796.8124	185.5954	65535	64742.85
796.9544	187.832	65535	64737.75
797.0965	190.0681	65535	64737.15
797.2386	192.3037	65535	64725.5
797.3806	194.5388	65535	64729.1
797.5228	196.7734	65535	64724.75
797.6649	199.0075	65535	64722.85
797.807	201.2411	65535	64713.95
797.9492	203.4742	65535	64715.1
798.0914	205.7068	65535	64714.65
798.2336	207.9389	65535	64717.85
798.3758	210.1704	65535	64714
798.518	212.4015	65535	64709.05
798.6603	214.632	65535	64711.85
798.8025	216.862	65535	64721.1
798.9448	219.0915	65535	64723.15
799.0871	221.3205	65535	64728.25
799.2294	223.549	65535	64732.9
799.3718	225.777	65535	64733.4
799.5141	228.0044	65535	64728.75
799.6565	230.2314	65535	64729.8
799.7989	232.4578	65535	64732.35
799.9413	234.6837	65535	64725.5
800.0837	236.909	65535	64723.75
800.2262	239.1339	65535	64697.5
800.3687	241.3582	65535	64712.9
800.5111	243.582	65535	64683.35
800.6536	245.8053	65535	64697.95
800.7961	248.0281	65535	64700.8
800.9387	250.2503	65535	64693.75
801.0812	252.472	65535	64691.15
801.2238	254.6932	65535	64689.4
801.3664	256.9139	65535	64685.7
801.509	259.134	65535	64682.25
801.6516	261.3536	65535	64682.55
801.7942	263.5727	65535	64683.4
801.9369	265.7912	65535	64678.3
802.0795	268.0092	65535	64684.05
802.2222	270.2267	65535	64682.5
802.3649	272.4436	65535	64685.8
802.5076	274.6601	65535	64673.2
802.6504	276.8759	65535	64681.45
802.7931	279.0913	65535	64679
802.9359	281.3061	65535	64675.5
803.0787	283.5204	65535	64673.75
803.2215	285.7341	65535	64670.25
803.3643	287.9473	65535	64657.5
803.5071	290.16	65535	64669.3
803.6499	292.3721	65535	64672.75
803.7928	294.5837	65535	64666.4
803.9357	296.7947	65535	64670.05
804.0786	299.0052	65535	64667.65
804.2215	301.2152	65535	64665.5
804.3644	303.4246	65535	64669.75
804.5074	305.6334	65535	64674.85
804.6503	307.8418	65535	64664.45
804.7933	310.0495	65535	64662.6
804.9363	312.2568	65535	64663.2
805.0793	314.4635	65535	64666.95
805.2223	316.6696	65535	64661.45
805.3653	318.8752	65535	64652.35
805.5084	321.0802	65535	64662.8
805.6514	323.2847	65535	64656.2
805.7945	325.4887	65535	64656.95
805.9376	327.692	65535	64659.2
806.0807	329.8949	65535	64657.2
806.2238	332.0972	65535	64652.9
806.367	334.2989	65535	64653.25
806.5101	336.5001	65535	64651.75
806.6533	338.7007	65535	64651.85
806.7965	340.9008	65535	64645
806.9397	343.1003	65535	64648.2
807.0829	345.2992	65535	64646.45
807.2261	347.4976	65535	64648.35
807.3693	349.6955	65535	64643.55
807.5126	351.8927	65535	64644
807.6559	354.0895	65535	64630.55
807.7991	356.2856	65535	64639.95
807.9424	358.4812	65535	64643.95
808.0857	360.6763	65535	64636.6
808.2291	362.8707	65535	64641
808.3724	365.0646	65535	64639.8
808.5158	367.258	65535	64635.7
808.6591	369.4508	65535	64637.25
808.8025	371.643	65535	64634
808.9459	373.8346	65535	64628.6
809.0893	376.0257	65535	64631.4
809.2327	378.2162	65535	64627.8
809.3762	380.4062	65535	64622.9
809.5196	382.5956	65535	64629.95
809.6631	384.7844	65535	64631.65
809.8066	386.9726	65535	64625.9
809.9501	389.1603	65535	64628.75
810.0936	391.3474	65535	64598.95
810.2371	393.5339	65535	64631.6
810.3806	395.7199	65535	64635.8
810.5241	397.9052	65535	64638.2
810.6677	400.09	65535	64638.65
810.8113	402.2743	65535	64636.75
810.9548	404.4579	65535	64641.05
811.0984	406.641	65535	64637
811.2421	408.8235	65535	64642.7
811.3857	411.0054	65535	64637.6
811.5293	413.1868	65535	64634.05
811.673	415.3675	65535	64632.9
811.8166	417.5477	65535	64628.4
811.9603	419.7273	65535	64628.95
812.104	421.9064	65535	64624.5
812.2477	424.0848	65535	64623.75
812.3914	426.2627	65535	64626.1
812.5351	428.4399	65535	64622.65
812.6788	430.6166	65535	64617.65
812.8226	432.7928	65535	64622.45
812.9663	434.9683	65535	64625.75
813.1101	437.1432	65535	64625.35
813.2539	439.3176	65535	64630.05
813.3977	441.4914	65535	64629.9
813.5415	443.6645	65535	64623.4
813.6853	445.8371	65535	64620.3
813.8291	448.0091	65535	64625.65
813.973	450.1806	65535	64623.1
814.1168	452.3514	65535	64627.25
814.2607	454.5216	65535	64619.55
814.4046	456.6913	65535	64622.35
814.5485	458.8603	65535	64624.05
814.6924	461.0288	65535	64631.3
814.8363	463.1967	65535	64630.3
814.9802	465.3639	65535	64626.15
815.1241	467.5306	65535	64619
815.2681	469.6967	65535	64625.8
815.412	471.8622	65535	64627.4
815.556	474.0271	65535	64626.3
815.7	476.1914	65535	64617.45
815.844	478.3551	65535	64625.5
815.988	480.5182	65535	64626.1
816.132	482.6807	65535	64627.2
816.276	484.8426	65535	64633.55
816.4201	487.0039	65535	64630.95
816.5641	489.1647	65535	64622.45
816.7082	491.3248	65535	64624.4
816.8522	493.4843	65535	64629.25
816.9963	495.6432	65535	64624.45
817.1404	497.8015	65535	64614.25
817.2845	499.9592	65535	64610.3
817.4286	502.1163	65535	64610.75
817.5727	504.2728	65535	64619.7
817.7168	506.4287	65535	64630.1
817.861	508.5839	65535	64628.95
818.0051	510.7386	65535	64622.3
818.1493	512.8927	65535	64610.05
818.2935	515.0461	65535	64613.4
818.4377	517.199	65535	64612.9
818.5818	519.3512	65535	64612.1
818.726	521.5029	65535	64609.1
818.8703	523.6539	65535	64616.2
819.0145	525.8043	65535	64616.5
819.1587	527.9541	65535	64610.8
819.303	530.1033	65535	64613.95
819.4472	532.2519	65535	64613.45
819.5915	534.3999	65535	64615.25
819.7357	536.5472	65535	64615.3
819.88	538.694	65535	64616.5
820.0243	540.8401	65535	64614.35
820.1686	542.9856	65535	64606.8
820.3129	545.1305	65535	64595.5
820.4572	547.2748	65535	64596.4
820.6016	549.4185	65535	64592.35
820.7459	551.5615	65535	64598.2
820.8902	553.704	65535	64595.05
821.0346	555.8458	65535	64600.65
821.1789	557.987	65535	64600.45
821.3233	560.1276	65535	64603.7
821.4677	562.2675	65535	64599.35
821.6121	564.4069	65535	64600.35
821.7565	566.5456	65535	64607
821.9009	568.6837	65535	64609.2
822.0453	570.8212	65535	64607.45
822.1897	572.958	65535	64607.8
822.3342	575.0942	65535	64613.2
822.4786	577.2299	65535	64614.55
822.6231	579.3648	65535	64626.5
822.7675	581.4992	65535	64629.75
822.912	583.6329	65535	64635.55
823.0565	585.766	65535	64627.95
823.201	587.8985	65535	64624.95
823.3454	590.0304	65535	64603.55
823.4899	592.1616	65535	64604.5
823.6345	594.2922	65535	64606.1
823.779	596.4222	65535	64599.4
823.9235	598.5515	65535	64600
824.068	600.6802	65535	64599.55
824.2126	602.8083	65535	64606.15
824.3571	604.9358	65535	64602.75
824.5017	607.0626	65535	64599.3
824.6462	609.1888	65535	64596.35
824.7908	611.3144	65535	64591.45
824.9354	613.4393	65535	64595.5
825.08	615.5636	65535	64590.15
825.2246	617.6873	65535	64600.9
825.3692	619.8103	65535	64597.35
825.5138	621.9327	65535	64600
825.6584	624.0544	65535	64606.9
825.803	626.1756	65535	64605.25
825.9477	628.2961	65535	64598.55
826.0923	630.4159	65535	64599.45
826.237	632.5351	65535	64597.7
826.3816	634.6537	65535	64596.4
826.5263	636.7716	65535	64589.55
826.6709	638.8889	65535	64589.5
826.8156	641.0056	65535	64590.25
826.9603	643.1216	65535	64591.1
827.105	645.237	65535	64591.4
827.2497	647.3518	65535	64601.45
827.3944	649.4659	65535	64605.55
827.5391	651.5793	65535	64605.5
827.6838	653.6922	65535	64599.1
827.8285	655.8043	65535	64598.35
827.9733	657.9159	65535	64596.25
828.118	660.0268	65535	64598.9
828.2627	662.137	65535	64598.45
828.4075	664.2466	65535	64591
828.5522	666.3556	65535	64593.05
828.697	668.4639	65535	64595.35
828.8418	670.5716	65535	64601.25
828.9865	672.6786	65535	64597.15
829.1313	674.785	65535	64593.15
829.2761	676.8907	65535	64595
829.4209	678.9958	65535	64600.95
829.5657	681.1002	65535	64595
829.7105	683.204	65535	64589.25
829.8553	685.3072	65535	64590.1
830.0001	687.4097	65535	64591.4
830.1449	689.5115	65535	64590.15
830.2898	691.6127	65535	64596.65
830.4346	693.7132	65535	64597.7
830.5794	695.8131	65535	64570.3
830.7243	697.9123	65535	64589.35
830.8691	700.0109	65535	64588
831.014	702.1089	65535	64587.75
831.1588	704.2061	65535	64589.35
831.3037	706.3028	65535	64592.75
831.4486	708.3987	65535	64590.55
831.5935	710.4941	65535	64590.8
831.7383	712.5887	65535	64588.9
831.8832	714.6827	65535	64590.95
832.0281	716.7761	65535	64595.4
832.173	718.8688	65535	64588.75
832.3179	720.9608	65535	64582.25
832.4628	723.0522	65535	64579.85
832.6077	725.1429	65535	64582.8
832.7527	727.233	65535	64587.95
832.8976	729.3224	65535	64587.7
833.0425	731.4112	65535	64588.65
833.1874	733.4993	65535	64588.05
833.3324	735.5867	65535	64586.75
833.4773	737.6735	65535	64587.8
833.6222	739.7596	65535	64583.2
833.7672	741.845	65535	64588.35
833.9122	743.9298	65535	64587.25
834.0571	746.014	65535	64584.4
834.2021	748.0974	65535	64584.1
834.347	750.1802	65535	64584.5
834.492	752.2624	65535	64581.5
834.637	754.3439	65535	64583.9
834.782	756.4247	65535	64573.35
834.9269	758.5048	65535	64583.85
835.0719	760.5843	65535	64578.35
835.2169	762.6631	65535	64584.65
835.3619	764.7413	65535	64584.95
835.5069	766.8188	65535	64581.2
835.6519	768.8956	65535	64583.4
835.7969	770.9718	65535	64582.25
835.9419	773.0473	65535	64581.8
836.0869	775.1221	65535	64584.7
836.232	777.1962	65535	64582.5
836.377	779.2697	65535	64583.55
836.522	781.3426	65535	64562.15
836.667	783.4147	65535	64582.45
836.8121	785.4862	65535	64584.55
836.9571	787.557	65535	64578.8
837.1021	789.6271	65535	64583.85
837.2472	791.6966	65535	64578.45
837.3922	793.7654	65535	64582.15
837.5373	795.8335	65535	64584.05
837.6823	797.901	65535	64579.8
837.8274	799.9678	65535	64577
837.9724	802.0339	65535	64581.05
838.1175	804.0993	65535	64567.1
838.2626	806.1641	65535	64583
838.4076	808.2282	65535	64581.55
838.5527	810.2916	65535	64579.65
838.6978	812.3544	65535	64587.25
838.8428	814.4164	65535	64581.9
838.9879	816.4778	65535	64577.85
839.133	818.5385	65535	64578.55
839.2781	820.5986	65535	64578.3
839.4232	822.658	65535	64580.05
839.5682	824.7166	65535	64581.25
839.7133	826.7747	65535	64582.8
839.8584	828.832	65535	64579
840.0035	830.8886	65535	64578.45
840.1486	832.9446	65535	64574.8
840.2937	834.9999	65535	64580.35
840.4388	837.0545	65535	64574.7
840.5839	839.1085	65535	64579.8
840.729	841.1618	65535	64574.25
840.8741	843.2143	65535	64580.4
841.0192	845.2662	65535	64579.2
841.1643	847.3175	65535	64579.1
841.3095	849.368	65535	64579.75
841.4546	851.4179	65535	64580
841.5997	853.467	65535	64581.75
841.7448	855.5155	65535	64580.4
841.8899	857.5633	65535	64580.7
842.0351	859.6105	65531.8	64572.6
842.1802	861.6569	65535	64572.6
842.3253	863.7027	65523.1	64565.95
842.4704	865.7478	65525.8	64566.55
842.6156	867.7922	65522.05	64562.85
842.7607	869.8359	65531.5	64572.35
842.9058	871.8789	65520.65	64563.65
843.0509	873.9212	65526.1	64537
843.1961	875.9629	65533.5	64577.5
843.3412	878.0039	65527.85	64572.8
843.4863	880.0441	65524.05	64567.05
843.6315	882.0837	65524	64568.15
843.7766	884.1226	65523.25	64569.65
843.9218	886.1609	65518	64559.25
844.0669	888.1984	65492.8	64536.55
844.212	890.2352	65518.75	64561.85
844.3572	892.2714	65477.85	64516.35
844.5023	894.3069	65511.95	64554
844.6475	896.3416	65483.2	64523.95
844.7926	898.3757	65470.3	64509.65
844.9377	900.4091	65404.15	64445.1
845.0829	902.4418	65473.3	64506.45
845.228	904.4739	65441.05	64475.3
845.3732	906.5052	65440.05	64477.85
845.5183	908.5358	65409.05	64453.45
845.6635	910.5658	65400.1	64436.95
845.8086	912.595	65396.4	64436.75
845.9538	914.6236	65322.55	64362.5
846.0989	916.6515	65417.6	64458.8
846.2441	918.6786	65310.5	64351.05
846.3892	920.7051	65351	64390.05
846.5344	922.7309	65330.65	64368.4
846.6795	924.756	65346.8	64387.1
846.8246	926.7804	65308.85	64351
846.9698	928.8041	65162.6	64200.6
847.1149	930.8272	65309	64349.4
847.2601	932.8495	65302.8	64343.3
847.4052	934.8711	65186.25	64226.3
847.5504	936.892	65038.35	64076.85
847.6955	938.9123	65136	64173.95
847.8407	940.9318	65010.6	64052
847.9858	942.9506	64959.25	63997.9
848.131	944.9688	65000.2	64037.8
848.2761	946.9862	64533.55	63574.95
848.4213	949.003	64779.65	63822.85
848.5664	951.019	64312.05	63352.6
848.7115	953.0344	64431.25	63467.75
848.8567	955.0491	64332.05	63373.45
849.0018	957.063	64551.85	63596.3
849.147	959.0763	64602.8	63637.95
849.2921	961.0888	64130.7	63172.85
849.4373	963.1007	64451	63495.1
849.5824	965.1119	64458.4	63513.6
849.7275	967.1223	64085.8	63142.25
849.8727	969.1321	64531.6	63584.55
850.0178	971.1412	63953.8	63004.05
850.1629	973.1495	63748.75	62792.2
850.3081	975.1572	64070.65	63061.85
850.4532	977.1641	63748.8	62787.1
850.5983	979.1704	63723	62765.95
850.7435	981.1759	63781.45	62823.55
850.8886	983.1808	63376.25	62420.15
851.0337	985.1849	63447.65	62479.7
851.1788	987.1884	63625.75	62668.15
851.324	989.1911	63954.8	62996.85
851.4691	991.1932	62875.9	61920.6
851.6142	993.1945	63198.4	62243.55
851.7593	995.1951	63492.3	62531.95
851.9045	997.1951	62835.9	61872.9
852.0496	999.1943	62715.65	61756.85
852.1947	1001.1928	62349.25	61392.45
852.3398	1003.1906	62629.1	61673.95
852.4849	1005.1877	61613.35	60657.05
852.63	1007.1841	61351.2	60395.75
852.7751	1009.1798	61331.95	60381.25
852.9202	1011.1748	61231.2	60275.3
853.0653	1013.1691	60935.85	59980.1
853.2104	1015.1627	59085.95	58129.5
853.3555	1017.1556	59758.35	58805
853.5006	1019.1477	60013.3	59064.85
853.6457	1021.1392	59072.7	58122.25
853.7908	1023.1299	58085.65	57140.7
853.9359	1025.12	58780.25	57840.4
854.081	1027.1093	58214.8	57285
854.2261	1029.0979	58213.95	57288.4
854.3712	1031.0859	58031.1	57095.8
854.5163	1033.0731	57234.3	56292.9
854.6613	1035.0596	57508.15	56561
854.8064	1037.0454	57223.25	56271.8
854.9515	1039.0304	56709.2	55758.25
855.0965	1041.0148	55954.65	55003.6
855.2416	1042.9985	56020.05	55064.95
855.3867	1044.9814	56327.6	55375.65
855.5317	1046.9636	55597	54642.5
855.6768	1048.9452	55505.6	54556.2
855.8219	1050.926	55326.05	54372.55
855.9669	1052.9061	55231.05	54282.8
856.112	1054.8855	55206.45	54253.75
856.257	1056.8642	54719.5	53765.15
856.4021	1058.8421	54548.25	53592.5
856.5471	1060.8194	54542.2	53588.25
856.6921	1062.7959	54316.35	53363.85
856.8372	1064.7717	54462.1	53505.65
856.9822	1066.7469	54202.9	53252.15
857.1272	1068.7213	54067.6	53114.95
857.2723	1070.695	53734.75	52782.65
857.4173	1072.6679	53285.5	52331.25
857.5623	1074.6402	53372.15	52417.55
857.7073	1076.6117	53082.75	52120.95
857.8523	1078.5826	53041.15	52086.45
857.9973	1080.5527	52937.3	51981.3
858.1423	1082.5221	52844.5	51888.55
858.2873	1084.4908	53008.15	52057.3
858.4323	1086.4587	52990.1	52036.85
858.5773	1088.426	53138.45	52182.05
858.7223	1090.3925	52884.75	51925.4
858.8673	1092.3584	52725.3	51770.2
859.0123	1094.3235	52184	51233.65
859.1573	1096.2879	51925.65	50971.3
859.3022	1098.2515	51816.35	50869.2
859.4472	1100.2145	51676.75	50724.7
859.5922	1102.1767	51500.65	50547.35
859.7371	1104.1382	51642.05	50690.2
859.8821	1106.099	51597	50642.7
860.027	1108.0591	51642.8	50687.85
860.172	1110.0185	51412.55	50458.25
860.3169	1111.9771	51527.45	50575.45
860.4619	1113.9351	51000.3	50048.8
860.6068	1115.8923	50472.5	49522.65
860.7517	1117.8488	49965.5	49013
860.8967	1119.8045	49393.05	48442.75
861.0416	1121.7596	49276.9	48326.2
861.1865	1123.7139	48962.7	48012.5
861.3314	1125.6675	48914.8	47964.7
861.4763	1127.6204	48936.15	47984.75
861.6212	1129.5726	48698.45	47748.3
861.7661	1131.524	48685.45	47736.35
861.911	1133.4748	48682.95	47734.95
862.0559	1135.4248	48473.15	47520.5
862.2008	1137.3741	48407.35	47458.85
862.3457	1139.3226	48241.25	47289.65
862.4905	1141.2705	48148.5	47197
862.6354	1143.2176	47818.45	46864
862.7803	1145.164	47745.2	46789.35
862.9251	1147.1097	47658.65	46704.9
863.07	1149.0546	47652.75	46700.35
863.2148	1150.9989	47426.1	46471.95
863.3597	1152.9424	47134.85	46186.3
863.5045	1154.8852	46856.5	45906.8
863.6493	1156.8272	46606.5	45656.4
863.7942	1158.7686	46537.7	45578.9
863.939	1160.7092	46158.05	45207.75
864.0838	1162.6491	46025.55	45074.3
864.2286	1164.5883	46012.4	45062.75
864.3734	1166.5267	45913.55	44957.9
864.5182	1168.4644	45997	45048.8
864.663	1170.4014	46000.8	45047.2
864.8078	1172.3377	46205.8	45261.05
864.9526	1174.2732	46277.3	45325.45
865.0974	1176.2081	46396.4	45449.45
865.2421	1178.1421	46476.55	45523.55
865.3869	1180.0755	46489	45540
865.5317	1182.0082	46220.3	45273.85
865.6764	1183.9401	46072.85	45125.95
865.8212	1185.8713	45723.25	44780.25
865.9659	1187.8017	45324.9	44385.35
866.1106	1189.7315	45028	44096.25
866.2554	1191.6605	44552	43624.45
866.4001	1193.5888	44252.15	43317
866.5448	1195.5163	44028.65	43085.7
866.6895	1197.4432	43769.9	42821.9
866.8342	1199.3693	43524.05	42579.75
866.9789	1201.2947	43299.1	42345.8
867.1236	1203.2193	43053.9	42108.25
867.2683	1205.1432	43034.9	42090.8
867.413	1207.0664	42952.75	42002.8
867.5576	1208.9889	42941.65	41991.7
867.7023	1210.9106	42739.5	41794.1
867.847	1212.8316	42645	41699.55
867.9916	1214.7519	42685.85	41731.5
868.1363	1216.6715	42519.05	41573.85
868.2809	1218.5903	42386.05	41441.85
868.4255	1220.5084	42198.95	41254.05
868.5701	1222.4257	42123.7	41176.15
868.7148	1224.3424	41805.15	40861.7
868.8594	1226.2583	41717.55	40773.55
869.004	1228.1735	41700.4	40751.9
869.1486	1230.0879	41592.75	40645.3
869.2932	1232.0016	41616.3	40669.95
869.4377	1233.9146	41538.95	40592.85
869.5823	1235.8269	41334.15	40388.95
869.7269	1237.7384	41145.15	40200.1
869.8715	1239.6492	40712.55	39766.05
870.016	1241.5592	40609.35	39665.35
870.1606	1243.4686	40343.2	39398.95
870.3051	1245.3772	40139.3	39192.95
870.4496	1247.285	39903.2	38960.85
870.5941	1249.1922	39733.7	38792.25
870.7387	1251.0986	39667.15	38724.6
870.8832	1253.0042	39524.2	38581.35
871.0277	1254.9092	39468.7	38526.95
871.1722	1256.8134	39425.65	38484.85
871.3167	1258.7169	39536	38590.15
871.4611	1260.6196	39499.15	38555.75
871.6056	1262.5216	39667.65	38724.05
871.7501	1264.4229	39692.15	38749.05
871.8945	1266.3234	39785.45	38842.55
872.039	1268.2232	39677.9	38733.45
872.1834	1270.1223	39535.25	38591.1
872.3278	1272.0207	39413.4	38466.25
872.4723	1273.9183	39329.25	38379.15
872.6167	1275.8151	39064.55	38121.3
872.7611	1277.7113	38928.3	37987.3
872.9055	1279.6067	38662.2	37723
873.0499	1281.5014	38427.4	37483.3
873.1943	1283.3953	38137.85	37193.9
873.3386	1285.2885	37930.95	36986.65
873.483	1287.181	37829.55	36888.65
873.6274	1289.0727	37776.25	36836.7
873.7717	1290.9637	37691.45	36747.6
873.9161	1292.854	37771	36830.85
874.0604	1294.7435	37740.15	36797.55
874.2047	1296.6323	37916.7	36975.3
874.349	1298.5204	38107.05	37161.55
874.4933	1300.4077	38259.9	37320.05
874.6376	1302.2943	38397.25	37457
874.7819	1304.1802	38429.4	37490.4
874.9262	1306.0653	38248.05	37304.75
875.0705	1307.9497	38007.05	37066.6
875.2147	1309.8333	37887.55	36946
875.359	1311.7162	37851.3	36911
875.5032	1313.5984	37881.95	36936.3
875.6475	1315.4798	37877.55	36926.85
875.7917	1317.3605	37919.6	36961.45
875.9359	1319.2405	38010.75	37068.9
876.0801	1321.1197	37986.5	37043.55
876.2243	1322.9982	37898.5	36952.2
876.3685	1324.876	37887	36944.95
876.5127	1326.753	37658.9	36717.9
876.6569	1328.6293	37732.15	36787.45
876.801	1330.5048	37719.6	36775.65
876.9452	1332.3796	37577.6	36636.1
877.0893	1334.2537	37504.25	36539.55
877.2335	1336.127	37328.65	36387.25
877.3776	1337.9996	37214.95	36275.1
877.5217	1339.8714	37108.4	36170.1
877.6658	1341.7426	36958.75	35974.9
877.8099	1343.6129	36779.1	35834.75
877.954	1345.4826	36616.6	35673.7
878.0981	1347.3515	36574.1	35631
878.2422	1349.2196	36398.6	35455.25
878.3862	1351.087	36359.6	35418
878.5303	1352.9537	36299.2	35357.15
878.6743	1354.8197	36369	35424.25
878.8184	1356.6849	36513.25	35568.6
878.9624	1358.5493	36497.45	35554.75
879.1064	1360.4131	36403.75	35463.25
879.2504	1362.276	36219.65	35280
879.3944	1364.1383	35957.2	35018.25
879.5384	1365.9998	35598.65	34653.35
879.6823	1367.8606	35194.8	34252.7
879.8263	1369.7206	34876.15	33934
879.9702	1371.5799	34659.05	33716.05
880.1142	1373.4384	34438.65	33499.25
880.2581	1375.2962	34278.65	33336.35
880.402	1377.1533	33869.4	32929.6
880.5459	1379.0096	33398.8	32460.85
880.6898	1380.8652	33092.4	32158.2
880.8337	1382.7201	32788.05	31850.6
880.9776	1384.5742	32493.5	31554.75
881.1215	1386.4275	32268.9	31329.1
881.2653	1388.2802	32009.5	31069.3
881.4092	1390.132	31818.05	30879.95
881.553	1391.9832	31674	30734.85
881.6968	1393.8336	31458.2	30517.45
881.8406	1395.6832	31346.2	30404.75
881.9844	1397.5322	31163.15	30222.85
882.1282	1399.3803	31034.55	30091
882.272	1401.2278	30882.15	29942.5
882.4158	1403.0745	30820.85	29884.45
882.5595	1404.9204	30655.8	29722.65
882.7033	1406.7656	30615.9	29678.9
882.847	1408.6101	30477.5	29536.7
882.9908	1410.4538	30398.85	29459.65
883.1345	1412.2968	30378.8	29440.85
883.2782	1414.139	30242.4	29306.15
883.4219	1415.9805	30277.4	29340.95
883.5656	1417.8213	30232.8	29272.65
883.7092	1419.6613	30269	29331.3
883.8529	1421.5006	30359.2	29424.35
883.9965	1423.3391	30606.7	29669.9
884.1402	1425.1769	30805.15	29867.95
884.2838	1427.0139	31260.15	30322.95
884.4274	1428.8502	31794.25	30854.6
884.571	1430.6858	32313.95	31377.2
884.7146	1432.5206	32622.5	31684.95
884.8582	1434.3547	32851.3	31914.7
885.0018	1436.188	32868.45	31932.95
885.1453	1438.0206	32783.4	31847.25
885.2889	1439.8524	32479.4	31539.25
885.4324	1441.6835	32374.25	31437.35
885.5759	1443.5139	32153.65	31216
885.7194	1445.3435	32007.9	31071.15
885.8629	1447.1724	31927	30991.85
886.0064	1449.0005	31792.5	30859.55
886.1499	1450.8279	31586.75	30652.05
886.2933	1452.6545	31540.45	30606.4
886.4368	1454.4804	31530.9	30597.95
886.5802	1456.3056	31450.2	30509.8
886.7237	1458.13	31279.05	30342.75
886.8671	1459.9536	31080	30147.15
887.0105	1461.7766	30626.5	29693.5
887.1539	1463.5987	30103.2	29165.45
887.2972	1465.4202	29677	28738.95
887.4406	1467.2409	29212.25	28275.85
887.584	1469.0608	28946.1	28013.65
887.7273	1470.88	28610.45	27674.25
887.8706	1472.6984	28343	27410
888.0139	1474.5161	28049.95	27114.45
888.1572	1476.3331	27859.85	26925.55
888.3005	1478.1493	27670.15	26735.75
888.4438	1479.9648	27540.05	26606.9
888.5871	1481.7795	27395.3	26459.25
888.7303	1483.5935	27319.85	26388.8
888.8736	1485.4067	27176.35	26243.35
889.0168	1487.2192	27108.6	26174.3
889.16	1489.031	27019	26085.1
889.3032	1490.842	26931.05	25997.65
889.4464	1492.6522	26834.7	25902.65
889.5896	1494.4618	26760.25	25825.4
889.7327	1496.2705	26658.5	25727
889.8759	1498.0785	26550.9	25616.2
890.019	1499.8858	26490.8	25561
890.1622	1501.6924	26413	25482.6
890.3053	1503.4981	26335.35	25402.75
890.4484	1505.3032	26270.5	25336.95
890.5914	1507.1075	26196.1	25264.15
890.7345	1508.911	26145.5	25213.45
890.8776	1510.7138	26050.45	25116.15
891.0206	1512.5159	25888.55	24954.45
891.1637	1514.3172	25799.95	24866.6
891.3067	1516.1178	25697.05	24765.85
891.4497	1517.9176	25643	24708.45
891.5927	1519.7166	25502.65	24572.5
891.7357	1521.515	25426.7	24492
891.8786	1523.3126	25355.95	24424.55
892.0216	1525.1094	25312.3	24376.85
892.1645	1526.9055	25215.05	24285.3
892.3074	1528.7008	25050.7	24120.9
892.4503	1530.4954	24914.1	23980.95
892.5932	1532.2893	24880.95	23954.55
892.7361	1534.0824	24732.7	23801.7
892.879	1535.8747	24718.85	23795.65
893.0218	1537.6663	24628.45	23703.35
893.1647	1539.4572	24558.75	23630.65
893.3075	1541.2473	24492.55	23562.75
893.4503	1543.0367	24372.15	23444
893.5931	1544.8253	24302.15	23370.4
893.7359	1546.6132	24264.7	23335.75
893.8787	1548.4003	24114.8	23178.35
894.0214	1550.1867	24090.35	23156.4
894.1642	1551.9723	24040.15	23111.45
894.3069	1553.7572	24005.95	23079.75
894.4496	1555.5414	23985.55	23061.25
894.5923	1557.3247	23920.4	22997.65
894.735	1559.1074	23875.05	22956.8
894.8777	1560.8893	23863.8	22944.7
895.0204	1562.6705	23881.2	22958.05
895.163	1564.4509	23820.7	22900.55
895.3056	1566.2305	23812.5	22895.25
895.4482	1568.0094	23944.4	23024
895.5908	1569.7876	24003.95	23083.95
895.7334	1571.565	24011.45	23093.6
895.876	1573.3417	24041	23121.35
896.0186	1575.1176	23962.15	23042.45
896.1611	1576.8928	23870.25	22956.3
896.3036	1578.6672	23756.25	22844.3
896.4461	1580.4409	23579	22670.95
896.5886	1582.2138	23335.85	22422.5
896.7311	1583.986	23174.8	22257.5
896.8736	1585.7575	23067.65	22149.9
897.0161	1587.5282	22904.05	21993.6
897.1585	1589.2981	22780.3	21867.75
897.3009	1591.0673	22630.35	21719.45
897.4433	1592.8358	22613.15	21700.15
897.5857	1594.6035	22500.45	21582.65
897.7281	1596.3704	22425.75	21510.8
897.8705	1598.1366	22391	21477.6
898.0128	1599.9021	22344.35	21431.65
898.1551	1601.6668	22300.2	21383.85
898.2975	1603.4308	22265.4	21347.7
898.4398	1605.194	22271.3	21350.55
898.5821	1606.9564	22332.65	21423
898.7243	1608.7182	22340.55	21434.05
898.8666	1610.4791	22398.6	21497.95
899.0088	1612.2394	22465.75	21565.35
899.1511	1613.9988	22566.2	21663.75
899.2933	1615.7576	22762.2	21854.1
899.4355	1617.5156	22953.25	22032.65
899.5776	1619.2728	23183.4	22265.8
899.7198	1621.0293	23306.4	22391.8
899.862	1622.785	23357.95	22448.1
900.0041	1624.54	23223.4	22312.75
900.1462	1626.2942	23054.95	22147.45
900.2883	1628.0477	22704.05	21792.6
900.4304	1629.8005	22416.65	21507.15
900.5725	1631.5525	22117.35	21209.4
900.7145	1633.3037	21852.5	20942.2
900.8566	1635.0542	21662.95	20755.85
900.9986	1636.804	21441.3	20532.85
901.1406	1638.553	21329.95	20378.7
901.2826	1640.3013	21161.8	20253.05
901.4245	1642.0488	21058.25	20149.4
901.5665	1643.7955	21020.8	20117.15
901.7085	1645.5416	20976.05	20070.05
901.8504	1647.2868	20979.05	20070.45
901.9923	1649.0313	20962.5	20052.25
902.1342	1650.7751	21102	20190.4
902.2761	1652.5181	21173.7	20268.05
902.4179	1654.2604	21324.9	20421.55
902.5598	1656.0019	21586.95	20682.1
902.7016	1657.7427	21911.6	21008.05
902.8434	1659.4828	22282.35	21375
902.9852	1661.222	22504.3	21595.2
903.127	1662.9606	22518.2	21610.1
903.2687	1664.6984	22330.25	21419.5
903.4105	1666.4354	21966.55	21051.45
903.5522	1668.1717	21496.75	20584.55
903.6939	1669.9072	20967.65	20055
903.8356	1671.642	20532.25	19620.1
903.9773	1673.3761	20232.2	19323.35
904.119	1675.1094	19939.6	19031.95
904.2606	1676.8419	19718.9	18808.5
904.4022	1678.5737	19509.5	18598.8
904.5439	1680.3048	19381.75	18472.05
904.6855	1682.0351	19208.75	18300.05
904.827	1683.7646	19067.55	18155.2
904.9686	1685.4934	18980.6	18072.6
905.1101	1687.2215	18885.25	17978
905.2517	1688.9488	18786.5	17880.55
905.3932	1690.6754	18690.6	17782.6
905.5347	1692.4012	18662.15	17753.4
905.6761	1694.1263	18546.2	17637.1
905.8176	1695.8506	18470.1	17562.4
905.9591	1697.5742	18432.4	17527.65
906.1005	1699.297	18337.6	17435.4
906.2419	1701.0191	18227.3	17324.55
906.3833	1702.7404	18160.2	17258.3
906.5246	1704.461	18037.9	17132.9
906.666	1706.1808	17965.45	17060.75
906.8073	1707.8999	17940.95	17036.65
906.9487	1709.6182	17841.65	16940.75
907.09	1711.3358	17788.15	16888.9
907.2313	1713.0527	17728.05	16831.3
907.3725	1714.7688	17659.8	16756
907.5138	1716.4841	17584.05	16679.3
907.655	1718.1987	17539.15	16631.15
907.7962	1719.9126	17501.45	16599.75
907.9374	1721.6257	17409.3	16509.9
908.0786	1723.338	17411.75	16513.85
908.2198	1725.0496	17271.15	16369.5
908.3609	1726.7605	17247.5	16345.5
908.502	1728.4706	17166.65	16264.4
908.6431	1730.18	17095.6	16194.9
908.7842	1731.8886	17059.3	16160.1
908.9253	1733.5964	17012.85	16095.35
909.0664	1735.3036	16958.55	16057.1
909.2074	1737.0099	16899.35	16001.7
909.3484	1738.7156	16829.55	15933.25
909.4894	1740.4204	16780.85	15879.7
909.6304	1742.1246	16730.25	15827.55
909.7714	1743.8279	16720.05	15821.4
909.9123	1745.5306	16683.3	15784.5
910.0532	1747.2325	16641.25	15742.55
910.1941	1748.9336	16591.45	15690.7
910.335	1750.634	16474	15572.3
910.4759	1752.3336	16459.85	15561.45
910.6168	1754.0325	16433.25	15537.4
910.7576	1755.7307	16392.8	15497.45
910.8984	1757.4281	16401.6	15501.15
911.0392	1759.1247	16369.85	15461.4
911.18	1760.8206	16308.15	15402.15
911.3208	1762.5158	16263.65	15357.6
911.4615	1764.2102	16171.75	15272.85
911.6022	1765.9039	16101.7	15203.05
911.7429	1767.5968	16087.25	15190.2
911.8836	1769.289	16036.5	15141.15
912.0243	1770.9804	15989.3	15091.1
912.1649	1772.6711	15975.7	15074.65
912.3056	1774.361	15920.3	15018.2
912.4462	1776.0502	15888.75	14988.05
912.5868	1777.7386	15871.85	14970.6
912.7274	1779.4263	15810.95	14913
912.8679	1781.1132	15727.25	14831.05
913.0084	1782.7994	15702.1	14804.55
913.149	1784.4849	15655.6	14760.95
913.2895	1786.1696	15638.2	14722.6
913.4299	1787.8535	15562.2	14669.95
913.5704	1789.5367	15544.15	14650.45
913.7108	1791.2192	15531.5	14635.75
913.8513	1792.9009	15519.95	14595
913.9917	1794.5818	15418.35	14518.75
914.132	1796.2621	15389.3	14493.65
914.2724	1797.9415	15347.45	14448.5
914.4128	1799.6202	15296.45	14399.3
914.5531	1801.2982	15259.3	14361.4
914.6934	1802.9755	15225.65	14327.2
914.8337	1804.6519	15189.35	14291.7
914.9739	1806.3277	15121.5	14224
915.1142	1808.0027	15073.8	14180.5
915.2544	1809.6769	15060.3	14167.05
915.3946	1811.3504	15008.1	14114
915.5348	1813.0231	14961.5	14069
915.675	1814.6951	14942.05	14050.75
915.8151	1816.3664	14955	14057.2
915.9553	1818.0369	14918.45	14020.9
916.0954	1819.7067	14824.8	13926.9
916.2355	1821.3757	14796.65	13896.85
916.3755	1823.044	14787.55	13889.3
916.5156	1824.7115	14738.35	13839.95
916.6556	1826.3783	14695.25	13797.85
916.7956	1828.0443	14613.1	13718.1
916.9356	1829.7096	14592.6	13694.05
917.0756	1831.3741	14591.25	13691.8
917.2155	1833.0379	14555.4	13661.65
917.3555	1834.701	14486.75	13591.45
917.4954	1836.3633	14507.35	13615.9
917.6353	1838.0248	14460.55	13563.9
917.7751	1839.6856	14390.15	13495.75
917.915	1841.3457	14399.95	13503.6
918.0548	1843.005	14380.55	13484.1
918.1946	1844.6636	14312.65	13417.7
918.3344	1846.3214	14278.2	13383
918.4742	1847.9785	14250.55	13354.7
918.6139	1849.6349	14215.6	13318.35
918.7537	1851.2904	14185.9	13279.7
918.8934	1852.9453	14129.65	13228.1
919.0331	1854.5994	14091	13190.7
919.1727	1856.2528	14150.8	13249.4
919.3124	1857.9054	14065.95	13167.25
919.452	1859.5572	14051.5	13155.25
919.5916	1861.2083	14021.3	13124.85
919.7312	1862.8587	13998.8	13102.85
919.8708	1864.5084	13951.3	13051.55
920.0103	1866.1572	13901.95	13001.9
920.1498	1867.8054	13877.75	12977.7
920.2893	1869.4528	13843.55	12941.35
920.4288	1871.0994	13767.6	12869.25
920.5683	1872.7453	13752.5	12854.3
920.7077	1874.3905	13731.65	12831.5
920.8471	1876.0349	13686.65	12791
920.9865	1877.6786	13675.25	12779.5
921.1259	1879.3215	13661.75	12765
921.2653	1880.9637	13602.75	12704.45
921.4046	1882.6051	13592.45	12695.05
921.5439	1884.2458	13520.35	12622.65
921.6832	1885.8858	13513.1	12617.85
921.8225	1887.525	13483.9	12589.75
921.9617	1889.1634	13362.2	12465.55
922.101	1890.8011	13364.1	12464.8
922.2402	1892.4381	13325.2	12427.35
922.3794	1894.0743	13335.5	12440.3
922.5185	1895.7098	13284.4	12391.55
922.6577	1897.3446	13267.3	12372.25
922.7968	1898.9786	13229.95	12329.8
922.9359	1900.6118	13183.05	12289.2
923.075	1902.2443	13119.05	12224.35
923.214	1903.8761	13097.35	12202.6
923.3531	1905.5071	13016.45	12119.75
923.4921	1907.1374	12980.25	12083.15
923.6311	1908.7669	12973.95	12079
923.77	1910.3957	12941.95	12047.75
923.909	1912.0237	12869.55	11975.05
924.0479	1913.651	12857.65	11962.25
924.1868	1915.2776	12799.5	11906.9
924.3257	1916.9034	12748.9	11854.55
924.4646	1918.5285	12706.9	11813.35
924.6034	1920.1528	12661.65	11764.1
924.7422	1921.7764	12653.9	11758.4
924.881	1923.3992	12605	11711.35
925.0198	1925.0213	12527.85	11633.9
925.1586	1926.6427	12492.55	11598.35
925.2973	1928.2633	12492.15	11525.75
925.436	1929.8832	12420.9	11524.4
925.5747	1931.5023	12355.35	11460.3
925.7134	1933.1207	12323.8	11430.35
925.852	1934.7383	12321.45	11427.85
925.9906	1936.3552	12271.7	11378.4
926.1292	1937.9714	12223.7	11329.05
926.2678	1939.5868	12193.35	11294.2
926.4064	1941.2015	12125.55	11229.15
926.5449	1942.8154	12068.05	11171.35
926.6834	1944.4286	11999.3	11104.15
926.8219	1946.041	11961.15	11046.25
926.9604	1947.6528	11927.2	11025.65
927.0988	1949.2637	11894.15	10999.95
927.2372	1950.8739	11857.05	10962.8
927.3756	1952.4834	11804.7	10912.55
927.514	1954.0921	11798.6	10906.05
927.6523	1955.7001	11733.9	10837.25
927.7907	1957.3074	11684.7	10795.2
927.929	1958.9139	11654.6	10763.2
928.0673	1960.5197	11638.4	10745.4
928.2055	1962.1247	11572.85	10680.05
928.3438	1963.729	11553.1	10664.7
928.482	1965.3325	11512.15	10598.1
928.6202	1966.9353	11440.35	10551.8
928.7584	1968.5374	11394.55	10503.65
928.8965	1970.1387	11383.85	10492.5
929.0346	1971.7393	11346.85	10454.3
929.1727	1973.3392	11297.5	10406.2
929.3108	1974.9383	11245.7	10356
929.4489	1976.5366	11182.9	10294.75
929.5869	1978.1342	11176.85	10286.45
929.7249	1979.7311	11180.35	10289
929.8629	1981.3273	11154.1	10264.7
930.0009	1982.9227	11107.3	10217.25
930.1388	1984.5173	11062.7	10174.6
930.2767	1986.1112	11013.6	10128.7
930.4146	1987.7044	11006.85	10117.55
930.5525	1989.2968	10959	10067.8
930.6904	1990.8885	10948.4	10056.45
930.8282	1992.4795	10885.8	9995.3
930.966	1994.0697	10838	9951.55
931.1038	1995.6592	10786.45	9898.4
931.2415	1997.2479	10762.35	9874.8
931.3793	1998.8359	10761.7	9874.6
931.517	2000.4232	10700.65	9816.05
931.6547	2002.0097	10670.1	9786.45
931.7923	2003.5955	10635	9748.15
931.93	2005.1805	10618.2	9729.1
932.0676	2006.7648	10589.2	9705.35
932.2052	2008.3484	10561.9	9675.05
932.3427	2009.9312	10546.7	9660.7
932.4803	2011.5133	10515.45	9632.45
932.6178	2013.0946	10508.9	9625.4
932.7553	2014.6752	10467.3	9584.85
932.8928	2016.2551	10437.25	9552.2
933.0302	2017.8342	10402.45	9516.1
933.1676	2019.4126	10341.05	9456.2
933.305	2020.9902	10323.55	9440.8
933.4424	2022.5672	10286	9401
933.5798	2024.1433	10250.85	9361.8
933.7171	2025.7188	10221.25	9340.15
933.8544	2027.2935	10200.8	9315.75
933.9917	2028.8674	10168.45	9283.25
934.129	2030.4406	10130.4	9248.3
934.2662	2032.0131	10068.25	9185.5
934.4034	2033.5849	10054.9	9167.95
934.5406	2035.1559	10056.45	9175.5
934.6778	2036.7261	10023.35	9138.6
934.8149	2038.2957	9989.55	9102.65
934.952	2039.8645	9986.15	9098.85
935.0891	2041.4325	9959.05	9067.8
935.2262	2042.9998	9904.65	9017.25
935.3632	2044.5664	9892.65	9005.75
935.5002	2046.1323	9862.1	8976.25
935.6372	2047.6974	9829.9	8944.75
935.7742	2049.2617	9778.25	8895.4
935.9111	2050.8254	9775.6	8887.05
936.048	2052.3883	9764.2	8879
936.1849	2053.9504	9730.9	8844.9
936.3218	2055.5118	9709.8	8821.6
936.4586	2057.0725	9665.15	8774.15
936.5955	2058.6325	9630	8745.95
936.7323	2060.1917	9592.75	8707.85
936.869	2061.7502	9604.55	8717.65
937.0058	2063.3079	9554.35	8670.75
937.1425	2064.8649	9527.9	8641.95
937.2792	2066.4212	9495.25	8609.85
937.4159	2067.9767	9471.3	8586.75
937.5525	2069.5315	9441.8	8557
937.6891	2071.0856	9398.75	8513.85
937.8257	2072.6389	9338.75	8452.5
937.9623	2074.1915	9292.8	8412.75
938.0989	2075.7433	9265.6	8379.7
938.2354	2077.2945	9266.95	8381.2
938.3719	2078.8448	9242.4	8355.15
938.5084	2080.3945	9190.55	8303.25
938.6448	2081.9434	9220.95	8333.65
938.7812	2083.4916	9135.45	8246.9
938.9176	2085.039	9134	8243.05
939.054	2086.5857	9086.8	8191.4
939.1903	2088.1317	9076.55	8185.1
939.3267	2089.677	9082.7	8191.35
939.463	2091.2215	9020.6	8128.95
939.5992	2092.7652	9006.2	8112.3
939.7355	2094.3083	8988.9	8095.5
939.8717	2095.8506	8970.9	8082.55
940.0079	2097.3921	8962.85	8076.1
940.1441	2098.933	8945.1	8056
940.2802	2100.4731	8902.55	8014.2
940.4163	2102.0124	8897.05	8001.2
940.5524	2103.5511	8855.05	7964.4
940.6885	2105.089	8835.5	7945.6
940.8245	2106.6261	8821.5	7932.85
940.9606	2108.1626	8808.65	7921.4
941.0965	2109.6983	8818.6	7902.3
941.2325	2111.2332	8775.4	7885.9
941.3684	2112.7675	8746.1	7854.1
941.5044	2114.301	8710.25	7817.8
941.6403	2115.8337	8712.55	7821.05
941.7761	2117.3657	8675.95	7786.1
941.912	2118.897	8670.35	7782.5
942.0478	2120.4276	8619.35	7723.35
942.1835	2121.9575	8579.55	7688.2
942.3193	2123.4866	8590.7	7697.55
942.455	2125.0149	8584.85	7691.25
942.5907	2126.5426	8499.85	7612.45
942.7264	2128.0695	8490.25	7601.5
942.8621	2129.5956	8474.7	7589.1
942.9977	2131.1211	8440.95	7551.3
943.1333	2132.6458	8434	7547.6
943.2689	2134.1698	8424.4	7533.5
943.4044	2135.693	8384.45	7488.3
943.54	2137.2155	8371.95	7477.15
943.6755	2138.7373	8355.45	7467.2
943.8109	2140.2584	8328.1	7444.15
943.9464	2141.7787	8301.55	7412
944.0818	2143.2983	8246.35	7363.4
944.2172	2144.8171	8227.95	7344.95
944.3526	2146.3353	8202.95	7317.4
944.4879	2147.8527	8181.05	7295.85
944.6232	2149.3693	8175.8	7286.7
944.7585	2150.8853	8152.05	7263.4
944.8938	2152.4005	8116.8	7225.3
945.029	2153.9149	8115.3	7224.5
945.1642	2155.4287	8165.35	7166.4
945.2994	2156.9417	8083	7192.1
945.4346	2158.454	8003.6	7113.2
945.5697	2159.9655	7984.85	7099
945.7048	2161.4764	7982.3	7096.85
945.8399	2162.9865	7960.95	7073.3
945.9749	2164.4958	7939.4	7052.2
946.1099	2166.0045	7914.9	7024.8
946.2449	2167.5124	7903.1	7015.2
946.3799	2169.0195	7892.9	7004.55
946.5148	2170.526	7887	6996.2
946.6498	2172.0317	7847.9	6957.1
946.7846	2173.5367	7852	6963.05
946.9195	2175.0409	7821.4	6932.85
947.0543	2176.5445	7771.85	6882.5
947.1891	2178.0473	7754.9	6863.1
947.3239	2179.5494	7727.6	6833.4
947.4587	2181.0507	7696.75	6806.35
947.5934	2182.5513	7661.95	6771.8
947.7281	2184.0512	7646.2	6756.5
947.8628	2185.5504	7649.25	6760.75
947.9974	2187.0488	7602.1	6713.65
948.132	2188.5465	7587.4	6702
948.2666	2190.0435	7566.25	6677.95
948.4012	2191.5397	7543.55	6653.45
948.5357	2193.0353	7525.65	6635.55
948.6702	2194.5301	7488.2	6597.6
948.8047	2196.0241	7447.95	6554.9
948.9392	2197.5175	7440.25	6546.3
949.0736	2199.0101	7407.2	6509.7
949.208	2200.502	7361.8	6471.45
949.3424	2201.9931	7350.2	6464.6
949.4767	2203.4835	7319.15	6431.7
949.611	2204.9733	7305.15	6402.85
949.7453	2206.4622	7292.6	6405.9
949.8796	2207.9505	7249.1	6361.85
950.0138	2209.438	7229.3	6344.85
950.148	2210.9248	7215.25	6327.25
950.2822	2212.4109	7189.3	6300.6
950.4164	2213.8962	7177.45	6283.75
950.5505	2215.3809	7167.6	6273.9
950.6846	2216.8648	7145.5	6253.25
950.8186	2218.3479	7109.6	6210
950.9527	2219.8304	7088.35	6192.1
951.0867	2221.3121	7052.4	6157.55
951.2207	2222.7931	7049.4	6154.55
951.3546	2224.2733	7018.1	6127.6
951.4886	2225.7529	6980.45	6089.8
951.6225	2227.2317	6968.3	6077.65
951.7563	2228.7098	6988.65	6100.9
951.8902	2230.1872	6924.35	6036.5
952.024	2231.6638	6916.05	6028.3
952.1578	2233.1397	6880.35	5990.6
952.2916	2234.6149	6881.9	5994
952.4253	2236.0894	6846.7	5961.05
952.559	2237.5632	6850.15	5959.05
952.6927	2239.0362	6811.4	5923.6
952.8263	2240.5085	6787.5	5898.35
952.9599	2241.9801	6759.05	5869.3
953.0935	2243.4509	6731.4	5842.25
953.2271	2244.921	6722.8	5829.8
953.3606	2246.3904	6705.3	5810.95
953.4941	2247.8591	6667.1	5776.5
953.6276	2249.3271	6673.85	5782.75
953.7611	2250.7943	6611.35	5721.7
953.8945	2252.2608	6609.2	5717.4
954.0279	2253.7266	6615.2	5725.35
954.1612	2255.1917	6576.55	5687.75
954.2946	2256.656	6555.55	5665.45
954.4279	2258.1197	6528.4	5642.25
954.5612	2259.5826	6514.2	5623.65
954.6944	2261.0447	6519.25	5628.25
954.8276	2262.5062	6472.2	5579.2
954.9608	2263.9669	6463.05	5571.8
955.094	2265.4269	6481.55	5591.4
955.2271	2266.8862	6433.95	5545
955.3602	2268.3448	6423.7	5534.65
955.4933	2269.8026	6406.05	5520.1
955.6264	2271.2598	6383.4	5496.15
955.7594	2272.7162	6375.25	5485.9
955.8924	2274.1719	6354.15	5463.85
956.0253	2275.6268	6327	5433.8
956.1583	2277.0811	6319.7	5426.8
956.2912	2278.5346	6302.3	5412.4
956.4241	2279.9874	6290.65	5403.3
956.5569	2281.4395	6290.2	5403.7
956.6897	2282.8908	6254.35	5360.55
956.8225	2284.3414	6256.85	5364.85
956.9553	2285.7914	6223.75	5333.9
957.088	2287.2406	6214.4	5321.65
957.2207	2288.689	6220.45	5328.4
957.3534	2290.1368	6205.95	5312.1
957.486	2291.5838	6162.9	5267.45
957.6186	2293.0302	6144.6	5249.55
957.7512	2294.4758	6133.6	5240.2
957.8838	2295.9206	6088.1	5193.6
958.0163	2297.3648	6055	5166.15
958.1488	2298.8082	6060.3	5170.45
958.2813	2300.251	6061.35	5168.05
958.4137	2301.693	6060.05	5164.65
958.5461	2303.1343	6039.9	5147.15
958.6785	2304.5748	5995.2	5107.75
958.8108	2306.0147	5975.95	5087.2
958.9432	2307.4538	5954.75	5064.75
959.0754	2308.8922	5941.4	5054.45
959.2077	2310.3299	5943.05	5056.9
959.3399	2311.7669	5919.85	5031.75
959.4721	2313.2031	5895.45	5004.75
959.6043	2314.6387	5866.25	4973.9
959.7365	2316.0735	5838.8	4947.8
959.8686	2317.5076	5840.9	4949.95
960.0006	2318.941	5819.65	4926
960.1327	2320.3737	5810.05	4917.1
960.2647	2321.8056	5805.5	4910.35
960.3967	2323.2369	5788.3	4895.8
960.5287	2324.6674	5762.4	4868.6
960.6606	2326.0972	5733.85	4841.4
960.7925	2327.5263	5739.6	4850.6
960.9244	2328.9547	5702.85	4810.35
961.0562	2330.3823	5693.65	4799.1
961.1881	2331.8092	5709.25	4811.75
961.3198	2333.2355	5671.1	4775.1
961.4516	2334.661	5644.7	4751.45
961.5833	2336.0858	5650.8	4755.85
961.715	2337.5098	5638.9	4747.75
961.8467	2338.9332	5630.85	4739.4
961.9783	2340.3558	5584.65	4692.9
962.1099	2341.7778	5557.2	4666.1
962.2415	2343.199	5560.65	4668.6
962.373	2344.6195	5539.05	4647.95
962.5045	2346.0393	5535.1	4644.55
962.636	2347.4583	5528.85	4637.55
962.7675	2348.8767	5483.95	4591.95
962.8989	2350.2943	5500.6	4607.45
963.0303	2351.7113	5489.85	4595.6
963.1617	2353.1275	5473.2	4579.85
963.293	2354.543	5460.35	4560.15
963.4243	2355.9578	5417.6	4524.35
963.5556	2357.3718	5404.45	4516.45
963.6868	2358.7852	5379.05	4489.55
963.818	2360.1978	5364.45	4475.95
963.9492	2361.6098	5357.1	4469.7
964.0803	2363.021	5344.2	4449.9
964.2114	2364.4315	5322.65	4431.55
964.3425	2365.8413	5318.8	4428.8
964.4736	2367.2504	5286.95	4399.4
964.6046	2368.6587	5268.1	4378.15
964.7356	2370.0664	5236.4	4346.2
964.8666	2371.4733	5229.9	4340.05
964.9975	2372.8795	5204.7	4315.65
965.1284	2374.285	5199.05	4308.3
965.2593	2375.6899	5167.45	4277.9
965.3901	2377.0939	5146.6	4257.9
965.5209	2378.4973	5135.2	4246.95
965.6517	2379.9	5109	4220.25
965.7825	2381.3019	5112.5	4223.05
965.9132	2382.7032	5087.35	4199.2
966.0439	2384.1037	5077	4192.5
966.1745	2385.5035	5056.85	4171.5
966.3051	2386.9027	5051.15	4164.9
966.4357	2388.3011	5036.6	4144.2
966.5663	2389.6987	5033.8	4145.8
966.6968	2391.0957	5003.4	4117.1
966.8273	2392.492	4979.05	4092.95
966.9578	2393.8876	4957.35	4069.7
967.0882	2395.2824	4943.9	4057.2
967.2186	2396.6765	4915.1	4026.6
967.349	2398.07	4904.65	4017.1
967.4793	2399.4627	4909.15	4019.05
967.6097	2400.8547	4885.8	3996.7
967.7399	2402.246	4878.9	3981.65
967.8702	2403.6366	4846.1	3955.8
968.0004	2405.0265	4807.95	3920.2
968.1306	2406.4156	4818.3	3926.15
968.2607	2407.8041	4815.8	3922.65
968.3909	2409.1918	4783.05	3894.6
968.521	2410.5789	4760.8	3871.05
968.651	2411.9652	4749.35	3856.5
968.781	2413.3508	4735.65	3847.2
968.911	2414.7358	4723.7	3835.5
969.041	2416.12	4702.25	3815.25
969.1709	2417.5035	4702.6	3814.95
969.3008	2418.8863	4673.8	3783.65
969.4307	2420.2684	4680.7	3791.65
969.5606	2421.6497	4627	3738.05
969.6904	2423.0304	4605.05	3715.35
969.8201	2424.4104	4605.8	3716.8
969.9499	2425.7896	4597.75	3706.8
970.0796	2427.1682	4582	3694.1
970.2093	2428.546	4583.5	3693.4
970.3389	2429.9232	4557.65	3666.05
970.4685	2431.2996	4548.35	3659.65
970.5981	2432.6753	4557.55	3668.45
970.7277	2434.0503	4544.75	3654.65
970.8572	2435.4246	4513.5	3622.2
970.9867	2436.7982	4497.3	3605.6
971.1161	2438.1711	4507.45	3617.8
971.2456	2439.5433	4493.35	3602.4
971.375	2440.9148	4454.75	3560.5
971.5043	2442.2856	4424.5	3536.65
971.6336	2443.6557	4456.55	3563.65
971.7629	2445.025	4421.1	3531.45
971.8922	2446.3937	4411.7	3520.6
972.0214	2447.7617	4396.3	3504.75
972.1506	2449.1289	4383.9	3494.4
972.2798	2450.4955	4383.45	3488.95
972.4089	2451.8613	4373.85	3487.65
972.538	2453.2265	4345.85	3455.65
972.6671	2454.5909	4360.35	3469.25
972.7961	2455.9546	4360.35	3472.4
972.9251	2457.3177	4340.55	3451.3
973.0541	2458.68	4324.55	3431.5
973.1831	2460.0416	4318.65	3430.05
973.312	2461.4025	4296.2	3405.15
973.4408	2462.7627	4295.1	3397.05
973.5697	2464.1222	4269.7	3382.05
973.6985	2465.4811	4250.55	3362.45
973.8273	2466.8392	4250	3360.2
973.956	2468.1966	4249	3356.35
974.0847	2469.5533	4245.6	3355.15
974.2134	2470.9093	4242.2	3353.1
974.3421	2472.2645	4216.55	3326.5
974.4707	2473.6191	4207.35	3319.85
974.5993	2474.973	4184.7	3296.75
974.7278	2476.3262	4186.65	3297.2
974.8563	2477.6787	4186.6	3299.65
974.9848	2479.0305	4144.6	3255.95
975.1132	2480.3816	4147.7	3257.8
975.2417	2481.7319	4132.75	3242.7
975.37	2483.0816	4098.15	3208.05
975.4984	2484.4306	4106.75	3217.55
975.6267	2485.7789	4100.2	3214.6
975.755	2487.1264	4067	3177.9
975.8833	2488.4733	4057.65	3171.15
976.0115	2489.8195	4056.95	3152.1
976.1397	2491.165	4041.6	3150.3
976.2678	2492.5097	4023.6	3131.5
976.3959	2493.8538	4008.65	3119.7
976.524	2495.1972	3994.85	3108
976.6521	2496.5398	3974.75	3082.15
976.7801	2497.8818	3967.5	3075.2
976.9081	2499.2231	3959.95	3070.55
977.036	2500.5637	3940.1	3047.4
977.164	2501.9035	3944	3051.9
977.2918	2503.2427	3938.45	3047.3
977.4197	2504.5812	3917.9	3026.65
977.5475	2505.919	3909.9	3017
977.6753	2507.256	3913.9	3026.35
977.8031	2508.5924	3886.6	3000.3
977.9308	2509.9281	3891.35	2996.3
978.0585	2511.2631	3865.25	2974.55
978.1861	2512.5974	3850.95	2961.35
978.3137	2513.9309	3834.9	2947.1
978.4413	2515.2638	3858.45	2943.45
978.5689	2516.596	3838	2946.95
978.6964	2517.9275	3799.6	2910.5
978.8239	2519.2583	3803.25	2913.4
978.9513	2520.5884	3781.75	2891.25
979.0788	2521.9178	3772.7	2881.85
979.2062	2523.2465	3763.5	2875.6
979.3335	2524.5745	3738.2	2850.2
979.4608	2525.9018	3733.1	2844.55
979.5881	2527.2284	3727.7	2838.85
979.7154	2528.5543	3723.25	2836
979.8426	2529.8796	3692.35	2802.7
979.9698	2531.2041	3700.95	2809.2
980.0969	2532.5279	3704.5	2817.2
980.224	2533.851	3693.6	2802.35
980.3511	2535.1735	3677.7	2790.55
980.4781	2536.4952	3671.35	2780.25
980.6052	2537.8163	3664.25	2770.4
980.7321	2539.1366	3654.05	2765
980.8591	2540.4562	3650.45	2757.4
980.986	2541.7752	3644.7	2754.35
981.1129	2543.0935	3636.55	2747.95
981.2397	2544.411	3617.95	2726.4
981.3665	2545.7279	3616.85	2727.05
981.4933	2547.0441	3612.35	2720.95
981.62	2548.3596	3626.5	2732.6
981.7467	2549.6744	3609.2	2719.25
981.8734	2550.9885	3599.85	2700.7
982.0001	2552.3019	3585.3	2693.9
982.1267	2553.6146	3584.1	2694.4
982.2532	2554.9266	3570.15	2678.5
982.3798	2556.2379	3569.55	2677.1
982.5063	2557.5485	3558.55	2669.4
982.6327	2558.8585	3545.75	2648.1
982.7592	2560.1677	3539.4	2646.1
982.8856	2561.4762	3534.5	2643.25
983.0119	2562.7841	3524.7	2629.75
983.1383	2564.0913	3519.45	2632.05
983.2646	2565.3977	3506.7	2616.95
983.3908	2566.7035	3500.2	2609.05
983.517	2568.0086	3493.55	2600.85
983.6432	2569.313	3490.75	2598.6
983.7694	2570.6167	3487.8	2593.05
983.8955	2571.9197	3464.85	2573.7
984.0216	2573.222	3464.95	2571.35
984.1476	2574.5236	3459.4	2567.2
984.2737	2575.8246	3449.55	2556.15
984.3996	2577.1248	3451.7	2559.3
984.5256	2578.4244	3444.15	2554.8
984.6515	2579.7232	3440.5	2548.8
984.7774	2581.0214	3467.7	2548.95
984.9032	2582.3189	3433.7	2542.9
985.029	2583.6157	3434.2	2539.8
985.1548	2584.9118	3442	2550.3
985.2806	2586.2072	3420.5	2528.8
985.4063	2587.5019	3399	2508.1
985.5319	2588.7959	3400.35	2509.2
985.6576	2590.0893	3397.4	2504.7
985.7832	2591.3819	3384.9	2495
985.9087	2592.6739	3372.35	2482.8
986.0343	2593.9652	3379.1	2487.25
986.1597	2595.2557	3392.2	2499.35
986.2852	2596.5456	3371.55	2477.1
986.4106	2597.8348	3361.6	2471.1
986.536	2599.1234	3351	2461.4
986.6614	2600.4112	3332.9	2442.45
986.7867	2601.6983	3339.2	2447.2
986.912	2602.9848	3315.75	2425.35
987.0372	2604.2705	3320.1	2421
987.1624	2605.5556	3319.8	2430.85
987.2876	2606.84	3296.65	2407
987.4128	2608.1237	3291.1	2397.55
987.5379	2609.4067	3279.1	2388.2
987.6629	2610.689	3266.55	2367.1
987.788	2611.9707	3260.6	2366.95
987.913	2613.2516	3252.2	2358.3
988.0379	2614.5319	3229.6	2341.5
988.1629	2615.8115	3228.5	2337.75
988.2878	2617.0903	3226.05	2332.75
988.4126	2618.3685	3213.15	2322.4
988.5375	2619.6461	3191.05	2301.95
988.6622	2620.9229	3197.35	2306.6
988.787	2622.199	3193.1	2303.7
988.9117	2623.4745	3192.1	2302.2
989.0364	2624.7493	3182.75	2292.7
989.161	2626.0234	3159.15	2269.05
989.2857	2627.2968	3159.15	2269.8
989.4102	2628.5695	3153.55	2258.9
989.5348	2629.8415	3137.15	2248.45
989.6593	2631.1128	3127.15	2236.9
989.7837	2632.3835	3127.4	2238.4
989.9082	2633.6535	3110.45	2219.95
990.0326	2634.9228	3102.75	2214.1
990.1569	2636.1914	3102.5	2212.65
990.2812	2637.4593	3097.2	2199.6
990.4055	2638.7265	3092.45	2199.65
990.5298	2639.9931	3084.8	2196.1
990.654	2641.259	3071.05	2179.9
990.7782	2642.5242	3066	2175.75
990.9023	2643.7887	3055.5	2164.25
991.0264	2645.0525	3044.2	2154.75
991.1505	2646.3156	3046.2	2142.6
991.2745	2647.5781	3027.85	2138.35
991.3985	2648.8398	3019.55	2129.15
991.5225	2650.1009	3040.35	2124.9
991.6464	2651.3613	3014.5	2124.4
991.7703	2652.6211	3002.65	2113.15
991.8942	2653.8801	2993.65	2105
992.018	2655.1385	3004.65	2112.95
992.1418	2656.3961	2979.1	2088.4
992.2655	2657.6531	2977.1	2086.6
992.3892	2658.9094	2967.25	2076.65
992.5129	2660.1651	2981.7	2094.2
992.6366	2661.42	2961.85	2073.05
992.7602	2662.6743	2960.45	2068.85
992.8837	2663.9279	2948.05	2060.4
993.0073	2665.1808	2952.55	2065.6
993.1307	2666.433	2944.85	2053.7
993.2542	2667.6846	2962.7	2073.05
993.3776	2668.9354	2937.7	2044.1
993.501	2670.1856	2934.15	2044.25
993.6244	2671.4351	2938.55	2050.55
993.7477	2672.6839	2947.3	2055.95
993.8709	2673.9321	2936.05	2045.35
993.9942	2675.1795	2925.25	2035.15
994.1174	2676.4263	2909.5	2019.7
994.2405	2677.6724	2925.4	2036.95
994.3637	2678.9179	2910.7	2019.2
994.4868	2680.1626	2912.35	2023.8
994.6098	2681.4067	2895.4	2006.5
994.7328	2682.6501	2906.15	2016.1
994.8558	2683.8928	2890	2001.45
994.9788	2685.1348	2883.5	1994.85
995.1017	2686.3761	2874.75	1986.35
995.2245	2687.6168	2869.45	1980.75
995.3474	2688.8568	2858.5	1967.8
995.4702	2690.0961	2834.8	1947.8
995.5929	2691.3348	2836.55	1945.8
995.7156	2692.5727	2827.75	1937.95
995.8383	2693.81	2818.35	1930.15
995.961	2695.0466	2816.95	1930.25
996.0836	2696.2826	2804.2	1913.3
996.2062	2697.5178	2804.55	1913.3
996.3287	2698.7524	2795.1	1906.3
996.4512	2699.9863	2805.15	1913.5
996.5737	2701.2195	2782.95	1894.5
996.6961	2702.452	2792.45	1902.8
996.8185	2703.6839	2769.45	1877.8
996.9408	2704.9151	2781.55	1895.2
997.0631	2706.1456	2775.35	1884.1
997.1854	2707.3755	2782.5	1892.75
997.3077	2708.6046	2787.15	1895.05
997.4299	2709.8331	2770.65	1879.7
997.552	2711.0609	2787.2	1898.55
997.6742	2712.2881	2793.05	1903.7
997.7963	2713.5145	2810.25	1919.65
997.9183	2714.7403	2795.75	1906.5
998.0403	2715.9654	2781.75	1891.8
998.1623	2717.1899	2813.4	1909.85
998.2842	2718.4136	2811.75	1923.45
998.4062	2719.6367	2832.5	1945.5
998.528	2720.8591	2822.55	1927.85
998.6498	2722.0809	2818.1	1929.35
998.7716	2723.3019	2827.9	1933.25
998.8934	2724.5223	2835.25	1944.45
999.0151	2725.7421	2823.25	1933.9
999.1368	2726.9611	2825.35	1934.5
999.2584	2728.1795	2809.8	1917.2
999.38	2729.3972	2795.7	1906.75
999.5016	2730.6142	2795.25	1900.75
999.6231	2731.8306	2772	1883.5
999.7446	2733.0462	2755.75	1865.3
999.8661	2734.2612	2730.05	1836.35
999.9875	2735.4756	2708.8	1820
1000.1089	2736.6892	2681.25	1792.55
1000.2302	2737.9022	2654.35	1767.25
1000.3515	2739.1145	2646.1	1757.55
1000.4728	2740.3262	2635.25	1739.85
1000.594	2741.5372	2600.25	1713.6
1000.7152	2742.7475	2592.85	1701.6
1000.8363	2743.9571	2600.2	1712.15
1000.9575	2745.1661	2574	1680.9
1001.0785	2746.3744	2551.25	1662.05
1001.1996	2747.582	2537.05	1647.4
1001.3206	2748.7889	2534	1644.35
1001.4415	2749.9952	2515.1	1627.15
1001.5625	2751.2008	2510.55	1624.55
1001.6833	2752.4057	2513.4	1624.4
1001.8042	2753.61	2487.75	1598.45
1001.925	2754.8136	2491.1	1601.45
1002.0458	2756.0165	2474.2	1587.2
1002.1665	2757.2188	2465.2	1580.35
1002.2872	2758.4204	2479.55	1593.05
1002.4078	2759.6213	2469.75	1581.5
1002.5285	2760.8215	2467.65	1576.45
1002.649	2762.0211	2456.05	1566.65
1002.7696	2763.22	2448.7	1556.1
1002.8901	2764.4182	2442.9	1554.05
1003.0106	2765.6158	2433.5	1545.5
1003.131	2766.8127	2427.85	1539.75
1003.2514	2768.009	2420.9	1532.2
1003.3717	2769.2045	2418.3	1531.45
1003.492	2770.3994	2415.85	1527.05
1003.6123	2771.5936	2402.95	1516.2
1003.7325	2772.7872	2394.3	1507.65
1003.8527	2773.9801	2383.1	1495.05
1003.9729	2775.1723	2411.35	1506.35
1004.093	2776.3639	2367.15	1480.95
1004.2131	2777.5548	2374.55	1486
1004.3331	2778.745	2369	1479.5
1004.4531	2779.9346	2370.9	1484.75
1004.5731	2781.1235	2368.6	1481.15
1004.693	2782.3117	2365.85	1480.4
1004.8129	2783.4992	2372.8	1487.15
1004.9328	2784.6861	2372.25	1485
1005.0526	2785.8723	2378.7	1490.95
1005.1723	2787.0579	2373.8	1486.6
1005.2921	2788.2428	2371.45	1485.4
1005.4118	2789.427	2378.25	1490
1005.5314	2790.6106	2386.1	1500.05
1005.651	2791.7935	2392.45	1505.75
1005.7706	2792.9757	2397.25	1511.3
1005.8902	2794.1573	2408.4	1517.9
1006.0097	2795.3382	2432.85	1544.95
1006.1291	2796.5184	2421.5	1535.4
1006.2485	2797.698	2438.9	1551.3
1006.3679	2798.8769	2454.85	1567.35
1006.4873	2800.0551	2445.95	1558.85
1006.6066	2801.2327	2471	1582.55
1006.7258	2802.4096	2483.45	1596.75
1006.8451	2803.5859	2514.1	1626.05
1006.9642	2804.7615	2525.35	1639.45
1007.0834	2805.9364	2551.6	1663.4
1007.2025	2807.1106	2555.8	1669.15
1007.3216	2808.2842	2593.6	1705.4
1007.4406	2809.4572	2625.25	1736.25
1007.5596	2810.6294	2654.7	1765.35
1007.6785	2811.801	2701.25	1815.4
1007.7975	2812.972	2741.25	1855
1007.9163	2814.1423	2770	1883.45
1008.0352	2815.3119	2819.45	1932.2
1008.154	2816.4808	2868.1	1982.65
1008.2727	2817.6491	2925	2037.2
1008.3914	2818.8167	2953.85	2069.4
1008.5101	2819.9837	3011.2	2120
1008.6288	2821.15	3052.8	2168.05
1008.7474	2822.3157	3079.1	2195.45
1008.8659	2823.4807	3133	2248.55
1008.9844	2824.645	3181.8	2293.95
1009.1029	2825.8086	3218.25	2334.05
1009.2214	2826.9716	3259.75	2373.45
1009.3398	2828.134	3282.75	2397.8
1009.4581	2829.2957	3313.1	2428.1
1009.5764	2830.4567	3343.45	2459.2
1009.6947	2831.617	3348.45	2460.4
1009.813	2832.7767	3374.45	2487.65
1009.9312	2833.9358	3368.65	2485.3
1010.0493	2835.0941	3345.35	2459.45
1010.1675	2836.2519	3348.75	2465.45
1010.2855	2837.4089	3337.05	2449.25
1010.4036	2838.5653	3315.25	2429.5
1010.5216	2839.7211	3299.6	2415.45
1010.6396	2840.8761	3325.5	2438
1010.7575	2842.0306	3340.5	2453.25
1010.8754	2843.1843	3385.75	2501.3
1010.9932	2844.3374	3421.15	2537.3
1011.111	2845.4899	3490.5	2603.4
1011.2288	2846.6417	3566.15	2681.45
1011.3465	2847.7928	3628.45	2743.25
1011.4642	2848.9433	3707.2	2822.05
1011.5818	2850.0931	3789.35	2904
1011.6995	2851.2422	3872.2	2983.65
1011.817	2852.3907	3945	3057.85
1011.9345	2853.5385	4008.65	3121.8
1012.052	2854.6857	4071.15	3176.85
1012.1695	2855.8323	4093.6	3208.25
1012.2869	2856.9781	4143.55	3257.6
1012.4042	2858.1233	4197.15	3312.8
1012.5216	2859.2679	4245.5	3362.35
1012.6389	2860.4118	4301.85	3415.7
1012.7561	2861.555	4314.45	3423.55
1012.8733	2862.6976	4358.6	3470.2
1012.9905	2863.8395	4370.2	3485.1
1013.1076	2864.9808	4392.05	3506.9
1013.2247	2866.1214	4420.7	3536.85
1013.3417	2867.2614	4427.1	3542.35
1013.4587	2868.4007	4434.8	3547.3
1013.5757	2869.5393	4430.7	3542.35
1013.6926	2870.6773	4435.65	3546.25
1013.8095	2871.8146	4460.35	3571.9
1013.9263	2872.9513	4457.75	3568.9
1014.0431	2874.0874	4453.5	3568.5
1014.1599	2875.2227	4420.75	3534.85
1014.2766	2876.3574	4417.2	3530.7
1014.3933	2877.4915	4388.05	3503.9
1014.51	2878.6249	4363.6	3479.55
1014.6266	2879.7577	4347.15	3460.45
1014.7431	2880.8898	4315.75	3420.6
1014.8596	2882.0212	4290.6	3405.7
1014.9761	2883.152	4278.9	3394.3
1015.0925	2884.2821	4262.75	3378.25
1015.2089	2885.4116	4253.45	3367.9
1015.3253	2886.5405	4234.9	3350.7
1015.4416	2887.6686	4237.55	3351.25
1015.5579	2888.7962	4255.15	3371.5
1015.6741	2889.923	4259.35	3374.9
1015.7903	2891.0493	4274.35	3389.65
1015.9065	2892.1748	4267.5	3381.45
1016.0226	2893.2997	4271.6	3384.65
1016.1387	2894.424	4287.25	3404.6
1016.2547	2895.5476	4317.5	3434.1
1016.3707	2896.6706	4334.05	3448.4
1016.4866	2897.7929	4355.1	3470.6
1016.6025	2898.9145	4377.2	3493.45
1016.7184	2900.0355	4404.1	3516.75
1016.8342	2901.1559	4433.35	3547.65
1016.95	2902.2756	4475.2	3591.45
1017.0658	2903.3946	4508.2	3625.3
1017.1815	2904.513	4517.35	3631.05
1017.2971	2905.6308	4552.7	3668.9
1017.4127	2906.7479	4565.85	3679.6
1017.5283	2907.8643	4576	3690.8
1017.6439	2908.9801	4586.15	3704.15
1017.7594	2910.0953	4600.2	3717.15
1017.8748	2911.2098	4610.75	3723.55
1017.9902	2912.3236	4592.6	3701.05
1018.1056	2913.4368	4576.45	3691.3
1018.2209	2914.5494	4558.45	3673.85
1018.3362	2915.6613	4520.3	3631.3
1018.4515	2916.7725	4487	3602.15
1018.5667	2917.8831	4465.95	3579.35
1018.6819	2918.9931	4430.95	3545
1018.797	2920.1024	4418.2	3531.15
1018.9121	2921.211	4375.75	3493.35
1019.0271	2922.319	4361.55	3479.25
1019.1421	2923.4264	4359.1	3476
1019.2571	2924.5331	4319.9	3437.15
1019.372	2925.6391	4297.15	3413.8
1019.4869	2926.7445	4293.5	3412.9
1019.6017	2927.8493	4278.45	3393.5
1019.7165	2928.9534	4269.4	3386.15
1019.8313	2930.0569	4263.65	3379.2
1019.946	2931.1597	4243.6	3356.5
1020.0606	2932.2619	4218.2	3333.75
1020.1753	2933.3634	4232.45	3349
1020.2899	2934.4643	4228.75	3338.8
1020.4044	2935.5645	4206.5	3317.3
1020.5189	2936.6641	4174.75	3286.6
1020.6334	2937.763	4109.4	3225.4
1020.7478	2938.8613	4075.5	3192.55
1020.8622	2939.959	4011.75	3122.75
1020.9765	2941.056	3931	3049.55
1021.0908	2942.1523	3833.25	2948.15
1021.2051	2943.248	3750.95	2866.25
1021.3193	2944.3431	3645.05	2761.45
1021.4334	2945.4375	3544.9	2659.2
1021.5476	2946.5313	3441	2558.8
1021.6617	2947.6244	3331.6	2449.8
1021.7757	2948.7169	3229.6	2345.75
1021.8897	2949.8087	3114.55	2230.85
1022.0037	2950.8999	3029.7	2144.9
1022.1176	2951.9904	2949.8	2065.85
1022.2315	2953.0803	2876.75	1991
1022.3453	2954.1696	2807.4	1923.3
1022.4591	2955.2582	2758.9	1877.55
1022.5728	2956.3462	2714.75	1830.6
1022.6865	2957.4335	2659.55	1775.35
1022.8002	2958.5202	2621.15	1733.65
1022.9138	2959.6062	2591.15	1706.75
1023.0274	2960.6916	2571.25	1687.25
1023.141	2961.7764	2540.4	1656.35
1023.2545	2962.8605	2523	1638.7
1023.3679	2963.9439	2512.45	1629.55
1023.4813	2965.0267	2499.45	1614.65
1023.5947	2966.1089	2514.55	1606.65
1023.708	2967.1905	2481.35	1597.45
1023.8213	2968.2714	2478.6	1596.55
1023.9346	2969.3516	2472.4	1591.5
1024.0478	2970.4312	2483.8	1592.95
1024.1609	2971.5102	2469	1585
1024.274	2972.5885	2466.35	1582.25
1024.3871	2973.6662	2480.65	1593.25
1024.5002	2974.7432	2456.8	1571.65
1024.6132	2975.8196	2454.7	1572.35
1024.7261	2976.8954	2442.3	1559.8
1024.839	2977.9705	2423.1	1541.45
1024.9519	2979.045	2406.95	1524.05
1025.0647	2980.1188	2388.4	1505.6
1025.1775	2981.192	2389.85	1508.1
1025.2902	2982.2645	2354.6	1469.25
1025.4029	2983.3364	2319.35	1435.25
1025.5156	2984.4077	2289.7	1407.65
1025.6282	2985.4783	2277.25	1387.1
1025.7407	2986.5483	2231.95	1349.9
1025.8532	2987.6177	2191.05	1308
1025.9657	2988.6864	2167.1	1282.85
1026.0782	2989.7545	2130.75	1245.1
1026.1906	2990.8219	2082.95	1201.8
1026.3029	2991.8887	2050	1164.05
1026.4152	2992.9548	2023.85	1140.65
1026.5275	2994.0204	1982.3	1098.55
1026.6397	2995.0852	1951.45	1069.8
1026.7519	2996.1495	1930.6	1045.15
1026.864	2997.2131	1912.2	1027.35
1026.9761	2998.276	1879.9	996.8
1027.0882	2999.3383	1855.35	970.3
1027.2002	3000.4	1841.4	957.45
1027.3122	3001.4611	1821.5	936.55
1027.4241	3002.5215	1807.45	922.85
1027.536	3003.5812	1792.05	911.3
1027.6478	3004.6404	1782	898.4
1027.7596	3005.6989	1773	888.4
1027.8714	3006.7567	1751.15	869.6
1027.9831	3007.8139	1764.05	860.4
1028.0947	3008.8705	1743.15	862.4
1028.2064	3009.9264	1751.25	851.25
1028.3179	3010.9818	1726.9	843.65
1028.4295	3012.0364	1720.95	837.7
1028.541	3013.0905	1709.45	826.4
1028.6524	3014.1439	1714.7	832.8
1028.7638	3015.1966	1714.7	831.35
1028.8752	3016.2487	1707.25	825.45
1028.9865	3017.3002	1720.55	832.5
1029.0978	3018.3511	1702.65	819.5
1029.209	3019.4013	1704.05	821.25
1029.3202	3020.4509	1705.7	823.1
1029.4314	3021.4998	1707.9	825.5
1029.5425	3022.5481	1706.9	826.85
1029.6535	3023.5958	1699.8	818.2
1029.7645	3024.6428	1699.35	815.25
1029.8755	3025.6892	1711.65	831.6
1029.9864	3026.735	1707.45	822.15
1030.0973	3027.7802	1702.1	818.9
1030.2082	3028.8247	1700.3	815.55
1030.319	3029.8685	1703.65	821.6
1030.4297	3030.9118	1715.1	832.4
1030.5404	3031.9544	1706.5	824.1
1030.6511	3032.9963	1709.3	826.85
1030.7617	3034.0376	1716.7	836.15
1030.8723	3035.0783	1720.45	836.35
1030.9829	3036.1184	1722.55	838.4
1031.0934	3037.1578	1727.35	845.25
1031.2038	3038.1966	1729.85	846.5
1031.3142	3039.2348	1731.85	850.75
1031.4246	3040.2723	1730.2	840.2
1031.5349	3041.3092	1718.75	836.8
1031.6452	3042.3455	1714.5	833.4
1031.7554	3043.3811	1704.25	824.8
1031.8656	3044.4161	1696.05	812.9
1031.9758	3045.4505	1706.25	826.85
1032.0859	3046.4842	1690.6	807
1032.1959	3047.5173	1686.3	806.5
1032.3059	3048.5498	1672.8	789.65
1032.4159	3049.5816	1669.15	785.05
1032.5258	3050.6128	1662	779.2
1032.6357	3051.6434	1653.7	771.4
1032.7455	3052.6734	1644.5	760.75
1032.8553	3053.7027	1635.65	753.2
1032.9651	3054.7314	1629.45	746.5
1033.0748	3055.7594	1617.75	736.05
1033.1845	3056.7868	1614.3	731.6
1033.2941	3057.8136	1606.8	723.85
1033.4037	3058.8398	1603.5	720.9
1033.5132	3059.8653	1591.95	710.65
1033.6227	3060.8902	1585.85	704.7
1033.7321	3061.9145	1584.6	702.7
1033.8415	3062.9381	1571.15	689.9
1033.9509	3063.9612	1572.25	675.7
1034.0602	3064.9835	1560.95	677.7
1034.1694	3066.0053	1557.95	675.45
1034.2787	3067.0264	1539.85	656.55
1034.3878	3068.0469	1540.25	657.45
1034.497	3069.0668	1536.4	648.8
1034.6061	3070.086	1522.75	642.4
1034.7151	3071.1046	1515.55	630.6
1034.8241	3072.1226	1504.75	624.1
1034.9331	3073.1399	1493.6	611.85
1035.042	3074.1567	1476.75	594.7
1035.1508	3075.1727	1466.05	583.45
1035.2597	3076.1882	1454.55	573.25
1035.3684	3077.203	1447.1	562.8
1035.4772	3078.2173	1440.65	557.05
1035.5859	3079.2308	1433.7	547.45
1035.6945	3080.2438	1417.6	532.9
1035.8031	3081.2561	1412.95	532.7
1035.9117	3082.2678	1406.95	525.4
1036.0202	3083.2789	1397.25	514.35
1036.1286	3084.2893	1391.8	509.4
1036.2371	3085.2991	1386.4	506
1036.3454	3086.3083	1382.25	496.6
1036.4538	3087.3169	1371.1	488.15
1036.562	3088.3248	1366.6	482
1036.6703	3089.3321	1358.2	474
1036.7785	3090.3388	1350.9	470.3
1036.8866	3091.3449	1345.75	464.2
1036.9948	3092.3503	1340.8	456.6
1037.1028	3093.3551	1332.25	453.35
1037.2108	3094.3593	1334.2	453.3
1037.3188	3095.3629	1326.15	442.85
1037.4267	3096.3658	1324.15	441.35
1037.5346	3097.3681	1313.4	433.3
1037.6425	3098.3698	1316.1	433.85
1037.7503	3099.3708	1318.9	430.1
1037.858	3100.3713	1307.35	426.15
1037.9657	3101.3711	1299	416.65
1038.0734	3102.3702	1431.25	414.9
1038.181	3103.3688	1305.85	423.1
1038.2886	3104.3667	1290.75	409
1038.3961	3105.364	1287.6	407.55
1038.5036	3106.3607	1282.8	399.8
1038.611	3107.3568	1288.4	405.45
1038.7184	3108.3522	1283.85	403
1038.8257	3109.347	1277.95	394.85
1038.933	3110.3412	1284.05	398.35
1039.0403	3111.3348	1271.85	390.35
1039.1475	3112.3277	1271.15	389.2
1039.2547	3113.32	1271.8	390.5
1039.3618	3114.3117	1264.45	381
1039.4689	3115.3028	1261.4	379.95
1039.5759	3116.2932	1262.95	381.4
1039.6829	3117.2831	1266.5	380.25
1039.7898	3118.2723	1253	369.95
1039.8967	3119.2608	1256.1	375.15
1040.0035	3120.2488	1253.4	371.65
1040.1103	3121.2361	1247.7	367.5
1040.2171	3122.2229	1248.95	366.25
1040.3238	3123.209	1241.8	359.5
1040.4305	3124.1944	1239.65	359.95
1040.5371	3125.1793	1241.35	360.1
1040.6437	3126.1635	1232.4	351.4
1040.7502	3127.1471	1242.25	362.05
1040.8567	3128.1301	1230.25	349.45
1040.9631	3129.1125	1225.05	344.3
1041.0695	3130.0942	1233.3	351.4
1041.1759	3131.0753	1237.4	347.8
1041.2822	3132.0558	1233.55	348.85
1041.3884	3133.0357	1220.6	338.65
1041.4946	3134.015	1223.05	340.05
1041.6008	3134.9936	1216.15	332.05
1041.7069	3135.9716	1238.95	338.25
1041.813	3136.949	1211.35	330.7
1041.919	3137.9258	1230.35	332.55
1042.025	3138.902	1212	323.55
1042.1309	3139.8775	1210.35	330.65
1042.2368	3140.8524	1210.75	331.15
1042.3427	3141.8267	1201	316.65
1042.4485	3142.8004	1205.6	323.4
1042.5542	3143.7735	1209.5	321.9
1042.6599	3144.7459	1200.05	318.4
1042.7656	3145.7178	1196.55	314.2
1042.8712	3146.689	1195.4	315.65
1042.9768	3147.6596	1193.5	310.5
1043.0823	3148.6295	1191.4	312.05
1043.1878	3149.5989	1192.55	311.25
1043.2932	3150.5676	1187.2	305.95
1043.3986	3151.5357	1185.05	305.85
1043.5039	3152.5032	1178.55	297.15
1043.6092	3153.4701	1182.45	301.7
1043.7145	3154.4364	1189.55	304
1043.8197	3155.402	1177.2	298.8
1043.9248	3156.367	1171.2	286.45
1044.03	3157.3315	1217.1	291.7
1044.135	3158.2952	1173.9	293.55
1044.24	3159.2584	1168.35	287.85
1044.345	3160.221	1168.6	286.95
1044.4499	3161.1829	1165.7	283.3
1044.5548	3162.1442	1165	283.4
1044.6596	3163.105	1164.25	283.5
1044.7644	3164.065	1157.2	274.55
1044.8692	3165.0245	1155.1	270.95
1044.9739	3165.9834	1153.4	274.75
1045.0785	3166.9416	1153.55	271.75
1045.1831	3167.8993	1150.3	271.15
1045.2877	3168.8563	1149.1	269.6
1045.3922	3169.8127	1146.25	265.25
1045.4966	3170.7684	1145.35	264.85
1045.6011	3171.7236	1151.9	269.5
1045.7054	3172.6782	1152.5	271
1045.8098	3173.6321	1147.7	267.25
1045.914	3174.5854	1148	264.95
1046.0183	3175.5381	1140.25	260.15
1046.1224	3176.4902	1141.9	260.6
1046.2266	3177.4417	1134.85	254.5
1046.3307	3178.3926	1136.45	257.35
1046.4347	3179.3428	1130.85	252.7
1046.5387	3180.2924	1129.55	248.65
1046.6427	3181.2415	1135.9	257.2
1046.7466	3182.1899	1131.25	246.55
1046.8504	3183.1377	1129.6	249.75
1046.9542	3184.0848	1131.15	246.6
1047.058	3185.0314	1130.25	247.75
1047.1617	3185.9773	1125.7	244.2
1047.2654	3186.9227	1129.2	248.35
1047.369	3187.8674	1124.7	243.5
1047.4726	3188.8115	1122.45	236.5
1047.5761	3189.755	1126.4	244.75
1047.6796	3190.6979	1119.85	237.45
1047.783	3191.6402	1119.4	239.85
1047.8864	3192.5818	1119.9	241.3
1047.9898	3193.5229	1124.45	239.7
1048.0931	3194.4633	1114.85	235.1
1048.1963	3195.4031	1115.15	234.95
1048.2995	3196.3423	1111.4	231.5
1048.4027	3197.2809	1110	228.6
1048.5058	3198.2189	1104.2	223.2
1048.6089	3199.1563	1114.8	227.55
1048.7119	3200.0931	1103.2	222.05
1048.8148	3201.0292	1105.65	225.2
1048.9178	3201.9648	1106.3	228
1049.0206	3202.8997	1110.6	225.7
1049.1235	3203.834	1101.6	220.6
1049.2262	3204.7677	1102.55	222.45
1049.329	3205.7008	1097.85	214.65
1049.4317	3206.6333	1097.9	218.1
1049.5343	3207.5652	1097.8	214.9
1049.6369	3208.4964	1091.85	210.9
1049.7394	3209.4271	1094.4	214.35
1049.8419	3210.3571	1091.85	211.9
1049.9444	3211.2865	1089.35	207.55
1050.0468	3212.2154	1094.2	213.75
1050.1491	3213.1436	1089.4	206.55
1050.2514	3214.0712	1098.5	211.6
1050.3537	3214.9982	1088.35	207.65
1050.4559	3215.9246	1092	210.45
1050.5581	3216.8503	1085.55	206.65
1050.6602	3217.7755	1087.05	205.55
1050.7623	3218.7001	1085.55	204.65
1050.8643	3219.624	1091.1	210.9
1050.9663	3220.5473	1083.05	201.7
1051.0682	3221.4701	1079.55	197.7
1051.1701	3222.3922	1076.8	195.15
1051.2719	3223.3137	1080.75	199.95
1051.3737	3224.2346	1074.55	194.25
1051.4754	3225.1549	1077.5	197.9
1051.5771	3226.0746	1072.15	193
1051.6788	3226.9937	1076.2	194.8
1051.7804	3227.9121	1070.45	189.75
1051.8819	3228.83	1072.35	191.95
1051.9834	3229.7473	1074.2	195.25
1052.0849	3230.6639	1070.95	191.35
1052.1863	3231.5799	1071.5	190.35
1052.2876	3232.4954	1071.25	191.75
1052.3889	3233.4102	1071.7	191.75
1052.4902	3234.3244	1066.7	183.6
1052.5914	3235.238	1063.7	182.65
1052.6926	3236.151	1092.65	184.45
1052.7937	3237.0634	1065.2	186
1052.8948	3237.9752	1061.15	181.65
1052.9958	3238.8864	1060.05	180.4
1053.0968	3239.797	1065.8	185.35
1053.1977	3240.7069	1061	179.9
1053.2986	3241.6163	1061.5	178.2
1053.3994	3242.5251	1059.35	179.45
1053.5002	3243.4332	1057.45	176.7
1053.6009	3244.3408	1057.3	175.85
1053.7016	3245.2477	1052.15	173.05
1053.8022	3246.154	1049.1	167.95
1053.9028	3247.0598	1056.1	175.4
1054.0034	3247.9649	1049.8	169.15
1054.1039	3248.8694	1050.65	170.5
1054.2043	3249.7733	1050.05	169.1
1054.3047	3250.6766	1047.6	165.6
1054.4051	3251.5793	1047.85	165.75
1054.5054	3252.4814	1050.9	172.4
1054.6056	3253.3829	1040.05	161.45
1054.7058	3254.2838	1043	164
1054.806	3255.1841	1039.35	160.3
1054.9061	3256.0838	1038.1	159
1055.0061	3256.9829	1037.2	158.15
1055.1062	3257.8814	1041.05	159.15
1055.2061	3258.7792	1035.05	154.1
1055.306	3259.6765	1032.95	151.8
1055.4059	3260.5731	1029.55	150.4
1055.5057	3261.4692	1032.65	149.45
1055.6055	3262.3647	1030.95	151.25
1055.7052	3263.2595	1026.4	145.25
1055.8049	3264.1538	1025.85	144.55
1055.9045	3265.0474	1021.9	141.95
1056.0041	3265.9404	1015.8	136.3
1056.1036	3266.8329	1017.35	137.5
1056.2031	3267.7247	1025.55	136.85
1056.3025	3268.616	1013.15	134.4
1056.4019	3269.5066	1007.95	127.9
1056.5013	3270.3966	1004.95	121.85
1056.6005	3271.286	997.95	119.55
