Software Version:	3.9.2.0
Unit SN:	10000200
Spectrometer SN:	6960
Date:	3/26/2024 1:21:14 PM
Data Line Index:	25
Spectral Points:	2048
Integration time (ms):	125
Averages:	20
Delay (ms):	30000
Sequence Number:	1
Processing:	dark subtract
Laser Power (mW):	300
Laser Current (mA):	818
Laser Diode Temp (C):	25.1
Laser Case Temp (C):	26.6
System Temp (C):	26.6
Spectrometer Temp (C):	24.3
CCD Temp (C):	0.005
Secondary Temp (C):	20.008
Heatsink Temp (C):	21.95
CCDPCB Temp (C):	36.407
SecondaryPCB Temp (C):	33.795

Wavelength	RamanShift	Raw Counts	Dark Subtracted
787.061	30.1047	431.55	20.35
787.2016	32.3739	429.8	19.05
787.3422	34.6426	435.85	25.3
787.4828	36.9109	436.85	23.05
787.6235	39.1787	441.25	24.4
787.7642	41.4461	447.8	26.25
787.9049	43.7131	453.65	29.45
788.0456	45.9796	456.8	30.25
788.1863	48.2456	460.5	29.1
788.3271	50.5112	468.65	34.55
788.4679	52.7764	472.9	36.7
788.6087	55.0411	479.4	38.65
788.7496	57.3054	485.95	39.2
788.8904	59.5692	490.25	42.4
789.0313	61.8326	496.65	45.9
789.1722	64.0955	505	48.65
789.3132	66.3579	514.1	52.15
789.4541	68.6199	521.25	57.8
789.5951	70.8815	534.6	69
789.7361	73.1426	563.15	94.1
789.8771	75.4032	630.5	156.2
790.0181	77.6634	782.75	304.4
790.1592	79.9231	1149.55	665.8
790.3003	82.1824	1928.3	1441.95
790.4414	84.4412	3276.1	2786.35
790.5825	86.6995	5150.9	4653.4
790.7237	88.9574	7054.8	6552.25
790.8648	91.2148	8489.6	7982.95
791.006	93.4717	9276.35	8765.9
791.1472	95.7282	9622.3	9108.3
791.2885	97.9842	9764.2	9247.4
791.4297	100.2398	9785.4	9266.45
791.571	102.4949	9773	9251.25
791.7123	104.7495	9761.9	9235.9
791.8536	107.0036	9720.95	9192.3
791.9949	109.2573	9689.85	9164.6
792.1363	111.5105	9637.8	9109.55
792.2777	113.7632	9575.75	9046.7
792.4191	116.0154	9550.6	9012.05
792.5605	118.2672	9530.6	8996.1
792.7019	120.5185	9472	8937.5
792.8434	122.7693	9431.1	8893.1
792.9849	125.0197	9407.05	8865.15
793.1264	127.2696	9371	8828.5
793.2679	129.519	9353.05	8805.65
793.4094	131.7679	9335.5	8785.3
793.551	134.0163	9347.65	8793.7
793.6926	136.2642	9330.5	8774.35
793.8342	138.5117	9333.95	8767.65
793.9758	140.7587	9319.05	8758.85
794.1175	143.0052	9304.2	8738.55
794.2591	145.2512	9248.2	8684.6
794.4008	147.4967	9200.2	8635.2
794.5425	149.7417	9177.9	8609.85
794.6842	151.9863	9130.05	8556.45
794.826	154.2304	9122.25	8546.4
794.9677	156.4739	9074.95	8494.3
795.1095	158.717	9128.15	8546.4
795.2513	160.9596	9098.85	8514.1
795.3931	163.2017	9087.9	8500.1
795.535	165.4433	9106	8517.15
795.6768	167.6844	9069.65	8478.25
795.8187	169.925	9040.5	8445.65
795.9606	172.1651	8975.95	8377.3
796.1025	174.4047	8958.4	8357.2
796.2445	176.6439	8939.05	8335.45
796.3864	178.8825	8898.7	8292.55
796.5284	181.1206	8904.35	8292.3
796.6704	183.3582	8878.65	8261.8
796.8124	185.5954	8890.05	8273.35
796.9544	187.832	8875.4	8254.9
797.0965	190.0681	8895.1	8272.35
797.2386	192.3037	8870.4	8244.85
797.3806	194.5388	8858.1	8231.6
797.5228	196.7734	8889.45	8260.2
797.6649	199.0075	8892.6	8258.4
797.807	201.2411	8914.65	8278.75
797.9492	203.4742	8901.4	8265.95
798.0914	205.7068	8951.7	8313
798.2336	207.9389	8962.9	8323.7
798.3758	210.1704	8971.7	8329.3
798.518	212.4015	8940.15	8295.3
798.6603	214.632	8923.75	8276.2
798.8025	216.862	8947.8	8309.9
798.9448	219.0915	8947.8	8320.1
799.0871	221.3205	8905.45	8279.7
799.2294	223.549	8930.25	8307.35
799.3718	225.777	8934.35	8311.3
799.5141	228.0044	8935.25	8309.5
799.6565	230.2314	8912.6	8288.8
799.7989	232.4578	8911.4	8284.5
799.9413	234.6837	8905.7	8270.4
800.0837	236.909	8889.45	8252.45
800.2262	239.1339	8892.45	8230.5
800.3687	241.3582	8868.35	8222.35
800.5111	243.582	8859.4	8181.7
800.6536	245.8053	8877.25	8212.7
800.7961	248.0281	8878.95	8219.35
800.9387	250.2503	8871.65	8206.95
801.0812	252.472	8856.55	8188.7
801.2238	254.6932	8865.2	8193.4
801.3664	256.9139	8823.7	8148.55
801.509	259.134	8837.75	8160.35
801.6516	261.3536	8835.2	8159.45
801.7942	263.5727	8877.95	8199.6
801.9369	265.7912	8868.8	8191.05
802.0795	268.0092	8894.9	8215.55
802.2222	270.2267	8902.65	8220.7
802.3649	272.4436	8934.45	8251.45
802.5076	274.6601	8936.75	8248.95
802.6504	276.8759	8929.85	8245.6
802.7931	279.0913	8929	8242.95
802.9359	281.3061	8956.75	8267.9
803.0787	283.5204	8962.8	8272.6
803.2215	285.7341	8954.1	8262.1
803.3643	287.9473	9003.55	8297.7
803.5071	290.16	8978.85	8279.3
803.6499	292.3721	8949.25	8253.5
803.7928	294.5837	8898.9	8203.2
803.9357	296.7947	8860	8163.2
804.0786	299.0052	8841.8	8145.35
804.2215	301.2152	8818.55	8117.95
804.3644	303.4246	8817.2	8120
804.5074	305.6334	8780.85	8084.3
804.6503	307.8418	8757.3	8056.25
804.7933	310.0495	8746.8	8043.75
804.9363	312.2568	8720.45	8020.25
805.0793	314.4635	8654.8	7950.6
805.2223	316.6696	8619.4	7914.05
805.3653	318.8752	8563.8	7847.85
805.5084	321.0802	8516.1	7807.85
805.6514	323.2847	8507.85	7798.35
805.7945	325.4887	8449.65	7740.75
805.9376	327.692	8477.3	7767.4
806.0807	329.8949	8503.1	7790.2
806.2238	332.0972	8518.65	7805.55
806.367	334.2989	8539.05	7821.15
806.5101	336.5001	8507.65	7789.9
806.6533	338.7007	8478.05	7758.05
806.7965	340.9008	8493.4	7773.55
806.9397	343.1003	8442.9	7719.85
807.0829	345.2992	8379.8	7656.1
807.2261	347.4976	8356.05	7630.8
807.3693	349.6955	8321.05	7593.05
807.5126	351.8927	8341.2	7611.05
807.6559	354.0895	8311.85	7572.85
807.7991	356.2856	8304.25	7573.8
807.9424	358.4812	8258.15	7527.7
808.0857	360.6763	8280.6	7547.3
808.2291	362.8707	8225.65	7491.65
808.3724	365.0646	8252.3	7516.7
808.5158	367.258	8222.05	7483.7
808.6591	369.4508	8217	7476
808.8025	371.643	8259.15	7519
808.9459	373.8346	8197.85	7453.45
809.0893	376.0257	8228.05	7478.55
809.2327	378.2162	8230.7	7482.05
809.3762	380.4062	8240	7489.65
809.5196	382.5956	8199.6	7446.35
809.6631	384.7844	8162.2	7410.4
809.8066	386.9726	8108.4	7354.05
809.9501	389.1603	8091.55	7343.55
810.0936	391.3474	8079.3	7300.15
810.2371	393.5339	8076.2	7327.85
810.3806	395.7199	8017.65	7275.75
810.5241	397.9052	8018.5	7274.45
810.6677	400.09	8031.45	7290.65
810.8113	402.2743	8039.6	7295.05
810.9548	404.4579	8048.65	7304.2
811.0984	406.641	8102.4	7357.5
811.2421	408.8235	8101.75	7353.9
811.3857	411.0054	8152.95	7404.75
811.5293	413.1868	8226.2	7476.55
811.673	415.3675	8283.2	7527.95
811.8166	417.5477	8305.9	7551.1
811.9603	419.7273	8235.5	7478.85
812.104	421.9064	8110.45	7343.65
812.2477	424.0848	8029.25	7267.95
812.3914	426.2627	7972.4	7204.85
812.5351	428.4399	7928.05	7164.85
812.6788	430.6166	7882.15	7112.65
812.8226	432.7928	7826.3	7056.1
812.9663	434.9683	7779.75	7011.95
813.1101	437.1432	7763.35	6991.5
813.2539	439.3176	7731.05	6961.5
813.3977	441.4914	7677.9	6906.05
813.5415	443.6645	7680.6	6904.75
813.6853	445.8371	7659.2	6886.4
813.8291	448.0091	7630.1	6858.5
813.973	450.1806	7610.15	6834.25
814.1168	452.3514	7573.4	6798.9
814.2607	454.5216	7589.75	6807.7
814.4046	456.6913	7542.2	6763.4
814.5485	458.8603	7524.2	6745.1
814.6924	461.0288	7544.85	6767.1
814.8363	463.1967	7532.6	6754
814.9802	465.3639	7527.45	6747.25
815.1241	467.5306	7513.05	6731.65
815.2681	469.6967	7498.7	6716.95
815.412	471.8622	7455.15	6674.2
815.556	474.0271	7455.9	6674.3
815.7	476.1914	7446.55	6662.8
815.844	478.3551	7433.95	6650.9
815.988	480.5182	7437.75	6653.5
816.132	482.6807	7437.75	6653.05
816.276	484.8426	7452.65	6668.7
816.4201	487.0039	7479.35	6694.9
816.5641	489.1647	7505.15	6718.85
816.7082	491.3248	7533.95	6747.75
816.8522	493.4843	7535.65	6749.55
816.9963	495.6432	7531.75	6745.25
817.1404	497.8015	7490.25	6698.4
817.2845	499.9592	7479.3	6691.7
817.4286	502.1163	7450.8	6660.9
817.5727	504.2728	7400.85	6608.55
817.7168	506.4287	7383.6	6594.25
817.861	508.5839	7354.5	6563.3
818.0051	510.7386	7359.3	6567.9
818.1493	512.8927	7352.15	6551.25
818.2935	515.0461	7358.5	6565.3
818.4377	517.199	7358.8	6565.4
818.5818	519.3512	7362.45	6569
818.726	521.5029	7399.2	6600.5
818.8703	523.6539	7447.25	6649.75
819.0145	525.8043	7441.85	6646.45
819.1587	527.9541	7402.7	6603.35
819.303	530.1033	7362	6563.2
819.4472	532.2519	7326.7	6528.6
819.5915	534.3999	7317.05	6516.1
819.7357	536.5472	7299.05	6497.4
819.88	538.694	7285	6485.5
820.0243	540.8401	7300.55	6499
820.1686	542.9856	7317.3	6513.75
820.3129	545.1305	7308.9	6505.5
820.4572	547.2748	7313.75	6511.45
820.6016	549.4185	7317.55	6511.85
820.7459	551.5615	7295.5	6490.8
820.8902	553.704	7327.5	6523.35
821.0346	555.8458	7286.85	6483.5
821.1789	557.987	7311.25	6506.4
821.3233	560.1276	7339.9	6534.6
821.4677	562.2675	7368.65	6565.3
821.6121	564.4069	7397.35	6592.8
821.7565	566.5456	7402.85	6598.3
821.9009	568.6837	7395	6589.25
822.0453	570.8212	7322.05	6515.8
822.1897	572.958	7306.2	6497.4
822.3342	575.0942	7268.2	6461
822.4786	577.2299	7214.3	6406.5
822.6231	579.3648	7188.9	6381.05
822.7675	581.4992	7142.45	6333.9
822.912	583.6329	7124.55	6316.95
823.0565	585.766	7133.65	6324.9
823.201	587.8985	7133.75	6326.4
823.3454	590.0304	7146.4	6322.8
823.4899	592.1616	7132.5	6320.25
823.6345	594.2922	7120.6	6307.25
823.779	596.4222	7108.05	6290.8
823.9235	598.5515	7048.8	6234.25
824.068	600.6802	7015.2	6198.95
824.2126	602.8083	6961.9	6145.45
824.3571	604.9358	6977.05	6159.5
824.5017	607.0626	6954.55	6140.55
824.6462	609.1888	6938.15	6119.65
824.7908	611.3144	6950.6	6131.4
824.9354	613.4393	6958.1	6141.55
825.08	615.5636	6991.2	6175.15
825.2246	617.6873	7026.2	6207.6
825.3692	619.8103	7036.55	6216.05
825.5138	621.9327	7029.2	6209.65
825.6584	624.0544	7014.15	6195.35
825.803	626.1756	6959.1	6141.9
825.9477	628.2961	6935.35	6114.6
826.0923	630.4159	6902.2	6081.6
826.237	632.5351	6898.5	6078.4
826.3816	634.6537	6874.5	6053.1
826.5263	636.7716	6885.1	6062.15
826.6709	638.8889	6905	6084.35
826.8156	641.0056	6893.95	6070.45
826.9603	643.1216	6881.55	6055.55
827.105	645.237	6887.85	6059.55
827.2497	647.3518	6868.35	6043.4
827.3944	649.4659	6824.45	5998.9
827.5391	651.5793	6838.25	6010.6
827.6838	653.6922	6801.4	5978.3
827.8285	655.8043	6775.5	5952.3
827.9733	657.9159	6764.45	5937.3
828.118	660.0268	6776.75	5947.85
828.2627	662.137	6758.3	5930.05
828.4075	664.2466	6759.05	5929.5
828.5522	666.3556	6739.5	5910.55
828.697	668.4639	6711.7	5880.3
828.8418	670.5716	6710.1	5881.8
828.9865	672.6786	6712.2	5882.8
829.1313	674.785	6695.55	5865.05
829.2761	676.8907	6664.35	5832.35
829.4209	678.9958	6673.15	5843.7
829.5657	681.1002	6656.95	5826.3
829.7105	683.204	6666.8	5833.45
829.8553	685.3072	6641.25	5808.4
830.0001	687.4097	6656.8	5823.75
830.1449	689.5115	6645	5809.35
830.2898	691.6127	6638.55	5805.55
830.4346	693.7132	6634.3	5801.8
830.5794	695.8131	6630.65	5774.4
830.7243	697.9123	6626.65	5790.9
830.8691	700.0109	6616.6	5781.45
831.014	702.1089	6612.15	5778
831.1588	704.2061	6621.75	5787.3
831.3037	706.3028	6614.3	5777.5
831.4486	708.3987	6632.65	5795.9
831.5935	710.4941	6624.65	5789.1
831.7383	712.5887	6642	5803.35
831.8832	714.6827	6646.7	5808.45
832.0281	716.7761	6624.6	5789
832.173	718.8688	6603.05	5766.25
832.3179	720.9608	6611.75	5768.75
832.4628	723.0522	6627.1	5785.2
832.6077	725.1429	6605.1	5766.15
832.7527	727.233	6643.35	5801.9
832.8976	729.3224	6667.8	5828.85
833.0425	731.4112	6687.45	5847.9
833.1874	733.4993	6697.45	5853.55
833.3324	735.5867	6650.4	5810.5
833.4773	737.6735	6620.7	5777.5
833.6222	739.7596	6573.6	5731.65
833.7672	741.845	6527.45	5685.1
833.9122	743.9298	6536.2	5690.35
834.0571	746.014	6537	5695.25
834.2021	748.0974	6543.2	5700.45
834.347	750.1802	6528.2	5684.8
834.492	752.2624	6503.6	5661.8
834.637	754.3439	6475.9	5629.65
834.782	756.4247	6438.85	5586.4
834.9269	758.5048	6425.55	5581.75
835.0719	760.5843	6419.8	5576.55
835.2169	762.6631	6398.1	5554.35
835.3619	764.7413	6423.45	5581.65
835.5069	766.8188	6483.3	5636.9
835.6519	768.8956	6496.1	5648.45
835.7969	770.9718	6546.8	5701
835.9419	773.0473	6498.6	5654.35
836.0869	775.1221	6456.85	5610.55
836.232	777.1962	6447.55	5601.65
836.377	779.2697	6470.2	5621.9
836.522	781.3426	6538.05	5672.3
836.667	783.4147	6548.25	5700.4
836.8121	785.4862	6544.05	5698.1
836.9571	787.557	6472.35	5624.95
837.1021	789.6271	6420.05	5574.1
837.2472	791.6966	6317.65	5469.9
837.3922	793.7654	6229.25	5380.6
837.5373	795.8335	6186.55	5338.75
837.6823	797.901	6147.35	5297.6
837.8274	799.9678	6160.5	5310.6
837.9724	802.0339	6120.35	5271.9
838.1175	804.0993	6139.1	5281.55
838.2626	806.1641	6115.9	5266.15
838.4076	808.2282	6087.1	5238.4
838.5527	810.2916	6066.1	5214.7
838.6978	812.3544	6065.15	5216.3
838.8428	814.4164	6041.35	5190.65
838.9879	816.4778	6028.4	5177.1
839.133	818.5385	6018.2	5168.2
839.2781	820.5986	6033.85	5184
839.4232	822.658	6064.8	5210.95
839.5682	824.7166	6076.15	5226.9
839.7133	826.7747	6139.3	5290.9
839.8584	828.832	6165.95	5315.8
840.0035	830.8886	6172.5	5318.85
840.1486	832.9446	6197.9	5344.8
840.2937	834.9999	6182	5331.95
840.4388	837.0545	6122.45	5267.8
840.5839	839.1085	6080.6	5227.1
840.729	841.1618	6023.25	5167.1
840.8741	843.2143	5965.4	5110.9
841.0192	845.2662	5927.2	5074.55
841.1643	847.3175	5908.9	5058.05
841.3095	849.368	5895	5041.95
841.4546	851.4179	5869.1	5015.85
841.5997	853.467	5852.15	4998.25
841.7448	855.5155	5863.45	5009.4
841.8899	857.5633	5847.8	4994.15
842.0351	859.6105	5842.3	4987.05
842.1802	861.6569	5811.6	4956.85
842.3253	863.7027	5782.55	4925.65
842.4704	865.7478	5781.2	4925.45
842.6156	867.7922	5761.55	4904.45
842.7607	869.8359	5751.05	4893.45
842.9058	871.8789	5748.45	4890.6
843.0509	873.9212	5763.6	4874.5
843.1961	875.9629	5717.8	4861.3
843.3412	878.0039	5729.35	4871.35
843.4863	880.0441	5731.25	4875.4
843.6315	882.0837	5736.2	4878.35
843.7766	884.1226	5735.05	4876.8
843.9218	886.1609	5723.3	4867.7
844.0669	888.1984	5760.65	4904.95
844.212	890.2352	5803.95	4946.95
844.3572	892.2714	5807	4945.05
844.5023	894.3069	5769.8	4911.75
844.6475	896.3416	5708.15	4850
844.7926	898.3757	5660.65	4802.75
844.9377	900.4091	5654.5	4794.1
845.0829	902.4418	5644.7	4780.3
845.228	904.4739	5629.7	4769.15
845.3732	906.5052	5639.55	4780.3
845.5183	908.5358	5615.95	4758.8
845.6635	910.5658	5586.5	4724.4
845.8086	912.595	5583.8	4726
845.9538	914.6236	5527.8	4668.1
846.0989	916.6515	5510.55	4651.1
846.2441	918.6786	5487.6	4625.65
846.3892	920.7051	5489.4	4629.05
846.5344	922.7309	5449.4	4590
846.6795	924.756	5434.45	4573
846.8246	926.7804	5442.85	4578.3
846.9698	928.8041	5395.55	4533
847.1149	930.8272	5414.05	4553.9
847.2601	932.8495	5402.75	4539.75
847.4052	934.8711	5403.1	4540.85
847.5504	936.892	5373.9	4512.65
847.6955	938.9123	5371.15	4507.65
847.8407	940.9318	5380.35	4517.75
847.9858	942.9506	5368.2	4502.9
848.131	944.9688	5352.05	4490.25
848.2761	946.9862	5326.4	4461.8
848.4213	949.003	5279	4416.05
848.5664	951.019	5251.8	4387.95
848.7115	953.0344	5243.7	4381.35
848.8567	955.0491	5220.45	4355.9
849.0018	957.063	5203.15	4339.4
849.147	959.0763	5202.05	4331
849.2921	961.0888	5199	4332.35
849.4373	963.1007	5182.6	4317.45
849.5824	965.1119	5170.75	4307.95
849.7275	967.1223	5160.95	4296.6
849.8727	969.1321	5142.75	4281.35
850.0178	971.1412	5144.75	4279.15
850.1629	973.1495	5114.7	4251.5
850.3081	975.1572	5113.5	4215.85
850.4532	977.1641	5099.95	4234.5
850.5983	979.1704	5066.5	4198.8
850.7435	981.1759	5051.05	4181.65
850.8886	983.1808	5044.75	4177.45
851.0337	985.1849	5030.9	4154.65
851.1788	987.1884	5028	4160
851.324	989.1911	5010.4	4142.25
851.4691	991.1932	4993.7	4126.25
851.6142	993.1945	4964.6	4099.95
851.7593	995.1951	4934.6	4068.8
851.9045	997.1951	4931.85	4060.65
852.0496	999.1943	4924.7	4058.85
852.1947	1001.1928	4905.1	4036.35
852.3398	1003.1906	4882.25	4016.1
852.4849	1005.1877	4909.65	4040.55
852.63	1007.1841	4900.1	4031.05
852.7751	1009.1798	4879.2	4013.2
852.9202	1011.1748	4867.15	4000.15
853.0653	1013.1691	4799.5	3932.25
853.2104	1015.1627	4788.65	3922.05
853.3555	1017.1556	4751.4	3884.55
853.5006	1019.1477	4727.2	3857.2
853.6457	1021.1392	4694.5	3828.6
853.7908	1023.1299	4675.45	3808.4
853.9359	1025.12	4650.7	3782.85
854.081	1027.1093	4633.1	3766.3
854.2261	1029.0979	4633.95	3766.8
854.3712	1031.0859	4615.85	3748.75
854.5163	1033.0731	4620.8	3755.1
854.6613	1035.0596	4604.9	3739.6
854.8064	1037.0454	4577.35	3709.8
854.9515	1039.0304	4571.6	3702.15
855.0965	1041.0148	4544.7	3675.7
855.2416	1042.9985	4513.35	3641.65
855.3867	1044.9814	4500.35	3631.95
855.5317	1046.9636	4473.55	3602.1
855.6768	1048.9452	4452.65	3583.45
855.8219	1050.926	4452.9	3585.85
855.9669	1052.9061	4439.25	3572.05
856.112	1054.8855	4434.2	3563.35
856.257	1056.8642	4450.6	3581.3
856.4021	1058.8421	4425.4	3549.55
856.5471	1060.8194	4413.45	3545.45
856.6921	1062.7959	4399.8	3531.05
856.8372	1064.7717	4382.65	3512.45
856.9822	1066.7469	4368.65	3498.35
857.1272	1068.7213	4373.15	3500.75
857.2723	1070.695	4367.2	3497.9
857.4173	1072.6679	4361.4	3491.05
857.5623	1074.6402	4369.05	3497.9
857.7073	1076.6117	4358.75	3484.85
857.8523	1078.5826	4358.6	3486.6
857.9973	1080.5527	4290.6	3418.2
858.1423	1082.5221	4262.3	3391.7
858.2873	1084.4908	4239.85	3368.2
858.4323	1086.4587	4208.7	3337.5
858.5773	1088.426	4194.65	3321.75
858.7223	1090.3925	4199.15	3321.45
858.8673	1092.3584	4195.95	3325.4
859.0123	1094.3235	4179.75	3309.2
859.1573	1096.2879	4173.75	3301.85
859.3022	1098.2515	4187.95	3316.45
859.4472	1100.2145	4169.9	3299.2
859.5922	1102.1767	4171.3	3296.6
859.7371	1104.1382	4192.7	3319.85
859.8821	1106.099	4217.35	3345.25
860.027	1108.0591	4251.65	3381.6
860.172	1110.0185	4255.05	3383.2
860.3169	1111.9771	4262.05	3390.1
860.4619	1113.9351	4282.8	3408.35
860.6068	1115.8923	4293.7	3422.7
860.7517	1117.8488	4313.25	3438.4
860.8967	1119.8045	4254.6	3382.35
861.0416	1121.7596	4198.8	3325.45
861.1865	1123.7139	4145.65	3272.95
861.3314	1125.6675	4082.85	3211
861.4763	1127.6204	4078.3	3207.55
861.6212	1129.5726	4073.25	3196.25
861.7661	1131.524	4065.5	3195
861.911	1133.4748	4043.75	3168.85
862.0559	1135.4248	3978.65	3103.85
862.2008	1137.3741	3937.5	3064.15
862.3457	1139.3226	3910.65	3034.3
862.4905	1141.2705	3907.9	3035.25
862.6354	1143.2176	3888.65	3010.1
862.7803	1145.164	3910.15	3036.3
862.9251	1147.1097	3881	3006.55
863.07	1149.0546	3863.15	2987.4
863.2148	1150.9989	3843.9	2970.8
863.3597	1152.9424	3825.2	2950.35
863.5045	1154.8852	3810.7	2936.9
863.6493	1156.8272	3790.1	2916.15
863.7942	1158.7686	3791.85	2908.85
863.939	1160.7092	3757.95	2885.55
864.0838	1162.6491	3757.4	2882.45
864.2286	1164.5883	3755.25	2880.35
864.3734	1166.5267	3755.4	2881.1
864.5182	1168.4644	3761.45	2886.4
864.663	1170.4014	3784.3	2906.75
864.8078	1172.3377	3789.05	2916.8
864.9526	1174.2732	3823.2	2950.85
865.0974	1176.2081	3872.6	2997.65
865.2421	1178.1421	3929.35	3049.8
865.3869	1180.0755	3982.35	3109.3
865.5317	1182.0082	4025	3153.45
865.6764	1183.9401	4021.25	3143.55
865.8212	1185.8713	3944.8	3072.5
865.9659	1187.8017	3860.4	2983.15
866.1106	1189.7315	3781.25	2908.55
866.2554	1191.6605	3729.35	2855.55
866.4001	1193.5888	3681.1	2807.75
866.5448	1195.5163	3653.1	2779.05
866.6895	1197.4432	3623.3	2747.4
866.8342	1199.3693	3599.55	2725.35
866.9789	1201.2947	3580.55	2704.25
867.1236	1203.2193	3565.2	2688.4
867.2683	1205.1432	3549.55	2672.85
867.413	1207.0664	3533.2	2659.85
867.5576	1208.9889	3529.75	2650.3
867.7023	1210.9106	3513.05	2639.05
867.847	1212.8316	3510.2	2635.05
867.9916	1214.7519	3519	2635.15
868.1363	1216.6715	3496.4	2621.5
868.2809	1218.5903	3492.15	2614.95
868.4255	1220.5084	3492.5	2617.75
868.5701	1222.4257	3515.8	2638.5
868.7148	1224.3424	3485.45	2610.3
868.8594	1226.2583	3491.35	2610.75
869.004	1228.1735	3495.7	2621.6
869.1486	1230.0879	3507.1	2630.45
869.2932	1232.0016	3522.2	2647.35
869.4377	1233.9146	3538.4	2659.75
869.5823	1235.8269	3533.05	2657.6
869.7269	1237.7384	3533.35	2658.05
869.8715	1239.6492	3531.05	2654.15
870.016	1241.5592	3531.15	2652.1
870.1606	1243.4686	3554.95	2679.4
870.3051	1245.3772	3597.25	2721.25
870.4496	1247.285	3631.3	2753.9
870.5941	1249.1922	3669.85	2793.85
870.7387	1251.0986	3713.6	2837.1
870.8832	1253.0042	3751.5	2874.5
871.0277	1254.9092	3794.6	2916.95
871.1722	1256.8134	3839.35	2961.3
871.3167	1258.7169	3886.35	3010.65
871.4611	1260.6196	3901.05	3025.6
871.6056	1262.5216	3924.7	3045.7
871.7501	1264.4229	3902.2	3026.5
871.8945	1266.3234	3887.9	3012.2
872.039	1268.2232	3843.6	2965.2
872.1834	1270.1223	3791.4	2912.15
872.3278	1272.0207	3750.1	2873.95
872.4723	1273.9183	3759.85	2875.2
872.6167	1275.8151	3747.3	2870.65
872.7611	1277.7113	3768.9	2888.7
872.9055	1279.6067	3813.5	2935.15
873.0499	1281.5014	3888.8	3008.9
873.1943	1283.3953	3990.9	3111.8
873.3386	1285.2885	4104.35	3228.05
873.483	1287.181	4197.65	3320.7
873.6274	1289.0727	4233.5	3357.45
873.7717	1290.9637	4208.25	3328.05
873.9161	1292.854	4143.9	3266.15
874.0604	1294.7435	4074.55	3196.5
874.2047	1296.6323	3993.8	3116.45
874.349	1298.5204	3926.7	3044.7
874.4933	1300.4077	3867.05	2989.8
874.6376	1302.2943	3807.65	2932.65
874.7819	1304.1802	3780.3	2902.75
874.9262	1306.0653	3760.25	2879
875.0705	1307.9497	3740.25	2861.65
875.2147	1309.8333	3712.15	2834.95
875.359	1311.7162	3682.75	2803.8
875.5032	1313.5984	3652.55	2772.85
875.6475	1315.4798	3652.45	2759.4
875.7917	1317.3605	3646.35	2761.25
875.9359	1319.2405	3636.55	2756.35
876.0801	1321.1197	3622.5	2742.45
876.2243	1322.9982	3599.65	2715.6
876.3685	1324.876	3537.55	2658.6
876.5127	1326.753	3483.25	2604.15
876.6569	1328.6293	3416.65	2537.3
876.801	1330.5048	3366.35	2485.45
876.9452	1332.3796	3297.2	2419.05
877.0893	1334.2537	3278.9	2375.05
877.2335	1336.127	3235	2355.2
877.3776	1337.9996	3195.75	2316.35
877.5217	1339.8714	3192.05	2312.4
877.6658	1341.7426	3195.6	2271
877.8099	1343.6129	3152.4	2272.6
877.954	1345.4826	3139.4	2259
878.0981	1347.3515	3121.4	2238.3
878.2422	1349.2196	3106	2226.7
878.3862	1351.087	3102.85	2223.85
878.5303	1352.9537	3099	2218.7
878.6743	1354.8197	3090.3	2212.1
878.8184	1356.6849	3095.6	2216.9
878.9624	1358.5493	3106.25	2227.55
879.1064	1360.4131	3117.5	2238.75
879.2504	1362.276	3131.1	2251.65
879.3944	1364.1383	3160.9	2282.1
879.5384	1365.9998	3161.1	2275.65
879.6823	1367.8606	3140.15	2259.2
879.8263	1369.7206	3120.75	2241.45
879.9702	1371.5799	3114.4	2233.6
880.1142	1373.4384	3116.6	2236.25
880.2581	1375.2962	3083.15	2202.3
880.402	1377.1533	3036.85	2157.3
880.5459	1379.0096	3000.75	2120.05
880.6898	1380.8652	2982.7	2103.15
880.8337	1382.7201	2949.9	2069.9
880.9776	1384.5742	2926.1	2048.75
881.1215	1386.4275	2893.55	2012.35
881.2653	1388.2802	2880.85	2002.8
881.4092	1390.132	2873.7	1992.8
881.553	1391.9832	2861.65	1981.45
881.6968	1393.8336	2851.15	1971.1
881.8406	1395.6832	2829	1949.8
881.9844	1397.5322	2820.5	1942.1
882.1282	1399.3803	2801.25	1917.1
882.272	1401.2278	2794.55	1913.4
882.4158	1403.0745	2791.4	1910.65
882.5595	1404.9204	2761.25	1882.05
882.7033	1406.7656	2748.4	1868.7
882.847	1408.6101	2748.65	1867.7
882.9908	1410.4538	2734.7	1853.4
883.1345	1412.2968	2726.05	1846.55
883.2782	1414.139	2721.35	1843.25
883.4219	1415.9805	2716.45	1835.95
883.5656	1417.8213	2739.45	1840.15
883.7092	1419.6613	2726.85	1848.15
883.8529	1421.5006	2741.55	1858.7
883.9965	1423.3391	2769.7	1890.95
884.1402	1425.1769	2785.9	1903.4
884.2838	1427.0139	2824.05	1941.8
884.4274	1428.8502	2867.3	1983.3
884.571	1430.6858	2906.1	2026.95
884.7146	1432.5206	2919.35	2038.7
884.8582	1434.3547	2916.4	2035.25
885.0018	1436.188	2897.5	2016.9
885.1453	1438.0206	2896.4	2014.9
885.2889	1439.8524	2865.9	1985.55
885.4324	1441.6835	2859.6	1977.3
885.5759	1443.5139	2874.95	1989.85
885.7194	1445.3435	2862.4	1983.4
885.8629	1447.1724	2859.7	1978.15
886.0064	1449.0005	2856.85	1979
886.1499	1450.8279	2837.05	1956.75
886.2933	1452.6545	2825.15	1944.1
886.4368	1454.4804	2814.7	1934.3
886.5802	1456.3056	2817.15	1929.15
886.7237	1458.13	2805.1	1926.2
886.8671	1459.9536	2798.15	1916.05
887.0105	1461.7766	2767.65	1886
887.1539	1463.5987	2730.25	1847.5
887.2972	1465.4202	2700.95	1820.85
887.4406	1467.2409	2663	1783.55
887.584	1469.0608	2648.95	1768.4
887.7273	1470.88	2619.85	1737.85
887.8706	1472.6984	2599.2	1719.55
888.0139	1474.5161	2580.1	1694.55
888.1572	1476.3331	2555.15	1675.05
888.3005	1478.1493	2544.15	1660.7
888.4438	1479.9648	2553.25	1672.65
888.5871	1481.7795	2548.15	1666.35
888.7303	1483.5935	2547.85	1669.15
888.8736	1485.4067	2535.05	1653.65
889.0168	1487.2192	2544.45	1663.35
889.16	1489.031	2529.3	1645.15
889.3032	1490.842	2513.25	1632.2
889.4464	1492.6522	2516.65	1636.6
889.5896	1494.4618	2511.35	1628.45
889.7327	1496.2705	2505.95	1624.4
889.8759	1498.0785	2489.95	1608.75
890.019	1499.8858	2483.5	1599.35
890.1622	1501.6924	2470.2	1590.3
890.3053	1503.4981	2478.05	1598.05
890.4484	1505.3032	2461.2	1579.1
890.5914	1507.1075	2443.95	1563.05
890.7345	1508.911	2445.8	1563.55
890.8776	1510.7138	2443.85	1562.05
891.0206	1512.5159	2418.35	1536.75
891.1637	1514.3172	2415.8	1533.85
891.3067	1516.1178	2407.45	1528.25
891.4497	1517.9176	2393.2	1508.1
891.5927	1519.7166	2372	1491.05
891.7357	1521.515	2383.6	1495.7
891.8786	1523.3126	2375.05	1491.9
892.0216	1525.1094	2364.5	1481.55
892.1645	1526.9055	2364.4	1484.2
892.3074	1528.7008	2338.75	1457.9
892.4503	1530.4954	2341.35	1459.6
892.5932	1532.2893	2327.15	1448.5
892.7361	1534.0824	2319.35	1435.4
892.879	1535.8747	2311.05	1428.35
893.0218	1537.6663	2299.2	1416.5
893.1647	1539.4572	2297.6	1415.9
893.3075	1541.2473	2298.15	1415.35
893.4503	1543.0367	2281.3	1399.5
893.5931	1544.8253	2280.6	1392.9
893.7359	1546.6132	2275.3	1390.9
893.8787	1548.4003	2284.7	1393.05
894.0214	1550.1867	2291.75	1402.95
894.1642	1551.9723	2279.35	1394.25
894.3069	1553.7572	2295.85	1413.55
894.4496	1555.5414	2291.65	1410.05
894.5923	1557.3247	2299.75	1417.6
894.735	1559.1074	2312	1431.25
894.8777	1560.8893	2333.75	1453.65
895.0204	1562.6705	2350.55	1472.45
895.163	1564.4509	2363	1482.7
895.3056	1566.2305	2364.3	1486.9
895.4482	1568.0094	2363.15	1482.85
895.5908	1569.7876	2356.6	1475.55
895.7334	1571.565	2348.05	1465.95
895.876	1573.3417	2347.85	1468.05
896.0186	1575.1176	2345.7	1465.5
896.1611	1576.8928	2366.9	1484.35
896.3036	1578.6672	2363.6	1485.1
896.4461	1580.4409	2364.6	1483.6
896.5886	1582.2138	2381.95	1497.8
896.7311	1583.986	2410.45	1529.1
896.8736	1585.7575	2430.35	1550.4
897.0161	1587.5282	2442.4	1564.2
897.1585	1589.2981	2467.65	1587.4
897.3009	1591.0673	2457.6	1577.05
897.4433	1592.8358	2476.6	1595.4
897.5857	1594.6035	2471.05	1587.45
897.7281	1596.3704	2444.8	1564.8
897.8705	1598.1366	2438.1	1556.95
898.0128	1599.9021	2408.8	1528.1
898.1551	1601.6668	2395.3	1512.8
898.2975	1603.4308	2379.65	1497.45
898.4398	1605.194	2377.35	1490.7
898.5821	1606.9564	2380	1499.5
898.7243	1608.7182	2419.7	1534.85
898.8666	1610.4791	2468.15	1588.85
899.0088	1612.2394	2520.65	1641.3
899.1511	1613.9988	2583.8	1701.75
899.2933	1615.7576	2660.25	1779.35
899.4355	1617.5156	2662.35	1776.1
899.5776	1619.2728	2654.1	1772.65
899.7198	1621.0293	2589.05	1708.9
899.862	1622.785	2510.25	1626.65
900.0041	1624.54	2408.25	1525
900.1462	1626.2942	2342.7	1461.6
900.2883	1628.0477	2269.05	1385.55
900.4304	1629.8005	2212.8	1328.15
900.5725	1631.5525	2161.9	1279.55
900.7145	1633.3037	2117.85	1237.85
900.8566	1635.0542	2093.6	1214.75
900.9986	1636.804	2057.45	1176.5
901.1406	1638.553	2088.85	1148.8
901.2826	1640.3013	2025.8	1146.05
901.4245	1642.0488	2004.95	1124.85
901.5665	1643.7955	1990.25	1109.95
901.7085	1645.5416	1973.5	1091.55
901.8504	1647.2868	1964.65	1084.5
901.9923	1649.0313	1960.25	1079.65
902.1342	1650.7751	1952.55	1068.5
902.2761	1652.5181	1937.5	1059.9
902.4179	1654.2604	1938.7	1056.95
902.5598	1656.0019	1929.4	1050.2
902.7016	1657.7427	1941.85	1061.1
902.8434	1659.4828	1954.5	1074.05
902.9852	1661.222	1977.3	1093.75
903.127	1662.9606	1982.7	1100.8
903.2687	1664.6984	2010.05	1127.95
903.4105	1666.4354	2012.25	1130.7
903.5522	1668.1717	1997	1115.55
903.6939	1669.9072	1962.3	1080.15
903.8356	1671.642	1927.75	1045.5
903.9773	1673.3761	1890.5	1011.5
904.119	1675.1094	1863.85	982.25
904.2606	1676.8419	1858.4	978.5
904.4022	1678.5737	1838.8	958.8
904.5439	1680.3048	1831.05	950.15
904.6855	1682.0351	1806.25	926.75
904.827	1683.7646	1811.25	925.4
904.9686	1685.4934	1794.75	916.55
905.1101	1687.2215	1797.35	914.6
905.2517	1688.9488	1783.4	900.45
905.3932	1690.6754	1771.85	892.4
905.5347	1692.4012	1770.35	889.2
905.6761	1694.1263	1761.1	881.05
905.8176	1695.8506	1757.25	876.05
905.9591	1697.5742	1756	874.35
906.1005	1699.297	1753.7	874.55
906.2419	1701.0191	1748.25	866.3
906.3833	1702.7404	1742.3	862.1
906.5246	1704.461	1740.65	859.2
906.666	1706.1808	1723.75	841.2
906.8073	1707.8999	1723.25	841.65
906.9487	1709.6182	1721.9	840.8
907.09	1711.3358	1718.55	836.5
907.2313	1713.0527	1698.05	820.35
907.3725	1714.7688	1718.4	832.3
907.5138	1716.4841	1703.15	819.95
907.655	1718.1987	1707.6	822.85
907.7962	1719.9126	1691.7	810.95
907.9374	1721.6257	1693.2	809.15
908.0786	1723.338	1688.5	806.95
908.2198	1725.0496	1690.75	808.85
908.3609	1726.7605	1687.2	805.4
908.502	1728.4706	1683.05	800.6
908.6431	1730.18	1679.65	797.1
908.7842	1731.8886	1680.5	797.9
908.9253	1733.5964	1688.95	802.05
909.0664	1735.3036	1676.6	792.95
909.2074	1737.0099	1665.7	784.9
909.3484	1738.7156	1671.85	791.95
909.4894	1740.4204	1663.15	778.45
909.6304	1742.1246	1666.25	784.25
909.7714	1743.8279	1656.25	778
909.9123	1745.5306	1660.4	777.95
910.0532	1747.2325	1663.75	783.2
910.1941	1748.9336	1654.15	774.1
910.335	1750.634	1654.35	771.3
910.4759	1752.3336	1652.85	772.5
910.6168	1754.0325	1643.05	762.6
910.7576	1755.7307	1644.05	763.05
910.8984	1757.4281	1648.8	765.85
911.0392	1759.1247	1662.7	773.6
911.18	1760.8206	1647.15	760.95
911.3208	1762.5158	1646.75	759.95
911.4615	1764.2102	1637.1	756.8
911.6022	1765.9039	1633.25	750.55
911.7429	1767.5968	1645.8	762.25
911.8836	1769.289	1629.2	748.85
912.0243	1770.9804	1633.65	752.35
912.1649	1772.6711	1628.05	744.95
912.3056	1774.361	1627.6	747.6
912.4462	1776.0502	1626.85	747.15
912.5868	1777.7386	1625.5	741.1
912.7274	1779.4263	1620.45	737.8
912.8679	1781.1132	1623.6	743.3
913.0084	1782.7994	1610.9	728.45
913.149	1784.4849	1617.6	735.8
913.2895	1786.1696	1613.25	725.15
913.4299	1787.8535	1610.95	729
913.5704	1789.5367	1607.4	727.5
913.7108	1791.2192	1601.8	720.25
913.8513	1792.9009	1619	712.15
913.9917	1794.5818	1604.1	722.65
914.132	1796.2621	1595.85	715.5
914.2724	1797.9415	1591.8	710.75
914.4128	1799.6202	1595.1	714.6
914.5531	1801.2982	1593.3	712.3
914.6934	1802.9755	1587.05	705.6
914.8337	1804.6519	1593.7	713.45
914.9739	1806.3277	1582.3	701.2
915.1142	1808.0027	1576.45	695
915.2544	1809.6769	1566.1	684.75
915.3946	1811.3504	1576.45	694.2
915.5348	1813.0231	1572.1	689.5
915.675	1814.6951	1570.45	688.2
915.8151	1816.3664	1576.2	692.95
915.9553	1818.0369	1575.4	691.4
916.0954	1819.7067	1569.65	691.9
916.2355	1821.3757	1573.55	689.65
916.3755	1823.044	1559.45	678.9
916.5156	1824.7115	1569.8	688.55
916.6556	1826.3783	1559.2	679.85
916.7956	1828.0443	1555.1	674.85
916.9356	1829.7096	1552.3	670.6
917.0756	1831.3741	1555.75	669.95
917.2155	1833.0379	1549.1	667.05
917.3555	1834.701	1552.1	670.15
917.4954	1836.3633	1560.65	678
917.6353	1838.0248	1537.55	655.6
917.7751	1839.6856	1548.7	667.2
917.915	1841.3457	1542.45	661.3
918.0548	1843.005	1541.55	661.25
918.1946	1844.6636	1534.45	653.2
918.3344	1846.3214	1539.25	658.15
918.4742	1847.9785	1539.2	658.15
918.6139	1849.6349	1531.95	649.65
918.7537	1851.2904	1539.1	647.55
918.8934	1852.9453	1526.3	644.7
919.0331	1854.5994	1531.75	648.05
919.1727	1856.2528	1532.45	646.35
919.3124	1857.9054	1521.1	640.25
919.452	1859.5572	1521.45	639.85
919.5916	1861.2083	1519.1	634.65
919.7312	1862.8587	1518.5	636
919.8708	1864.5084	1520.55	639.1
920.0103	1866.1572	1515.75	636.7
920.1498	1867.8054	1513.8	631.45
920.2893	1869.4528	1513	630.25
920.4288	1871.0994	1507.05	626.95
920.5683	1872.7453	1502.55	621.45
920.7077	1874.3905	1507.45	622.15
920.8471	1876.0349	1505.1	622.25
920.9865	1877.6786	1505.15	623.9
921.1259	1879.3215	1499.8	621
921.2653	1880.9637	1504.05	620.8
921.4046	1882.6051	1500.95	619.6
921.5439	1884.2458	1499.5	616.4
921.6832	1885.8858	1492.35	611.05
921.8225	1887.525	1499.2	615.9
921.9617	1889.1634	1494.4	615.4
922.101	1890.8011	1491	609.2
922.2402	1892.4381	1489.75	608.8
922.3794	1894.0743	1482.05	601.65
922.5185	1895.7098	1480.95	599.15
922.6577	1897.3446	1477	595.55
922.7968	1898.9786	1482.25	596.15
922.9359	1900.6118	1477.65	596.3
923.075	1902.2443	1487.45	603.9
923.214	1903.8761	1475.25	593.95
923.3531	1905.5071	1472.65	588.4
923.4921	1907.1374	1475.75	594.6
923.6311	1908.7669	1471.8	591.85
923.77	1910.3957	1471.5	590.85
923.909	1912.0237	1464.15	581.7
924.0479	1913.651	1471.05	588.25
924.1868	1915.2776	1457.75	578.65
924.3257	1916.9034	1454	573.55
924.4646	1918.5285	1466.3	585.3
924.6034	1920.1528	1453.25	570.55
924.7422	1921.7764	1452.7	572.35
924.881	1923.3992	1446.7	565.75
925.0198	1925.0213	1447	566.75
925.1586	1926.6427	1435.7	555.95
925.2973	1928.2633	1509.4	556.7
925.436	1929.8832	1452.25	568.75
925.5747	1931.5023	1440.35	559.95
925.7134	1933.1207	1445.5	562.55
925.852	1934.7383	1435.75	553.4
925.9906	1936.3552	1436.4	555.3
926.1292	1937.9714	1433.5	552.5
926.2678	1939.5868	1435.45	551.4
926.4064	1941.2015	1430.2	547.65
926.5449	1942.8154	1424.35	541.6
926.6834	1944.4286	1422.6	541.35
926.8219	1946.041	1452.3	547.15
926.9604	1947.6528	1429.1	543.3
927.0988	1949.2637	1419.6	540.45
927.2372	1950.8739	1427.75	545.65
927.3756	1952.4834	1423.5	542.05
927.514	1954.0921	1423.4	539.65
927.6523	1955.7001	1417.5	529.9
927.7907	1957.3074	1416.45	535.5
927.929	1958.9139	1412.1	533.15
928.0673	1960.5197	1414.25	533.5
928.2055	1962.1247	1408.95	527.05
928.3438	1963.729	1406.75	526.25
928.482	1965.3325	1426.05	519.8
928.6202	1966.9353	1398.4	517.4
928.7584	1968.5374	1400.65	518.85
928.8965	1970.1387	1400.35	520.7
929.0346	1971.7393	1399.15	517.35
929.1727	1973.3392	1395.7	513.8
929.3108	1974.9383	1397.1	514.05
929.4489	1976.5366	1386.75	505.75
929.5869	1978.1342	1397.9	514.7
929.7249	1979.7311	1390.65	508.75
929.8629	1981.3273	1387.75	507.8
930.0009	1982.9227	1390.35	506.15
930.1388	1984.5173	1390.15	509.7
930.2767	1986.1112	1389.9	507.95
930.4146	1987.7044	1382.25	502.3
930.5525	1989.2968	1380.05	497.95
930.6904	1990.8885	1388.3	501.7
930.8282	1992.4795	1380	497.2
930.966	1994.0697	1379.15	497.8
931.1038	1995.6592	1377.05	495.9
931.2415	1997.2479	1377.2	495.95
931.3793	1998.8359	1380.05	497.3
931.517	2000.4232	1370.55	490.25
931.6547	2002.0097	1372.3	491.1
931.7923	2003.5955	1374.7	492.05
931.93	2005.1805	1372.95	489.2
932.0676	2006.7648	1371.65	491.35
932.2052	2008.3484	1371.95	490.85
932.3427	2009.9312	1371.15	488.1
932.4803	2011.5133	1368.6	490.1
932.6178	2013.0946	1365.6	484.05
932.7553	2014.6752	1362	481.2
932.8928	2016.2551	1363.95	483.9
933.0302	2017.8342	1362.65	480.05
933.1676	2019.4126	1359.05	479.95
933.305	2020.9902	1362.5	482.1
933.4424	2022.5672	1350.9	470.6
933.5798	2024.1433	1362.9	475.75
933.7171	2025.7188	1356.8	475.45
933.8544	2027.2935	1358.2	475.15
933.9917	2028.8674	1354.35	473.95
934.129	2030.4406	1353.35	472.6
934.2662	2032.0131	1353.45	473.15
934.4034	2033.5849	1357.3	474.05
934.5406	2035.1559	1344.05	462.75
934.6778	2036.7261	1351.3	469.7
934.8149	2038.2957	1358.3	478.65
934.952	2039.8645	1346	464.9
935.0891	2041.4325	1351.7	466.2
935.2262	2042.9998	1339.35	459.5
935.3632	2044.5664	1351.85	468.8
935.5002	2046.1323	1343.8	463.5
935.6372	2047.6974	1344.15	462.25
935.7742	2049.2617	1346.25	465.45
935.9111	2050.8254	1339.6	453.4
936.048	2052.3883	1344.15	462.4
936.1849	2053.9504	1347.75	466.2
936.3218	2055.5118	1342.85	459.75
936.4586	2057.0725	1338.4	454.05
936.5955	2058.6325	1341.05	459.4
936.7323	2060.1917	1340.7	461.55
936.869	2061.7502	1340.8	455.75
937.0058	2063.3079	1343.25	462.65
937.1425	2064.8649	1340.7	457.8
937.2792	2066.4212	1337.4	456.3
937.4159	2067.9767	1336.7	458.25
937.5525	2069.5315	1333.3	451.45
937.6891	2071.0856	1334.2	452.55
937.8257	2072.6389	1334.25	453.15
937.9623	2074.1915	1331.45	450.9
938.0989	2075.7433	1329.1	447.15
938.2354	2077.2945	1325.45	445.5
938.3719	2078.8448	1329.65	446.55
938.5084	2080.3945	1324.4	445.75
938.6448	2081.9434	1325.4	444
938.7812	2083.4916	1326.1	444.45
938.9176	2085.039	1322.75	440.9
939.054	2086.5857	1321.4	437.9
939.1903	2088.1317	1318.7	438.75
939.3267	2089.677	1324.4	443.2
939.463	2091.2215	1326.5	445
939.5992	2092.7652	1316.8	433.4
939.7355	2094.3083	1325.65	443.65
939.8717	2095.8506	1321.85	442.35
940.0079	2097.3921	1321.4	441
940.1441	2098.933	1318.95	438.7
940.2802	2100.4731	1317.6	436.15
940.4163	2102.0124	1321.35	434.95
940.5524	2103.5511	1314.9	434.75
940.6885	2105.089	1310.7	428.75
940.8245	2106.6261	1315.95	432.5
940.9606	2108.1626	1312.5	430.6
941.0965	2109.6983	1341.2	431.95
941.2325	2111.2332	1315.3	433.4
941.3684	2112.7675	1318.15	436.6
941.5044	2114.301	1316.35	432.75
941.6403	2115.8337	1316.2	436.6
941.7761	2117.3657	1314.95	434.5
941.912	2118.897	1312.35	430.25
942.0478	2120.4276	1318.5	429.6
942.1835	2121.9575	1311.3	428.7
942.3193	2123.4866	1322.4	426.35
942.455	2125.0149	1310.5	425.6
942.5907	2126.5426	1306.8	427.35
942.7264	2128.0695	1308.55	422.45
942.8621	2129.5956	1311.35	431.6
942.9977	2131.1211	1302.3	416.1
943.1333	2132.6458	1302.35	420.8
943.2689	2134.1698	1305.8	424.5
943.4044	2135.693	1305.55	421.7
943.54	2137.2155	1304.05	420.85
943.6755	2138.7373	1297.35	416.45
943.8109	2140.2584	1297.65	416.55
943.9464	2141.7787	1303.4	416.35
944.0818	2143.2983	1293.7	412.55
944.2172	2144.8171	1292.6	410.8
944.3526	2146.3353	1301.35	417.65
944.4879	2147.8527	1290	409.4
944.6232	2149.3693	1293.9	411.2
944.7585	2150.8853	1296.2	414.6
944.8938	2152.4005	1295.8	415.3
945.029	2153.9149	1286.5	404.45
945.1642	2155.4287	1398.65	408.9
945.2994	2156.9417	1298.75	416.7
945.4346	2158.454	1286.4	401.9
945.5697	2159.9655	1284.85	402.7
945.7048	2161.4764	1289.75	409.25
945.8399	2162.9865	1285.25	404.95
945.9749	2164.4958	1275.25	393.25
946.1099	2166.0045	1286.75	402.55
946.2449	2167.5124	1286.8	405.2
946.3799	2169.0195	1283.15	403.85
946.5148	2170.526	1280	398.2
946.6498	2172.0317	1279	395.45
946.7846	2173.5367	1284.85	400.7
946.9195	2175.0409	1278.95	398.9
947.0543	2176.5445	1278.5	398.85
947.1891	2178.0473	1277.95	396.5
947.3239	2179.5494	1279.85	393
947.4587	2181.0507	1275	394.05
947.5934	2182.5513	1281.05	397.9
947.7281	2184.0512	1273.55	392.25
947.8628	2185.5504	1272.35	389
947.9974	2187.0488	1269.75	386.85
948.132	2188.5465	1268.1	387.5
948.2666	2190.0435	1263.7	382.15
948.4012	2191.5397	1268.55	387.75
948.5357	2193.0353	1267.95	387.5
948.6702	2194.5301	1259.85	375.2
948.8047	2196.0241	1267.6	385.15
948.9392	2197.5175	1260.8	377.55
949.0736	2199.0101	1267.2	380.85
949.208	2200.502	1259.1	377.8
949.3424	2201.9931	1261.05	380.25
949.4767	2203.4835	1259.2	375.15
949.611	2204.9733	1277.3	379.45
949.7453	2206.4622	1258.25	375.15
949.8796	2207.9505	1260.95	378.15
950.0138	2209.438	1249.35	369.8
950.148	2210.9248	1251.4	368.75
950.2822	2212.4109	1249.8	370.45
950.4164	2213.8962	1244.45	357.25
950.5505	2215.3809	1248.45	365.75
950.6846	2216.8648	1253.65	370.95
950.8186	2218.3479	1243.75	358.6
950.9527	2219.8304	1251.05	367.35
951.0867	2221.3121	1242.45	358.85
951.2207	2222.7931	1240.5	361.15
951.3546	2224.2733	1241.3	360.4
951.4886	2225.7529	1239.35	356.85
951.6225	2227.2317	1240.85	357.4
951.7563	2228.7098	1239.2	359.85
951.8902	2230.1872	1240.8	358.75
952.024	2231.6638	1235.65	351.85
952.1578	2233.1397	1245.2	360
952.2916	2234.6149	1236.65	354.7
952.4253	2236.0894	1234.1	350.85
952.559	2237.5632	1230.55	349.8
952.6927	2239.0362	1231.5	350.3
952.8263	2240.5085	1230.75	349.9
952.9599	2241.9801	1229	346.8
953.0935	2243.4509	1224.35	344
953.2271	2244.921	1224.95	341.9
953.3606	2246.3904	1229.25	345.45
953.4941	2247.8591	1222	340.5
953.6276	2249.3271	1221.45	340.1
953.7611	2250.7943	1223.2	340.05
953.8945	2252.2608	1217.95	336.55
954.0279	2253.7266	1213.2	331.6
954.1612	2255.1917	1221.8	339
954.2946	2256.656	1217.6	334
954.4279	2258.1197	1219.9	338.35
954.5612	2259.5826	1217.05	333.1
954.6944	2261.0447	1217.7	336.9
954.8276	2262.5062	1215.25	332.45
954.9608	2263.9669	1215.05	332.15
955.094	2265.4269	1218.75	338.65
955.2271	2266.8862	1206.45	325.85
955.3602	2268.3448	1210.1	328.1
955.4933	2269.8026	1211.15	328.4
955.6264	2271.2598	1210.25	329.55
955.7594	2272.7162	1205.4	322.9
955.8924	2274.1719	1210.15	328.8
956.0253	2275.6268	1204.95	324
956.1583	2277.0811	1208.6	327.55
956.2912	2278.5346	1202.2	321.4
956.4241	2279.9874	1204.55	322.25
956.5569	2281.4395	1201.7	322.65
956.6897	2282.8908	1203.85	317.05
956.8225	2284.3414	1203.35	321.7
956.9553	2285.7914	1192.65	310.95
957.088	2287.2406	1200.65	316.2
957.2207	2288.689	1198.6	317.8
957.3534	2290.1368	1202.45	320.2
957.486	2291.5838	1200.25	315.65
957.6186	2293.0302	1197.95	314.35
957.7512	2294.4758	1193.2	311.8
957.8838	2295.9206	1192.5	309.55
958.0163	2297.3648	1194.35	311.95
958.1488	2298.8082	1192.85	310.5
958.2813	2300.251	1194.65	313.3
958.4137	2301.693	1193.65	308.55
958.5461	2303.1343	1188.55	307.8
958.6785	2304.5748	1187.2	304.8
958.8108	2306.0147	1187.6	303.9
958.9432	2307.4538	1181.7	297.8
959.0754	2308.8922	1185.55	305.1
959.2077	2310.3299	1184.1	302.6
959.3399	2311.7669	1185.45	303.6
959.4721	2313.2031	1187.5	305.65
959.6043	2314.6387	1184.7	303.25
959.7365	2316.0735	1183.9	303.1
959.8686	2317.5076	1183.8	301.95
960.0006	2318.941	1180.95	299.8
960.1327	2320.3737	1177.25	294.35
960.2647	2321.8056	1180.7	296.35
960.3967	2323.2369	1178.65	297.3
960.5287	2324.6674	1185	299.1
960.6606	2326.0972	1178.2	295.75
960.7925	2327.5263	1180.6	299.05
960.9244	2328.9547	1183.6	301.15
961.0562	2330.3823	1178.35	295.35
961.1881	2331.8092	1176.45	291.3
961.3198	2333.2355	1173.85	291.55
961.4516	2334.661	1176.7	294.55
961.5833	2336.0858	1173.5	289.65
961.715	2337.5098	1168.4	287.35
961.8467	2338.9332	1164.8	281.8
961.9783	2340.3558	1166.55	280.1
962.1099	2341.7778	1163.25	282.4
962.2415	2343.199	1164.65	282.8
962.373	2344.6195	1159.95	277.35
962.5045	2346.0393	1162.25	280.3
962.636	2347.4583	1162.3	282.25
962.7675	2348.8767	1163.4	280.3
962.8989	2350.2943	1161.25	279.05
963.0303	2351.7113	1165.65	282.55
963.1617	2353.1275	1158.15	275.1
963.293	2354.543	1181.1	274.8
963.4243	2355.9578	1150.75	268.2
963.5556	2357.3718	1149.6	266.8
963.6868	2358.7852	1160.4	275.65
963.818	2360.1978	1152.85	268.45
963.9492	2361.6098	1148.6	266.7
964.0803	2363.021	1150.7	264.9
964.2114	2364.4315	1149.15	266.1
964.3425	2365.8413	1157.05	269.3
964.4736	2367.2504	1143.15	263.6
964.6046	2368.6587	1143.3	260.85
964.7356	2370.0664	1147.75	266.35
964.8666	2371.4733	1150.05	266.7
964.9975	2372.8795	1140.65	260.6
965.1284	2374.285	1140.95	259.05
965.2593	2375.6899	1140.6	257.25
965.3901	2377.0939	1144.2	262.95
965.5209	2378.4973	1141.5	258.75
965.6517	2379.9	1135.35	252.35
965.7825	2381.3019	1135.65	254.2
965.9132	2382.7032	1136.55	255.3
966.0439	2384.1037	1136.45	255.45
966.1745	2385.5035	1138.05	256.25
966.3051	2386.9027	1129.2	248.3
966.4357	2388.3011	1138.65	251.2
966.5663	2389.6987	1138.85	257.4
966.6968	2391.0957	1129.55	249.2
966.8273	2392.492	1128.65	247.65
966.9578	2393.8876	1128.75	245.4
967.0882	2395.2824	1128	243.65
967.2186	2396.6765	1121.7	239.4
967.349	2398.07	1124.25	242.65
967.4793	2399.4627	1124.75	241.6
967.6097	2400.8547	1124.4	242.85
967.7399	2402.246	1124.85	236.5
967.8702	2403.6366	1122.6	240.95
968.0004	2405.0265	1127	245.05
968.1306	2406.4156	1121.85	235.3
968.2607	2407.8041	1120.75	235.85
968.3909	2409.1918	1119.65	233.3
968.521	2410.5789	1115.1	234.15
968.651	2411.9652	1112.9	227.9
968.781	2413.3508	1112.7	229.3
968.911	2414.7358	1111.85	228.95
969.041	2416.12	1109.65	229.55
969.1709	2417.5035	1110.65	231.45
969.3008	2418.8863	1107.55	223.9
969.4307	2420.2684	1111.25	227.95
969.5606	2421.6497	1109.55	225.95
969.6904	2423.0304	1103.55	222
969.8201	2424.4104	1105	222.45
969.9499	2425.7896	1106	222.35
970.0796	2427.1682	1109.35	226.5
970.2093	2428.546	1104.65	219.55
970.3389	2429.9232	1105.05	220.25
970.4685	2431.2996	1101.1	221.5
970.5981	2432.6753	1105.9	222.9
970.7277	2434.0503	1104.45	221.15
970.8572	2435.4246	1100.1	217.7
970.9867	2436.7982	1102.7	219.15
971.1161	2438.1711	1100.4	219.55
971.2456	2439.5433	1099.15	216.4
971.375	2440.9148	1106.25	219.45
971.5043	2442.2856	1086.85	205.5
971.6336	2443.6557	1096.2	211.05
971.7629	2445.025	1097.35	215.4
971.8922	2446.3937	1096	211.9
972.0214	2447.7617	1094.55	212.55
972.1506	2449.1289	1095.05	213.05
972.2798	2450.4955	1095.95	208.3
972.4089	2451.8613	1093	212.85
972.538	2453.2265	1091.3	208.15
972.6671	2454.5909	1096.7	212.9
972.7961	2455.9546	1088.55	206.5
972.9251	2457.3177	1090.6	209.35
973.0541	2458.68	1090.4	206.5
973.1831	2460.0416	1089.6	206.25
973.312	2461.4025	1087.05	201.9
973.4408	2462.7627	1096.15	203.15
973.5697	2464.1222	1088.05	206.55
973.6985	2465.4811	1086.15	202.9
973.8273	2466.8392	1083.3	202
973.956	2468.1966	1088.2	205.35
974.0847	2469.5533	1087.85	204.7
974.2134	2470.9093	1088.25	206.05
974.3421	2472.2645	1087.05	203.4
974.4707	2473.6191	1080.95	200
974.5993	2474.973	1080.95	198.35
974.7278	2476.3262	1083.95	200.25
974.8563	2477.6787	1081.15	200.75
974.9848	2479.0305	1074.15	193.05
975.1132	2480.3816	1083.3	200.45
975.2417	2481.7319	1080.85	196.35
975.37	2483.0816	1079.45	194.15
975.4984	2484.4306	1074.4	193.2
975.6267	2485.7789	1079.05	197.2
975.755	2487.1264	1075.3	192.85
975.8833	2488.4733	1071.2	186.8
976.0115	2489.8195	1086.5	187.3
976.1397	2491.165	1074.8	190.15
976.2678	2492.5097	1075.15	189.9
976.3959	2493.8538	1072.25	191.7
976.524	2495.1972	1071.1	190.75
976.6521	2496.5398	1071.65	189.15
976.7801	2497.8818	1069.7	186.5
976.9081	2499.2231	1067.25	186
977.036	2500.5637	1073.25	189.15
977.164	2501.9035	1067.65	183.9
977.2918	2503.2427	1074.65	188.45
977.4197	2504.5812	1061.35	180.15
977.5475	2505.919	1062.9	176.9
977.6753	2507.256	1070.1	189.7
977.8031	2508.5924	1061.45	180
977.9308	2509.9281	1070.35	181.55
978.0585	2511.2631	1065.75	184.3
978.1861	2512.5974	1060.65	177.1
978.3137	2513.9309	1060.85	180.05
978.4413	2515.2638	1088.35	177.45
978.5689	2516.596	1063.35	180.65
978.6964	2517.9275	1060.05	177.3
978.8239	2519.2583	1060.4	176.35
978.9513	2520.5884	1062.3	177.9
979.0788	2521.9178	1057.65	173.8
979.2062	2523.2465	1052.8	171.6
979.3335	2524.5745	1057.95	175.55
979.4608	2525.9018	1060.45	178.15
979.5881	2527.2284	1056.05	174.9
979.7154	2528.5543	1051.55	171.35
979.8426	2529.8796	1053.7	171.15
979.9698	2531.2041	1056.7	175.1
980.0969	2532.5279	1051	168.9
980.224	2533.851	1049.35	165.2
980.3511	2535.1735	1050.05	167.05
980.4781	2536.4952	1051.55	168.9
980.6052	2537.8163	1051.65	169.25
980.7321	2539.1366	1050.6	169.7
980.8591	2540.4562	1048.5	165.05
980.986	2541.7752	1047.4	167.15
981.1129	2543.0935	1048.15	165.85
981.2397	2544.411	1050.35	166.95
981.3665	2545.7279	1048.05	167.1
981.4933	2547.0441	1043.9	161.3
981.62	2548.3596	1048.65	163.55
981.7467	2549.6744	1050.45	166.9
981.8734	2550.9885	1044.8	159.7
982.0001	2552.3019	1046.2	165.35
982.1267	2553.6146	1048.45	165.4
982.2532	2554.9266	1042.6	160.05
982.3798	2556.2379	1043.95	158.05
982.5063	2557.5485	1040.4	158.6
982.6327	2558.8585	1051.15	163.45
982.7592	2560.1677	1049.4	163.6
982.8856	2561.4762	1044.75	163.6
983.0119	2562.7841	1046.25	160.15
983.1383	2564.0913	1038.25	157.5
983.2646	2565.3977	1039.35	156.4
983.3908	2566.7035	1038.5	158.1
983.517	2568.0086	1042.6	158.4
983.6432	2569.313	1033.6	151.35
983.7694	2570.6167	1039.85	153.2
983.8955	2571.9197	1040.75	160.8
984.0216	2573.222	1040.8	155.1
984.1476	2574.5236	1038.1	154.85
984.2737	2575.8246	1040.55	155.55
984.3996	2577.1248	1038.25	153.3
984.5256	2578.4244	1035.1	153.85
984.6515	2579.7232	1033.1	148.65
984.7774	2581.0214	1066.35	154.65
984.9032	2582.3189	1034.5	152.3
985.029	2583.6157	1053.1	156.05
985.1548	2584.9118	1032.8	151
985.2806	2586.2072	1033.05	151.35
985.4063	2587.5019	1034.55	152.45
985.5319	2588.7959	1034.8	151.45
985.6576	2590.0893	1038.2	154.1
985.7832	2591.3819	1032.6	151.1
985.9087	2592.6739	1031.45	149.75
986.0343	2593.9652	1033.25	151.8
986.1597	2595.2557	1029.4	148.25
986.2852	2596.5456	1032.75	146.45
986.4106	2597.8348	1029.55	150.35
986.536	2599.1234	1029.55	147.5
986.6614	2600.4112	1031.55	149.1
986.7867	2601.6983	1034.15	149.75
986.912	2602.9848	1031.65	148.95
987.0372	2604.2705	1032	142.1
987.1624	2605.5556	1028.55	146.95
987.2876	2606.84	1025.9	144.2
987.4128	2608.1237	1027.65	143.2
987.5379	2609.4067	1023.4	140.55
987.6629	2610.689	1032.2	142.2
987.788	2611.9707	1027.5	142.45
987.913	2613.2516	1027.3	140.85
988.0379	2614.5319	1020.8	137.95
988.1629	2615.8115	1020.75	136.75
988.2878	2617.0903	1020.95	135.3
988.4126	2618.3685	1023.75	140.35
988.5375	2619.6461	1019.4	138.35
988.6622	2620.9229	1017.7	136.6
988.787	2622.199	1016.1	132.75
988.9117	2623.4745	1020.55	136.9
989.0364	2624.7493	1018.25	136.45
989.161	2626.0234	1014.65	134.65
989.2857	2627.2968	1012.55	128.1
989.4102	2628.5695	1017.75	134.9
989.5348	2629.8415	1012.75	128.9
989.6593	2631.1128	1012.65	129.75
989.7837	2632.3835	1012.2	129.95
989.9082	2633.6535	1011.95	129
990.0326	2634.9228	1013	130
990.1569	2636.1914	1006.6	122.25
990.2812	2637.4593	1013.35	129.35
990.4055	2638.7265	1008.65	124.25
990.5298	2639.9931	1007.9	126.6
990.654	2641.259	1013.05	129.25
990.7782	2642.5242	1010.1	126.6
990.9023	2643.7887	1008.55	125.45
991.0264	2645.0525	1009.55	126.65
991.1505	2646.3156	1023.6	128.6
991.2745	2647.5781	1005.9	123.35
991.3985	2648.8398	1002.9	122.25
991.5225	2650.1009	1029.1	121.8
991.6464	2651.3613	1004.35	122.8
991.7703	2652.6211	1005.4	124.75
991.8942	2653.8801	1003.15	121.9
992.018	2655.1385	1002.75	116.5
992.1418	2656.3961	1002.2	120.65
992.2655	2657.6531	1004.8	122.55
992.3892	2658.9094	1002.2	118.25
992.5129	2660.1651	999.9	119.2
992.6366	2661.42	1004.3	121.25
992.7602	2662.6743	1002.35	118.9
992.8837	2663.9279	1003.1	121.15
993.0073	2665.1808	1000.15	117.1
993.1307	2666.433	998.6	114.05
993.2542	2667.6846	1002	120.85
993.3776	2668.9354	1005.55	121.1
993.501	2670.1856	998.5	116.25
993.6244	2671.4351	995.65	113.05
993.7477	2672.6839	998.95	116.6
993.8709	2673.9321	1001.5	119.8
993.9942	2675.1795	995.6	112.45
994.1174	2676.4263	1000.2	120
994.2405	2677.6724	998.05	116.45
994.3637	2678.9179	1001.8	119.65
994.4868	2680.1626	995.55	114.2
994.6098	2681.4067	997.65	115.5
994.7328	2682.6501	999.35	116.7
994.8558	2683.8928	998.6	117.25
994.9788	2685.1348	994.95	112.75
995.1017	2686.3761	993.3	110.9
995.2245	2687.6168	994.8	114.7
995.3474	2688.8568	998.6	115.65
995.4702	2690.0961	993.5	113.15
995.5929	2691.3348	991.25	107.7
995.7156	2692.5727	991.65	108.5
995.8383	2693.81	994.25	113.05
995.961	2695.0466	993.35	112.25
996.0836	2696.2826	993.45	111
996.2062	2697.5178	990.35	108
996.3287	2698.7524	985.85	102.45
996.4512	2699.9863	995.95	111.65
996.5737	2701.2195	985.9	105.75
996.6961	2702.452	990.45	106.6
996.8185	2703.6839	987.15	104.3
996.9408	2704.9151	986.9	105.7
997.0631	2706.1456	984	100.55
997.1854	2707.3755	993.15	111.45
997.3077	2708.6046	992.25	106.75
997.4299	2709.8331	990.3	105.65
997.552	2711.0609	990.85	110.8
997.6742	2712.2881	987.95	106.6
997.7963	2713.5145	988.9	105.7
997.9183	2714.7403	986.8	105.7
998.0403	2715.9654	989.85	106
998.1623	2717.1899	1000.95	104.95
998.2842	2718.4136	991.8	112.05
998.4062	2719.6367	989	106.3
998.528	2720.8591	999.8	109.55
998.6498	2722.0809	994	111.5
998.7716	2723.3019	994	109.1
998.8934	2724.5223	988.1	103.65
999.0151	2725.7421	990.25	105.75
999.1368	2726.9611	990.15	104.85
999.2584	2728.1795	991.55	105.1
999.38	2729.3972	986.35	105
999.5016	2730.6142	992.9	104.25
999.6231	2731.8306	984.85	102.7
999.7446	2733.0462	987.4	105.3
999.8661	2734.2612	989.35	100.85
999.9875	2735.4756	981.65	97.7
1000.1089	2736.6892	984.05	102.05
1000.2302	2737.9022	979.55	98.65
1000.3515	2739.1145	979	96.8
1000.4728	2740.3262	985.25	96.7
1000.594	2741.5372	976.35	96.25
1000.7152	2742.7475	977	95.2
1000.8363	2743.9571	978.7	94.7
1000.9575	2745.1661	978.5	92.8
1001.0785	2746.3744	975.8	93.05
1001.1996	2747.582	973.85	92.25
1001.3206	2748.7889	977.2	95.1
1001.4415	2749.9952	971.45	92.3
1001.5625	2751.2008	973	89.2
1001.6833	2752.4057	974.6	91
1001.8042	2753.61	974.95	91.55
1001.925	2754.8136	971.1	85.7
1002.0458	2756.0165	972.8	90.45
1002.1665	2757.2188	967.8	87.35
1002.2872	2758.4204	970.1	88.5
1002.4078	2759.6213	973.55	88.25
1002.5285	2760.8215	974.8	89.9
1002.649	2762.0211	971.75	86.65
1002.7696	2763.22	969.5	85.9
1002.8901	2764.4182	972.5	89.25
1003.0106	2765.6158	969.25	85.6
1003.131	2766.8127	967.05	85.1
1003.2514	2768.009	964.3	83.4
1003.3717	2769.2045	967.9	84.45
1003.492	2770.3994	968.9	84.3
1003.6123	2771.5936	964.1	80.15
1003.7325	2772.7872	963.4	83.45
1003.8527	2773.9801	967.85	83.95
1003.9729	2775.1723	982.25	83.8
1004.093	2776.3639	961.9	78.9
1004.2131	2777.5548	969	84.55
1004.3331	2778.745	962.5	79
1004.4531	2779.9346	965.55	83.9
1004.5731	2781.1235	965.7	81.05
1004.693	2782.3117	960.2	79.15
1004.8129	2783.4992	962	80.55
1004.9328	2784.6861	961.45	80.75
1005.0526	2785.8723	965.15	82.7
1005.1723	2787.0579	964.15	81.8
1005.2921	2788.2428	960.3	76.8
1005.4118	2789.427	962.4	81.45
1005.5314	2790.6106	961.9	79.1
1005.651	2791.7935	961.05	77.95
1005.7706	2792.9757	958.9	77
1005.8902	2794.1573	962.75	79.55
1006.0097	2795.3382	962.05	79.1
1006.1291	2796.5184	960.95	77.85
1006.2485	2797.698	961.6	80
1006.3679	2798.8769	960.6	77.9
1006.4873	2800.0551	962.05	80.55
1006.6066	2801.2327	962.6	77.25
1006.7258	2802.4096	957.65	76.55
1006.8451	2803.5859	963.25	80
1006.9642	2804.7615	956.75	73.4
1007.0834	2805.9364	958.25	77.45
1007.2025	2807.1106	960.35	78.25
1007.3216	2808.2842	961.3	79.95
1007.4406	2809.4572	961.95	81.55
1007.5596	2810.6294	962.9	79.75
1007.6785	2811.801	963.5	82.2
1007.7975	2812.972	963.8	81.3
1007.9163	2814.1423	965.85	83.9
1008.0352	2815.3119	966.5	83.7
1008.154	2816.4808	967.75	86.15
1008.2727	2817.6491	970.6	88.95
1008.3914	2818.8167	970.65	89
1008.5101	2819.9837	975.95	89.55
1008.6288	2821.15	976.55	94.5
1008.7474	2822.3157	982.15	99.5
1008.8659	2823.4807	984.4	100.15
1008.9844	2824.645	993.05	109.2
1009.1029	2825.8086	997.25	116.75
1009.2214	2826.9716	1003.2	122.25
1009.3398	2828.134	1011.35	127.65
1009.4581	2829.2957	1013.35	132.45
1009.5764	2830.4567	1015.2	134.7
1009.6947	2831.617	1016.6	133.35
1009.813	2832.7767	1017.35	133.1
1009.9312	2833.9358	1018.15	137.25
1010.0493	2835.0941	1022.5	138.55
1010.1675	2836.2519	1015.05	135.25
1010.2855	2837.4089	1016.15	132.3
1010.4036	2838.5653	1014.1	133.6
1010.5216	2839.7211	1008	126.75
1010.6396	2840.8761	1009.35	127.8
1010.7575	2842.0306	1005.5	124
1010.8754	2843.1843	1008.8	127.5
1010.9932	2844.3374	1005.75	126.05
1011.111	2845.4899	1011.3	129.05
1011.2288	2846.6417	1008.85	127.05
1011.3465	2847.7928	1013.1	133.25
1011.4642	2848.9433	1011.4	128.7
1011.5818	2850.0931	1010.7	130.7
1011.6995	2851.2422	1016.4	132.5
1011.817	2852.3907	1015.05	132.8
1011.9345	2853.5385	1015.85	135.45
1012.052	2854.6857	1023.3	131.5
1012.1695	2855.8323	1012.15	131
1012.2869	2856.9781	1015.6	135.6
1012.4042	2858.1233	1017.6	135.4
1012.5216	2859.2679	1021.55	141.05
1012.6389	2860.4118	1023.6	141.1
1012.7561	2861.555	1025.4	139.4
1012.8733	2862.6976	1033	150.7
1012.9905	2863.8395	1023.35	142.35
1013.1076	2864.9808	1031.25	150.3
1013.2247	2866.1214	1031.2	150.7
1013.3417	2867.2614	1026.85	146.7
1013.4587	2868.4007	1034.9	152.75
1013.5757	2869.5393	1037.35	154.55
1013.6926	2870.6773	1034.95	151.1
1013.8095	2871.8146	1038.8	153.35
1013.9263	2872.9513	1040.9	157.85
1014.0431	2874.0874	1042.9	162.9
1014.1599	2875.2227	1039.15	156.75
1014.2766	2876.3574	1042.35	160.9
1014.3933	2877.4915	1040.7	158.35
1014.51	2878.6249	1045.7	165.55
1014.6266	2879.7577	1044.55	161.9
1014.7431	2880.8898	1057	162.8
1014.8596	2882.0212	1046.25	165.25
1014.9761	2883.152	1049.9	168.85
1015.0925	2884.2821	1046.7	165.85
1015.2089	2885.4116	1049.6	169.5
1015.3253	2886.5405	1048.7	166.65
1015.4416	2887.6686	1056.35	172.8
1015.5579	2888.7962	1048.15	167.6
1015.6741	2889.923	1044.1	163.7
1015.7903	2891.0493	1047.5	164.55
1015.9065	2892.1748	1051.6	168.05
1016.0226	2893.2997	1052.35	169.05
1016.1387	2894.424	1047.05	166.4
1016.2547	2895.5476	1048.9	168.05
1016.3707	2896.6706	1050.1	170.1
1016.4866	2897.7929	1051.3	167.4
1016.6025	2898.9145	1055.45	174.05
1016.7184	2900.0355	1049.7	167.15
1016.8342	2901.1559	1051.3	169.05
1016.95	2902.2756	1048.75	167.8
1017.0658	2903.3946	1049.45	167.25
1017.1815	2904.513	1053.1	170.05
1017.2971	2905.6308	1047.9	165.35
1017.4127	2906.7479	1049.05	166.05
1017.5283	2907.8643	1049.15	167.8
1017.6439	2908.9801	1050.25	168.35
1017.7594	2910.0953	1045.8	167.55
1017.8748	2911.2098	1049.75	164.2
1017.9902	2912.3236	1058	168.75
1018.1056	2913.4368	1048.95	165.4
1018.2209	2914.5494	1047.5	165.15
1018.3362	2915.6613	1045.25	157.25
1018.4515	2916.7725	1049.7	164.15
1018.5667	2917.8831	1042.35	158.45
1018.6819	2918.9931	1041.6	156.55
1018.797	2920.1024	1033.7	149.7
1018.9121	2921.211	1033.65	152.1
1019.0271	2922.319	1033.75	153.35
1019.1421	2923.4264	1030.7	149.55
1019.2571	2924.5331	1029.8	150
1019.372	2925.6391	1027.2	142.9
1019.4869	2926.7445	1030.05	149.4
1019.6017	2927.8493	1031.7	148.75
1019.7165	2928.9534	1032.1	150.4
1019.8313	2930.0569	1030.85	146.15
1019.946	2931.1597	1033.1	150.1
1020.0606	2932.2619	1027.15	146.15
1020.1753	2933.3634	1032.75	151.55
1020.2899	2934.4643	1039.35	149.85
1020.4044	2935.5645	1040.45	153.2
1020.5189	2936.6641	1042.95	158.85
1020.6334	2937.763	1037	157.05
1020.7478	2938.8613	1033.65	151.85
1020.8622	2939.959	1039.35	152.05
1020.9765	2941.056	1026.8	147.45
1021.0908	2942.1523	1027.8	145.8
1021.2051	2943.248	1021.75	139.55
1021.3193	2944.3431	1017.75	135.05
1021.4334	2945.4375	1010.2	127.3
1021.5476	2946.5313	1002.9	122.95
1021.6617	2947.6244	1002.75	119.55
1021.7757	2948.7169	993.8	110.35
1021.8897	2949.8087	990.6	110
1022.0037	2950.8999	985.7	102.65
1022.1176	2951.9904	980.8	102.7
1022.2315	2953.0803	979.85	99.6
1022.3453	2954.1696	973.1	91.25
1022.4591	2955.2582	972.3	90.7
1022.5728	2956.3462	970.9	89
1022.6865	2957.4335	969.95	88.85
1022.8002	2958.5202	972.1	88.3
1022.9138	2959.6062	970.35	87.75
1023.0274	2960.6916	970.3	88.9
1023.141	2961.7764	968.25	84.95
1023.2545	2962.8605	969.2	84.9
1023.3679	2963.9439	970.2	90.5
1023.4813	2965.0267	967.45	84.15
1023.5947	2966.1089	993.05	89.1
1023.708	2967.1905	968.5	86.35
1023.8213	2968.2714	963.65	82.75
1023.9346	2969.3516	964.7	85.05
1024.0478	2970.4312	970.95	80.6
1024.1609	2971.5102	966.35	83.55
1024.274	2972.5885	962.65	82.4
1024.3871	2973.6662	966.55	81.8
1024.5002	2974.7432	961.5	81.3
1024.6132	2975.8196	964.15	82
1024.7261	2976.8954	961.9	80.85
1024.839	2977.9705	964.05	81.9
1024.9519	2979.045	961.5	80.45
1025.0647	2980.1188	961.6	81.8
1025.1775	2981.192	957.9	77.25
1025.2902	2982.2645	964.85	82.25
1025.4029	2983.3364	959.6	79.2
1025.5156	2984.4077	958.85	75.65
1025.6282	2985.4783	968.2	81.55
1025.7407	2986.5483	953.75	71.65
1025.8532	2987.6177	953.9	73.45
1025.9657	2988.6864	949.3	65.25
1026.0782	2989.7545	953.2	70.45
1026.1906	2990.8219	945.9	66.9
1026.3029	2991.8887	950.75	64.6
1026.4152	2992.9548	947.55	63.45
1026.5275	2994.0204	941.7	62.25
1026.6397	2995.0852	937.5	57.2
1026.7519	2996.1495	936.55	53.85
1026.864	2997.2131	938.3	56.3
1026.9761	2998.276	939.3	57.3
1027.0882	2999.3383	934.3	54.35
1027.2002	3000.4	935.05	53.35
1027.3122	3001.4611	931.5	50.45
1027.4241	3002.5215	931.1	47
1027.536	3003.5812	928.8	45.65
1027.6478	3004.6404	927.5	47.45
1027.7596	3005.6989	930.45	46.4
1027.8714	3006.7567	927.15	47.85
1027.9831	3007.8139	944.75	41.8
1028.0947	3008.8705	928.9	47.05
1028.2064	3009.9264	943.6	47.65
1028.3179	3010.9818	923.55	41.1
1028.4295	3012.0364	922.5	38.25
1028.541	3013.0905	923.3	43.25
1028.6524	3014.1439	925.3	43.4
1028.7638	3015.1966	922.05	41.15
1028.8752	3016.2487	924.15	41.5
1028.9865	3017.3002	924.35	39.15
1029.0978	3018.3511	923.75	43.6
1029.209	3019.4013	923.7	41.6
1029.3202	3020.4509	919.4	38.15
1029.4314	3021.4998	920.8	39.55
1029.5425	3022.5481	919.75	39.05
1029.6535	3023.5958	921	39.75
1029.7645	3024.6428	920.5	37.8
1029.8755	3025.6892	921.9	40.3
1029.9864	3026.735	917.3	34.9
1030.0973	3027.7802	919.95	39.6
1030.2082	3028.8247	919.4	39.7
1030.319	3029.8685	919.25	36.75
1030.4297	3030.9118	919.55	37.75
1030.5404	3031.9544	919.95	39.4
1030.6511	3032.9963	920.5	40.5
1030.7617	3034.0376	919.75	37.25
1030.8723	3035.0783	921.75	36.55
1030.9829	3036.1184	921.35	39.4
1031.0934	3037.1578	919.4	36.95
1031.2038	3038.1966	918.2	35.65
1031.3142	3039.2348	918.9	39.25
1031.4246	3040.2723	926.45	36.55
1031.5349	3041.3092	918.05	38.15
1031.6452	3042.3455	918.8	38.7
1031.7554	3043.3811	917.4	36.5
1031.8656	3044.4161	917.75	35.55
1031.9758	3045.4505	919.95	38.6
1032.0859	3046.4842	920.4	37.2
1032.1959	3047.5173	919.7	40.95
1032.3059	3048.5498	918.85	36.85
1032.4159	3049.5816	917.9	36.3
1032.5258	3050.6128	919.4	37.6
1032.6357	3051.6434	921.2	36.95
1032.7455	3052.6734	917.65	35.2
1032.8553	3053.7027	919.2	38
1032.9651	3054.7314	918.7	38.9
1033.0748	3055.7594	916.8	36.4
1033.1845	3056.7868	918.05	36.7
1033.2941	3057.8136	915.95	35.55
1033.4037	3058.8398	914.95	32.7
1033.5132	3059.8653	917.75	34.95
1033.6227	3060.8902	916.85	35.35
1033.7321	3061.9145	917.85	34.8
1033.8415	3062.9381	918.8	37.05
1033.9509	3063.9612	932.75	37.35
1034.0602	3064.9835	917.3	35.4
1034.1694	3066.0053	919.35	35.15
1034.2787	3067.0264	916.4	35.95
1034.3878	3068.0469	918.9	38.1
1034.497	3069.0668	922.45	39.05
1034.6061	3070.086	917.1	36.5
1034.7151	3071.1046	922.75	39.35
1034.8241	3072.1226	918.4	35.75
1034.9331	3073.1399	917.85	36.05
1035.042	3074.1567	915.85	33.4
1035.1508	3075.1727	917.3	33.45
1035.2597	3076.1882	915.8	34.7
1035.3684	3077.203	912.25	31.6
1035.4772	3078.2173	916.05	34.35
1035.5859	3079.2308	916.85	32.35
1035.6945	3080.2438	915.25	31.95
1035.8031	3081.2561	915.4	35.1
1035.9117	3082.2678	912.25	31.65
1036.0202	3083.2789	912.85	31.7
1036.1286	3084.2893	914.4	34.6
1036.2371	3085.2991	913.45	31.2
1036.3454	3086.3083	917.3	30.8
1036.4538	3087.3169	913.95	29.3
1036.562	3088.3248	914.65	31.95
1036.6703	3089.3321	912.1	28.8
1036.7785	3090.3388	909.45	30.75
1036.8866	3091.3449	908.25	26.3
1036.9948	3092.3503	911.8	27.35
1037.1028	3093.3551	908.8	28.65
1037.2108	3094.3593	907.8	28.15
1037.3188	3095.3629	907.85	28.1
1037.4267	3096.3658	909.75	27.7
1037.5346	3097.3681	910.3	29.5
1037.6425	3098.3698	911.1	28.65
1037.7503	3099.3708	916.4	28
1037.858	3100.3713	910.95	31.7
1037.9657	3101.3711	911.45	28.6
1038.0734	3102.3702	1040	24.15
1038.181	3103.3688	911.05	27.45
1038.2886	3104.3667	905.85	26.35
1038.3961	3105.364	908.35	26.95
1038.5036	3106.3607	907.9	26
1038.611	3107.3568	907.85	24
1038.7184	3108.3522	905.45	24.8
1038.8257	3109.347	908	26.85
1038.933	3110.3412	908	24.8
1039.0403	3111.3348	906.75	26.45
1039.1475	3112.3277	906.05	25.2
1039.2547	3113.32	904.95	24.7
1039.3618	3114.3117	905.85	23.05
1039.4689	3115.3028	906.5	25.05
1039.5759	3116.2932	908.4	25
1039.6829	3117.2831	909.35	24.15
1039.7898	3118.2723	903.45	22.2
1039.8967	3119.2608	903.65	22.75
1040.0035	3120.2488	904.7	23.9
1040.1103	3121.2361	904.35	21.25
1040.2171	3122.2229	903.45	22.45
1040.3238	3123.209	905.15	21.55
1040.4305	3124.1944	903.3	22.55
1040.5371	3125.1793	903.9	21.4
1040.6437	3126.1635	900.95	20.8
1040.7502	3127.1471	900.95	19.55
1040.8567	3128.1301	901.9	23.3
1040.9631	3129.1125	904.4	20.65
1041.0695	3130.0942	902.75	20.75
1041.1759	3131.0753	911.45	20.8
1041.2822	3132.0558	906	21.9
1041.3884	3133.0357	903.3	20
1041.4946	3134.015	902.9	20.85
1041.6008	3134.9936	904.15	22.15
1041.7069	3135.9716	924.8	21.1
1041.813	3136.949	903.35	20.75
1041.919	3137.9258	918.85	20.95
1042.025	3138.902	908.9	20.2
1042.1309	3139.8775	902.85	22.45
1042.2368	3140.8524	901.15	18.2
1042.3427	3141.8267	903.6	20.2
1042.4485	3142.8004	901.4	21.75
1042.5542	3143.7735	908.1	19.8
1042.6599	3144.7459	904.2	20.85
1042.7656	3145.7178	899.95	17.55
1042.8712	3146.689	899.5	19.35
1042.9768	3147.6596	902.25	16.25
1043.0823	3148.6295	901.5	20.9
1043.1878	3149.5989	901.05	20.95
1043.2932	3150.5676	898.15	18.05
1043.3986	3151.5357	899.7	20.2
1043.5039	3152.5032	897.4	18.8
1043.6092	3153.4701	900.3	18.35
1043.7145	3154.4364	901.2	17.85
1043.8197	3155.402	898.9	18.2
1043.9248	3156.367	902.35	20
1044.03	3157.3315	920.85	2.9
1044.135	3158.2952	899.75	17.9
1044.24	3159.2584	898.75	15.15
1044.345	3160.221	901.75	19.8
1044.4499	3161.1829	899.3	16.75
1044.5548	3162.1442	899.25	18.4
1044.6596	3163.105	898.45	15.65
1044.7644	3164.065	897.75	16.2
1044.8692	3165.0245	901.55	16.1
1044.9739	3165.9834	898.35	19.75
1045.0785	3166.9416	898.2	16.6
1045.1831	3167.8993	899.85	18.4
1045.2877	3168.8563	897.75	16.25
1045.3922	3169.8127	897.1	16.6
1045.4966	3170.7684	899.2	19.7
1045.6011	3171.7236	898.9	15.05
1045.7054	3172.6782	898.1	15.6
1045.8098	3173.6321	898.65	15.6
1045.914	3174.5854	900.25	14.45
1046.0183	3175.5381	896.6	16.2
1046.1224	3176.4902	896.05	15.05
1046.2266	3177.4417	896.25	17.45
1046.3307	3178.3926	896.1	16.9
1046.4347	3179.3428	895.95	18.6
1046.5387	3180.2924	897.7	17.35
1046.6427	3181.2415	897.45	14.55
1046.7466	3182.1899	900.8	16.25
1046.8504	3183.1377	896.8	15.75
1046.9542	3184.0848	900.25	14.05
1047.058	3185.0314	896.6	15.45
1047.1617	3185.9773	899	16.3
1047.2654	3186.9227	897.35	13.9
1047.369	3187.8674	895.15	13.2
1047.4726	3188.8115	900.25	16.3
1047.5761	3189.755	898.5	16.65
1047.6796	3190.6979	895.5	12.95
1047.783	3191.6402	897.25	17.4
1047.8864	3192.5818	896.75	16
1047.9898	3193.5229	902.65	13.35
1048.0931	3194.4633	895.1	14.4
1048.1963	3195.4031	897.45	15.55
1048.2995	3196.3423	895.9	15.5
1048.4027	3197.2809	894.5	13.3
1048.5058	3198.2189	896.8	15.8
1048.6089	3199.1563	903.95	15.55
1048.7119	3200.0931	895.3	14.45
1048.8148	3201.0292	892.5	10.25
1048.9178	3201.9648	895.65	14.3
1049.0206	3202.8997	897.3	11.65
1049.1235	3203.834	893.9	11.15
1049.2262	3204.7677	894.9	14.05
1049.329	3205.7008	896.7	15.4
1049.4317	3206.6333	894.85	14.25
1049.5343	3207.5652	896.4	11.95
1049.6369	3208.4964	896.3	14.3
1049.7394	3209.4271	891.7	10.85
1049.8419	3210.3571	893.95	12.65
1049.9444	3211.2865	897.9	16.3
1050.0468	3212.2154	894.4	12.1
1050.1491	3213.1436	900.4	17.2
1050.2514	3214.0712	902.3	15.25
1050.3537	3214.9982	894.15	13.4
1050.4559	3215.9246	896.65	14.5
1050.5581	3216.8503	894	14.3
1050.6602	3217.7755	894.6	13.55
1050.7623	3218.7001	895.85	16.95
1050.8643	3219.624	894.4	11.15
1050.9663	3220.5473	894.9	14.25
1051.0682	3221.4701	895.15	14.35
1051.1701	3222.3922	895.35	11.9
1051.2719	3223.3137	893.4	13.45
1051.3737	3224.2346	893.1	11.6
1051.4754	3225.1549	893.7	12.95
1051.5771	3226.0746	891.7	8
1051.6788	3226.9937	893.05	12.7
1051.7804	3227.9121	893	12.55
1051.8819	3228.83	892.5	10.55
1051.9834	3229.7473	894.95	13.15
1052.0849	3230.6639	894.1	13.9
1052.1863	3231.5799	892.45	12.15
1052.2876	3232.4954	895.2	13.85
1052.3889	3233.4102	892.4	12
1052.4902	3234.3244	893.15	10.1
1052.5914	3235.238	892.75	10.25
1052.6926	3236.151	919.15	11.5
1052.7937	3237.0634	891	9.35
1052.8948	3237.9752	891.1	10.7
1052.9958	3238.8864	893.9	12.55
1053.0968	3239.797	892.05	9.65
1053.1977	3240.7069	893.6	13
1053.2986	3241.6163	894.6	11.4
1053.3994	3242.5251	892.1	13.1
1053.5002	3243.4332	892.9	9.6
1053.6009	3244.3408	892.5	11.05
1053.7016	3245.2477	890.75	10.45
1053.8022	3246.154	893.15	10.45
1053.9028	3247.0598	893.4	11.9
1054.0034	3247.9649	893	12
1054.1039	3248.8694	889.7	7.2
1054.2043	3249.7733	890.85	9.3
1054.3047	3250.6766	891.75	11.85
1054.4051	3251.5793	893.75	10.95
1054.5054	3252.4814	891.5	11.3
1054.6056	3253.3829	893.25	11.35
1054.7058	3254.2838	892.1	12.5
1054.806	3255.1841	891.2	11.1
1054.9061	3256.0838	891.1	10.25
1055.0061	3256.9829	891	12.3
1055.1062	3257.8814	895.2	11.2
1055.2061	3258.7792	891.95	8.55
1055.306	3259.6765	892.1	9.8
1055.4059	3260.5731	890.5	7.9
1055.5057	3261.4692	890.45	8
1055.6055	3262.3647	890.55	8.9
1055.7052	3263.2595	889.55	7.95
1055.8049	3264.1538	889.05	7.6
1055.9045	3265.0474	893.3	11.15
1056.0041	3265.9404	890.6	8.3
1056.1036	3266.8329	890.15	9.75
1056.2031	3267.7247	898.65	6.15
1056.3025	3268.616	889.55	9.55
1056.4019	3269.5066	889.25	4.8
1056.5013	3270.3966	889.95	9.3
1056.6005	3271.286	889.4	9.1
