Software Version:	3.9.2.0
Unit SN:	10000200
Spectrometer SN:	6960
Date:	3/26/2024 2:08:53 PM
Data Line Index:	25
Spectral Points:	2048
Integration time (ms):	125
Averages:	20
Delay (ms):	30000
Sequence Number:	1
Processing:	dark subtract
Laser Power (mW):	305
Laser Current (mA):	820
Laser Diode Temp (C):	25.1
Laser Case Temp (C):	27.5
System Temp (C):	27.5
Spectrometer Temp (C):	25.4
CCD Temp (C):	0.002
Secondary Temp (C):	20.004
Heatsink Temp (C):	23.055
CCDPCB Temp (C):	37.007
SecondaryPCB Temp (C):	34.495

Wavelength	RamanShift	Raw Counts	Dark Subtracted
787.061	30.1047	675.6	266.15
787.2016	32.3739	687.4	280.7
787.3422	34.6426	700.4	290.35
787.4828	36.9109	729.35	317.3
787.6235	39.1787	750	333.5
787.7642	41.4461	782.4	361.85
787.9049	43.7131	800.75	376.5
788.0456	45.9796	833.7	406.85
788.1863	48.2456	859.45	427.25
788.3271	50.5112	897.25	460.95
788.4679	52.7764	921.45	485.25
788.6087	55.0411	952.7	510.9
788.7496	57.3054	992.4	547.9
788.8904	59.5692	1029.9	581.1
789.0313	61.8326	1071	617.15
789.1722	64.0955	1121.8	664.05
789.3132	66.3579	1176.65	714.85
789.4541	68.6199	1232.6	768.4
789.5951	70.8815	1339.35	872.45
789.7361	73.1426	1568.7	1096.75
789.8771	75.4032	2139.85	1662.25
790.0181	77.6634	3546.05	3061.45
790.1592	79.9231	7129.25	6636.05
790.3003	82.1824	15373.85	14858.15
790.4414	84.4412	37020.55	36470.75
790.5825	86.6995	63927.8	63327.85
790.7237	88.9574	65535	64884.9
790.8648	91.2148	65535	64851.7
791.006	93.4717	65535	64827.65
791.1472	95.7282	65535	64818.6
791.2885	97.9842	65535	64815.15
791.4297	100.2398	65535	64810.55
791.571	102.4949	65535	64804.6
791.7123	104.7495	65535	64806.3
791.8536	107.0036	65535	64806.05
791.9949	109.2573	65535	64801
792.1363	111.5105	65535	64800.35
792.2777	113.7632	65535	64803.95
792.4191	116.0154	65535	64788.65
792.5605	118.2672	65535	64792.35
792.7019	120.5185	65535	64792.55
792.8434	122.7693	65535	64796.05
792.9849	125.0197	65535	64787.45
793.1264	127.2696	65535	64790.1
793.2679	129.519	65535	64783.45
793.4094	131.7679	65535	64776.55
793.551	134.0163	65535	64779.6
793.6926	136.2642	65535	64772.3
793.8342	138.5117	65535	64767.85
793.9758	140.7587	65535	64763.9
794.1175	143.0052	65535	64760.4
794.2591	145.2512	65535	64765
794.4008	147.4967	65535	64762.65
794.5425	149.7417	65535	64770.9
794.6842	151.9863	65535	64761.55
794.826	154.2304	65535	64755.95
794.9677	156.4739	65535	64753.4
795.1095	158.717	65535	64749.9
795.2513	160.9596	65535	64748.75
795.3931	163.2017	65535	64745.1
795.535	165.4433	65535	64744.8
795.6768	167.6844	65535	64743.1
795.8187	169.925	65535	64745.2
795.9606	172.1651	65535	64741.3
796.1025	174.4047	65535	64736.35
796.2445	176.6439	65535	64738.5
796.3864	178.8825	65535	64731.7
796.5284	181.1206	65535	64728.3
796.6704	183.3582	65535	64719.3
796.8124	185.5954	65535	64715.6
796.9544	187.832	65535	64715.25
797.0965	190.0681	65535	64710.85
797.2386	192.3037	65535	64708.95
797.3806	194.5388	65535	64709
797.5228	196.7734	65535	64701.15
797.6649	199.0075	65535	64697.05
797.807	201.2411	65535	64701.25
797.9492	203.4742	65535	64698.95
798.0914	205.7068	65535	64693.6
798.2336	207.9389	65535	64692.6
798.3758	210.1704	65535	64690.7
798.518	212.4015	65535	64687.55
798.6603	214.632	65535	64684.95
798.8025	216.862	65535	64694.7
798.9448	219.0915	65535	64699.8
799.0871	221.3205	65535	64704.4
799.2294	223.549	65535	64715.95
799.3718	225.777	65535	64709.85
799.5141	228.0044	65535	64706.15
799.6565	230.2314	65535	64716.15
799.7989	232.4578	65535	64714.65
799.9413	234.6837	65535	64708.5
800.0837	236.909	65535	64702.65
800.2262	239.1339	65535	64677.75
800.3687	241.3582	65535	64692.6
800.5111	243.582	65535	64663.35
800.6536	245.8053	65535	64672.9
800.7961	248.0281	65535	64676.4
800.9387	250.2503	65535	64674.55
801.0812	252.472	65535	64671.5
801.2238	254.6932	65535	64669.8
801.3664	256.9139	65535	64665.65
801.509	259.134	65535	64656.8
801.6516	261.3536	65535	64665
801.7942	263.5727	65535	64661.65
801.9369	265.7912	65535	64661.5
802.0795	268.0092	65535	64657.3
802.2222	270.2267	65535	64663.7
802.3649	272.4436	65535	64659.15
802.5076	274.6601	65535	64654.45
802.6504	276.8759	65535	64662.3
802.7931	279.0913	65535	64661.25
802.9359	281.3061	65535	64655.5
803.0787	283.5204	65535	64648.35
803.2215	285.7341	65535	64651.95
803.3643	287.9473	65535	64637.15
803.5071	290.16	65535	64641.05
803.6499	292.3721	65535	64649.6
803.7928	294.5837	65535	64646.35
803.9357	296.7947	65535	64644.45
804.0786	299.0052	65535	64645.15
804.2215	301.2152	65535	64645.75
804.3644	303.4246	65535	64652.65
804.5074	305.6334	65535	64652.8
804.6503	307.8418	65535	64647.25
804.7933	310.0495	65535	64646.45
804.9363	312.2568	65535	64641
805.0793	314.4635	65535	64647.9
805.2223	316.6696	65535	64640.4
805.3653	318.8752	65535	64639.95
805.5084	321.0802	65535	64641.6
805.6514	323.2847	65535	64633.5
805.7945	325.4887	65535	64638.7
805.9376	327.692	65535	64638.2
806.0807	329.8949	65535	64628.5
806.2238	332.0972	65535	64633.6
806.367	334.2989	65535	64627
806.5101	336.5001	65535	64626.85
806.6533	338.7007	65535	64629.4
806.7965	340.9008	65535	64630.05
806.9397	343.1003	65535	64626.15
807.0829	345.2992	65535	64626.15
807.2261	347.4976	65535	64624.4
807.3693	349.6955	65535	64624
807.5126	351.8927	65535	64619.15
807.6559	354.0895	65535	64606.2
807.7991	356.2856	65535	64621.45
807.9424	358.4812	65535	64623.95
808.0857	360.6763	65535	64620.85
808.2291	362.8707	65535	64619.55
808.3724	365.0646	65535	64615.7
808.5158	367.258	65535	64612.85
808.6591	369.4508	65535	64614.3
808.8025	371.643	65535	64614.7
808.9459	373.8346	65535	64609.15
809.0893	376.0257	65535	64608.75
809.2327	378.2162	65535	64606.45
809.3762	380.4062	65535	64605.45
809.5196	382.5956	65535	64603.4
809.6631	384.7844	65535	64613.75
809.8066	386.9726	65535	64606.75
809.9501	389.1603	65535	64607.2
810.0936	391.3474	65535	64577.9
810.2371	393.5339	65535	64601.35
810.3806	395.7199	65535	64615.05
810.5241	397.9052	65535	64614.35
810.6677	400.09	65535	64617.25
810.8113	402.2743	65535	64619.15
810.9548	404.4579	65535	64612.4
811.0984	406.641	65535	64618.5
811.2421	408.8235	65535	64618.75
811.3857	411.0054	65535	64614.25
811.5293	413.1868	65535	64610.55
811.673	415.3675	65535	64608.95
811.8166	417.5477	65535	64608.65
811.9603	419.7273	65535	64611.05
812.104	421.9064	65535	64599.9
812.2477	424.0848	65535	64608.15
812.3914	426.2627	65535	64610.2
812.5351	428.4399	65535	64603.1
812.6788	430.6166	65535	64600.4
812.8226	432.7928	65535	64601.75
812.9663	434.9683	65535	64602.75
813.1101	437.1432	65535	64603.65
813.2539	439.3176	65535	64610.75
813.3977	441.4914	65535	64612.65
813.5415	443.6645	65535	64611.2
813.6853	445.8371	65535	64600.45
813.8291	448.0091	65535	64604.45
813.973	450.1806	65535	64606.7
814.1168	452.3514	65535	64609.15
814.2607	454.5216	65535	64596.35
814.4046	456.6913	65535	64604.6
814.5485	458.8603	65535	64607.15
814.6924	461.0288	65535	64612.95
814.8363	463.1967	65535	64612.6
814.9802	465.3639	65535	64611.5
815.1241	467.5306	65535	64604.95
815.2681	469.6967	65535	64608.95
815.412	471.8622	65535	64608.6
815.556	474.0271	65535	64613.2
815.7	476.1914	65535	64603.95
815.844	478.3551	65535	64599.45
815.988	480.5182	65535	64608.2
816.132	482.6807	65535	64613.35
816.276	484.8426	65535	64625.65
816.4201	487.0039	65535	64615.45
816.5641	489.1647	65535	64606.65
816.7082	491.3248	65535	64603.45
816.8522	493.4843	65535	64613
816.9963	495.6432	65535	64609.45
817.1404	497.8015	65535	64597.15
817.2845	499.9592	65535	64591
817.4286	502.1163	65535	64593.55
817.5727	504.2728	65535	64606.05
817.7168	506.4287	65535	64612.2
817.861	508.5839	65535	64612.05
818.0051	510.7386	65535	64607.7
818.1493	512.8927	65535	64593
818.2935	515.0461	65535	64603.35
818.4377	517.199	65535	64595.35
818.5818	519.3512	65535	64598.25
818.726	521.5029	65535	64596.2
818.8703	523.6539	65535	64596.1
819.0145	525.8043	65535	64600
819.1587	527.9541	65535	64596.15
819.303	530.1033	65535	64599.1
819.4472	532.2519	65535	64598.6
819.5915	534.3999	65535	64598.75
819.7357	536.5472	65535	64600.8
819.88	538.694	65535	64602.5
820.0243	540.8401	65535	64594.9
820.1686	542.9856	65535	64585.05
820.3129	545.1305	65535	64577.4
820.4572	547.2748	65535	64570.6
820.6016	549.4185	65535	64573.3
820.7459	551.5615	65535	64574.65
820.8902	553.704	65535	64577.1
821.0346	555.8458	65535	64584.3
821.1789	557.987	65535	64582.5
821.3233	560.1276	65535	64580
821.4677	562.2675	65535	64577.8
821.6121	564.4069	65535	64582.15
821.7565	566.5456	65535	64582.45
821.9009	568.6837	65535	64588.85
822.0453	570.8212	65535	64587.3
822.1897	572.958	65535	64587.9
822.3342	575.0942	65535	64596.35
822.4786	577.2299	65535	64598.65
822.6231	579.3648	65535	64607.45
822.7675	581.4992	65535	64620.15
822.912	583.6329	65535	64621.95
823.0565	585.766	65535	64616.35
823.201	587.8985	65535	64608.8
823.3454	590.0304	65535	64584.25
823.4899	592.1616	65535	64589.3
823.6345	594.2922	65535	64583.1
823.779	596.4222	65535	64583.65
823.9235	598.5515	65535	64576.8
824.068	600.6802	65535	64582.95
824.2126	602.8083	65535	64583.8
824.3571	604.9358	65535	64587.7
824.5017	607.0626	65535	64580.3
824.6462	609.1888	65535	64573.15
824.7908	611.3144	65535	64573.65
824.9354	613.4393	65535	64573.15
825.08	615.5636	65535	64575.25
825.2246	617.6873	65535	64576.9
825.3692	619.8103	65535	64576.5
825.5138	621.9327	65535	64579.2
825.6584	624.0544	65535	64580.55
825.803	626.1756	65535	64582.05
825.9477	628.2961	65535	64580.4
826.0923	630.4159	65535	64579.6
826.237	632.5351	65535	64577.9
826.3816	634.6537	65535	64578.9
826.5263	636.7716	65535	64570
826.6709	638.8889	65535	64569.05
826.8156	641.0056	65535	64566.05
826.9603	643.1216	65535	64574.05
827.105	645.237	65535	64575.95
827.2497	647.3518	65535	64581.8
827.3944	649.4659	65535	64585.7
827.5391	651.5793	65535	64587.85
827.6838	653.6922	65535	64583.4
827.8285	655.8043	65535	64583.55
827.9733	657.9159	65535	64582.85
828.118	660.0268	65535	64581.05
828.2627	662.137	65535	64576.6
828.4075	664.2466	65535	64566.45
828.5522	666.3556	65535	64569.85
828.697	668.4639	65535	64581.45
828.8418	670.5716	65535	64581.95
828.9865	672.6786	65535	64577.9
829.1313	674.785	65535	64571
829.2761	676.8907	65535	64577.4
829.4209	678.9958	65535	64579.7
829.5657	681.1002	65535	64575
829.7105	683.204	65535	64566.35
829.8553	685.3072	65535	64566.75
830.0001	687.4097	65535	64569.45
830.1449	689.5115	65535	64569.15
830.2898	691.6127	65535	64574.15
830.4346	693.7132	65535	64581.55
830.5794	695.8131	65535	64552.9
830.7243	697.9123	65535	64561.65
830.8691	700.0109	65535	64563.6
831.014	702.1089	65535	64573.8
831.1588	704.2061	65535	64570.25
831.3037	706.3028	65535	64568.3
831.4486	708.3987	65535	64571.3
831.5935	710.4941	65535	64570.45
831.7383	712.5887	65535	64573.3
831.8832	714.6827	65535	64569.7
832.0281	716.7761	65535	64578.6
832.173	718.8688	65535	64569.9
832.3179	720.9608	65535	64564.3
832.4628	723.0522	65535	64559.05
832.6077	725.1429	65535	64565
832.7527	727.233	65535	64567.45
832.8976	729.3224	65535	64568.35
833.0425	731.4112	65535	64567.4
833.1874	733.4993	65535	64565.4
833.3324	735.5867	65535	64571.35
833.4773	737.6735	65535	64569.65
833.6222	739.7596	65535	64568.55
833.7672	741.845	65535	64571.95
833.9122	743.9298	65535	64568.7
834.0571	746.014	65535	64566.85
834.2021	748.0974	65535	64562.05
834.347	750.1802	65535	64556.25
834.492	752.2624	65535	64562
834.637	754.3439	65535	64561.25
834.782	756.4247	65535	64556.45
834.9269	758.5048	65535	64563.75
835.0719	760.5843	65535	64563.3
835.2169	762.6631	65535	64565.75
835.3619	764.7413	65535	64566.45
835.5069	766.8188	65535	64562.25
835.6519	768.8956	65535	64561.7
835.7969	770.9718	65535	64563.2
835.9419	773.0473	65535	64561.95
836.0869	775.1221	65535	64563.85
836.232	777.1962	65535	64562.15
836.377	779.2697	65535	64561.7
836.522	781.3426	65535	64542.1
836.667	783.4147	65535	64561.15
836.8121	785.4862	65535	64563.7
836.9571	787.557	65535	64559.25
837.1021	789.6271	65535	64558.25
837.2472	791.6966	65535	64561.1
837.3922	793.7654	65535	64564.8
837.5373	795.8335	65535	64559.65
837.6823	797.901	65535	64566.75
837.8274	799.9678	65535	64556.1
837.9724	802.0339	65535	64559.35
838.1175	804.0993	65535	64550.65
838.2626	806.1641	65535	64557.8
838.4076	808.2282	65535	64562.05
838.5527	810.2916	65535	64560.55
838.6978	812.3544	65535	64565
838.8428	814.4164	65535	64566.1
838.9879	816.4778	65535	64560.45
839.133	818.5385	65535	64556.3
839.2781	820.5986	65535	64558.55
839.4232	822.658	65535	64560.25
839.5682	824.7166	65535	64559.7
839.7133	826.7747	65535	64560.95
839.8584	828.832	65535	64560.4
840.0035	830.8886	65535	64559.25
840.1486	832.9446	65535	64558.2
840.2937	834.9999	65535	64555.7
840.4388	837.0545	65535	64556.65
840.5839	839.1085	65535	64557.55
840.729	841.1618	65535	64555.2
840.8741	843.2143	65535	64562.05
841.0192	845.2662	65535	64562.65
841.1643	847.3175	65535	64559.35
841.3095	849.368	65535	64560
841.4546	851.4179	65535	64561.4
841.5997	853.467	65535	64560.1
841.7448	855.5155	65535	64561.15
841.8899	857.5633	65535	64554.35
842.0351	859.6105	65535	64558.1
842.1802	861.6569	65535	64556.25
842.3253	863.7027	65535	64554.15
842.4704	865.7478	65535	64555.7
842.6156	867.7922	65535	64553.5
842.7607	869.8359	65535	64556.75
842.9058	871.8789	65535	64556.85
843.0509	873.9212	65535	64525
843.1961	875.9629	65535	64560.75
843.3412	878.0039	65535	64555.7
843.4863	880.0441	65535	64559.85
843.6315	882.0837	65535	64558.35
843.7766	884.1226	65535	64557.55
843.9218	886.1609	65535	64557.65
844.0669	888.1984	65535	64558.7
844.212	890.2352	65535	64558.45
844.3572	892.2714	65535	64554.5
844.5023	894.3069	65535	64556.5
844.6475	896.3416	65535	64557.85
844.7926	898.3757	65535	64551.4
844.9377	900.4091	65525.15	64543.8
845.0829	902.4418	65535	64550.25
845.228	904.4739	65535	64549.9
845.3732	906.5052	65532.1	64552.95
845.5183	908.5358	65527.25	64548.8
845.6635	910.5658	65526.2	64542
845.8086	912.595	65526.4	64542.15
845.9538	914.6236	65493.65	64510.6
846.0989	916.6515	65534.6	64552
846.2441	918.6786	65496.9	64512.25
846.3892	920.7051	65517.55	64536.25
846.5344	922.7309	65500.95	64522.3
846.6795	924.756	65509.4	64531.95
846.8246	926.7804	65487.85	64504.6
846.9698	928.8041	65404.45	64423.75
847.1149	930.8272	65480.55	64496
847.2601	932.8495	65489.6	64510.8
847.4052	934.8711	65435.75	64452.45
847.5504	936.892	65372.45	64391.25
847.6955	938.9123	65402.7	64418.35
847.8407	940.9318	65349.05	64368.9
847.9858	942.9506	65346.45	64367.1
848.131	944.9688	65355.3	64376.45
848.2761	946.9862	65170.4	64191.2
848.4213	949.003	65265.1	64288.05
848.5664	951.019	65087.6	64107.45
848.7115	953.0344	65136.1	64156.8
848.8567	955.0491	65127.1	64149.8
849.0018	957.063	65189.45	64209.45
849.147	959.0763	65188	64202.3
849.2921	961.0888	65039.1	64060.35
849.4373	963.1007	65172.55	64194.95
849.5824	965.1119	65144.35	64175.5
849.7275	967.1223	65057.45	64095.4
849.8727	969.1321	65209.8	64246.5
850.0178	971.1412	64991.4	64023.55
850.1629	973.1495	64942.6	63967.05
850.3081	975.1572	65045.9	64016.05
850.4532	977.1641	64939.7	63961.35
850.5983	979.1704	64965.7	63985.05
850.7435	981.1759	64966.85	63985.75
850.8886	983.1808	64828.8	63848.35
851.0337	985.1849	64852.2	63865.35
851.1788	987.1884	64913	63934.9
851.324	989.1911	65010.85	64035.05
851.4691	991.1932	64616.5	63641.4
851.6142	993.1945	64738.65	63762.65
851.7593	995.1951	64882.15	63902.85
851.9045	997.1951	64601.8	63618.8
852.0496	999.1943	64581.25	63605.15
852.1947	1001.1928	64437.6	63457.5
852.3398	1003.1906	64552.3	63574.35
852.4849	1005.1877	64088.05	63108.25
852.63	1007.1841	64018.15	63044.75
852.7751	1009.1798	64023.95	63053.6
852.9202	1011.1748	64005.95	63031.25
853.0653	1013.1691	63895	62918.9
853.2104	1015.1627	62439.3	61462.55
853.3555	1017.1556	63255.1	62283.35
853.5006	1019.1477	63444.65	62474.35
853.6457	1021.1392	62826.25	61862.75
853.7908	1023.1299	61821	60855.85
853.9359	1025.12	62546.95	61590.9
854.081	1027.1093	62017.55	61074.85
854.2261	1029.0979	62030.75	61087.8
854.3712	1031.0859	61981.6	61028.85
854.5163	1033.0731	61246.4	60285.1
854.6613	1035.0596	61591.05	60629.6
854.8064	1037.0454	61397.85	60430.3
854.9515	1039.0304	60967.25	59995.8
855.0965	1041.0148	59895.05	58923.7
855.2416	1042.9985	60171.15	59194.85
855.3867	1044.9814	60793.35	59824.75
855.5317	1046.9636	59737.35	58768.55
855.6768	1048.9452	59894.15	58927.3
855.8219	1050.926	59682.35	58714.85
855.9669	1052.9061	59689.15	58719.55
856.112	1054.8855	59668.9	58695.65
856.257	1056.8642	59181.9	58209.55
856.4021	1058.8421	58812.1	57835.8
856.5471	1060.8194	58936.55	57962
856.6921	1062.7959	58441.25	57471.25
856.8372	1064.7717	58982.55	58009.55
856.9822	1066.7469	58640.5	57667.4
857.1272	1068.7213	58572.65	57602.9
857.2723	1070.695	58208.85	57237.6
857.4173	1072.6679	57631.75	56659.55
857.5623	1074.6402	57999.95	57028.95
857.7073	1076.6117	57445.2	56469.25
857.8523	1078.5826	57446.25	56474.2
857.9973	1080.5527	57540.25	56563.45
858.1423	1082.5221	57242.8	56270.15
858.2873	1084.4908	57479.65	56508.45
858.4323	1086.4587	57393.9	56420.2
858.5773	1088.426	57380.05	56408.05
858.7223	1090.3925	57281.1	56299.25
858.8673	1092.3584	57051.6	56082.75
859.0123	1094.3235	56426.2	55458.8
859.1573	1096.2879	56310.7	55338.1
859.3022	1098.2515	56407.9	55437.85
859.4472	1100.2145	56111.75	55140.55
859.5922	1102.1767	55930.45	54956.7
859.7371	1104.1382	56216.35	55249.45
859.8821	1106.099	56129.7	55157.35
860.027	1108.0591	56000.1	55030.45
860.172	1110.0185	55388.15	54419.05
860.3169	1111.9771	55999.05	55029.5
860.4619	1113.9351	55469.3	54499.4
860.6068	1115.8923	54945.35	53976.1
860.7517	1117.8488	54367.9	53395.6
860.8967	1119.8045	53828.7	52859.8
861.0416	1121.7596	53853.9	52885.15
861.1865	1123.7139	53487.45	52521.45
861.3314	1125.6675	53486.1	52518.8
861.4763	1127.6204	53407	52437.35
861.6212	1129.5726	52951.7	51982.4
861.7661	1131.524	53179.65	52209.15
861.911	1133.4748	53141.85	52173.8
862.0559	1135.4248	52796	51826.2
862.2008	1137.3741	52784.45	51815.95
862.3457	1139.3226	52638.8	51667.6
862.4905	1141.2705	52539.65	51572.05
862.6354	1143.2176	52269.6	51297.65
862.7803	1145.164	51991.55	51021.1
862.9251	1147.1097	51976.9	51005.15
863.07	1149.0546	51870.8	50902.75
863.2148	1150.9989	51837.95	50870.65
863.3597	1152.9424	51446.1	50477.7
863.5045	1154.8852	51299.15	50334.6
863.6493	1156.8272	50948.85	49980.05
863.7942	1158.7686	51094.9	50115.8
863.939	1160.7092	50525.25	49553.8
864.0838	1162.6491	50309.85	49340.65
864.2286	1164.5883	50429.55	49461.6
864.3734	1166.5267	50299.35	49330.55
864.5182	1168.4644	50462.5	49494.55
864.663	1170.4014	50447.6	49478.6
864.8078	1172.3377	50649.2	49685.15
864.9526	1174.2732	50856.7	49891.85
865.0974	1176.2081	50751.3	49785.5
865.2421	1178.1421	50739.95	49765.75
865.3869	1180.0755	51038.9	50071.95
865.5317	1182.0082	50678.05	49714.3
865.6764	1183.9401	50640	49676.75
865.8212	1185.8713	50235.85	49276.65
865.9659	1187.8017	49948.4	48998.75
866.1106	1189.7315	49670.35	48725.95
866.2554	1191.6605	49171.6	48230.2
866.4001	1193.5888	48814.25	47867.35
866.5448	1195.5163	48567	47610.6
866.6895	1197.4432	48362.35	47399.85
866.8342	1199.3693	48204.35	47244.65
866.9789	1201.2947	47894.7	46928.85
867.1236	1203.2193	47737.65	46776.65
867.2683	1205.1432	47605.35	46641.35
867.413	1207.0664	47490.7	46531.5
867.5576	1208.9889	47371.4	46406.7
867.7023	1210.9106	47260.65	46301.6
867.847	1212.8316	47158.95	46198.9
867.9916	1214.7519	47101.6	46129.95
868.1363	1216.6715	46977.3	46013.25
868.2809	1218.5903	46893.1	45931.4
868.4255	1220.5084	46654.35	45695.3
868.5701	1222.4257	46557.05	45599.5
868.7148	1224.3424	46237.85	45280.15
868.8594	1226.2583	46190.25	45227.2
869.004	1228.1735	46208.7	45249.35
869.1486	1230.0879	46016.3	45056.7
869.2932	1232.0016	46084.9	45126.35
869.4377	1233.9146	45914.4	44953.95
869.5823	1235.8269	45685.25	44722.35
869.7269	1237.7384	45531.3	44569.95
869.8715	1239.6492	45158.8	44200.1
870.016	1241.5592	45032.8	44071.3
870.1606	1243.4686	44759.05	43798.05
870.3051	1245.3772	44619.1	43659.05
870.4496	1247.285	44370.25	43407
870.5941	1249.1922	44198.55	43236.4
870.7387	1251.0986	44074.4	43117.35
870.8832	1253.0042	43867.7	42908.55
871.0277	1254.9092	43897.75	42939
871.1722	1256.8134	43773.65	42818.4
871.3167	1258.7169	43880.85	42924.25
871.4611	1260.6196	43878.55	42923.7
871.6056	1262.5216	44051.5	43092.05
871.7501	1264.4229	44020.4	43067.1
871.8945	1266.3234	44128.35	43169.4
872.039	1268.2232	44130.15	43169.5
872.1834	1270.1223	43956.65	42992.85
872.3278	1272.0207	43814.15	42854.3
872.4723	1273.9183	43654.3	42688.8
872.6167	1275.8151	43442.15	42486.05
872.7611	1277.7113	43341.9	42383.55
872.9055	1279.6067	43045.5	42090.3
873.0499	1281.5014	42781.3	41821.9
873.1943	1283.3953	42583.45	41620.4
873.3386	1285.2885	42416.75	41459.3
873.483	1287.181	42272.75	41316.1
873.6274	1289.0727	42328.8	41371.95
873.7717	1290.9637	42166.05	41208.2
873.9161	1292.854	42263.35	41305.5
874.0604	1294.7435	42243.4	41286.75
874.2047	1296.6323	42370.95	41414.25
874.349	1298.5204	42531.5	41571.75
874.4933	1300.4077	42637.05	41678.85
874.6376	1302.2943	42722.65	41765.85
874.7819	1304.1802	42778.8	41820.9
874.9262	1306.0653	42571.25	41612.3
875.0705	1307.9497	42364	41407.75
875.2147	1309.8333	42228	41272.75
875.359	1311.7162	42055.05	41102.6
875.5032	1313.5984	42084.1	41124.15
875.6475	1315.4798	42031.6	41060.75
875.7917	1317.3605	42127.4	41165.25
875.9359	1319.2405	42207.35	41250.2
876.0801	1321.1197	42148.15	41187.65
876.2243	1322.9982	41937.25	40975.45
876.3685	1324.876	41896.25	40940.75
876.5127	1326.753	41762.55	40802.35
876.6569	1328.6293	41774.05	40815.55
876.801	1330.5048	41758.4	40798.25
876.9452	1332.3796	41574.15	40617.85
877.0893	1334.2537	41474.6	40496.55
877.2335	1336.127	41298.8	40344.55
877.3776	1337.9996	41186.65	40227.95
877.5217	1339.8714	41052.8	40097.4
877.6658	1341.7426	40894.1	39893.05
877.8099	1343.6129	40836.6	39878
877.954	1345.4826	40675.85	39717.8
878.0981	1347.3515	40627	39664.75
878.2422	1349.2196	40488.2	39530.4
878.3862	1351.087	40504.55	39547.25
878.5303	1352.9537	40463.2	39505.65
878.6743	1354.8197	40518.05	39559.55
878.8184	1356.6849	40601.5	39644.85
878.9624	1358.5493	40536.7	39581.65
879.1064	1360.4131	40475.55	39518.4
879.2504	1362.276	40363.4	39408.9
879.3944	1364.1383	40096.5	39139.5
879.5384	1365.9998	39739.95	38774.75
879.6823	1367.8606	39345.3	38386.2
879.8263	1369.7206	38999.1	38043.35
879.9702	1371.5799	38717.35	37755.9
880.1142	1373.4384	38465.4	37507.85
880.2581	1375.2962	38334.15	37378.8
880.402	1377.1533	37935.3	36982.6
880.5459	1379.0096	37479.55	36525.9
880.6898	1380.8652	37098.5	36147.75
880.8337	1382.7201	36800.5	35850.9
880.9776	1384.5742	36455.75	35503.4
881.1215	1386.4275	36186	35230.9
881.2653	1388.2802	35942.95	34992.2
881.4092	1390.132	35735.45	34779.6
881.553	1391.9832	35637.5	34680.85
881.6968	1393.8336	35396.2	34440.4
881.8406	1395.6832	35288.4	34334.05
881.9844	1397.5322	35075.2	34117.7
882.1282	1399.3803	34973.15	34016.05
882.272	1401.2278	34825.45	33873.8
882.4158	1403.0745	34724.85	33774.55
882.5595	1404.9204	34492.15	33538.95
882.7033	1406.7656	34454.35	33502.2
882.847	1408.6101	34356.75	33399.25
882.9908	1410.4538	34240.05	33287
883.1345	1412.2968	34171.85	33220.3
883.2782	1414.139	34083.15	33128.85
883.4219	1415.9805	34104.1	33151.45
883.5656	1417.8213	34060.25	33087.5
883.7092	1419.6613	34047.25	33096.85
883.8529	1421.5006	34148.35	33197.3
883.9965	1423.3391	34333.05	33381.65
884.1402	1425.1769	34535.7	33584.45
884.2838	1427.0139	34970.6	34017.55
884.4274	1428.8502	35491.9	34535.15
884.571	1430.6858	35914.65	34962.55
884.7146	1432.5206	36124.3	35176.15
884.8582	1434.3547	36334.1	35383.85
885.0018	1436.188	36379.15	35428.9
885.1453	1438.0206	36248.15	35295.65
885.2889	1439.8524	35940.4	34987.8
885.4324	1441.6835	35817.1	34864.75
885.5759	1443.5139	35709	34753.9
885.7194	1445.3435	35524.45	34573.15
885.8629	1447.1724	35375.65	34428.15
886.0064	1449.0005	35273.2	34325.35
886.1499	1450.8279	35075.65	34128.35
886.2933	1452.6545	35016.4	34069.5
886.4368	1454.4804	35041.1	34094.35
886.5802	1456.3056	34924.65	33967.2
886.7237	1458.13	34752.2	33803.55
886.8671	1459.9536	34516.75	33570.15
887.0105	1461.7766	34141.25	33193.55
887.1539	1463.5987	33694.3	32742.35
887.2972	1465.4202	33222.9	32271.3
887.4406	1467.2409	32788.7	31841.25
887.584	1469.0608	32623.15	31676.95
887.7273	1470.88	32246.15	31298.9
887.8706	1472.6984	31933.8	30981.3
888.0139	1474.5161	31578.25	30629.8
888.1572	1476.3331	31399.95	30452.9
888.3005	1478.1493	31212.7	30265.4
888.4438	1479.9648	31133.2	30185.05
888.5871	1481.7795	30935.35	29983.95
888.7303	1483.5935	30893.8	29943.3
888.8736	1485.4067	30755.55	29807.95
889.0168	1487.2192	30693	29744.1
889.16	1489.031	30586.6	29632.95
889.3032	1490.842	30446.9	29501.15
889.4464	1492.6522	30389.75	29442.65
889.5896	1494.4618	30238.75	29288.4
889.7327	1496.2705	30238.6	29290.4
889.8759	1498.0785	30141.95	29194.95
890.019	1499.8858	30019.35	29071.25
890.1622	1501.6924	29938.65	28990.95
890.3053	1503.4981	29920.35	28972.5
890.4484	1505.3032	29812.3	28867.85
890.5914	1507.1075	29712	28767.3
890.7345	1508.911	29642.35	28696.85
890.8776	1510.7138	29529.8	28577.75
891.0206	1512.5159	29405.9	28459.4
891.1637	1514.3172	29350.05	28405.35
891.3067	1516.1178	29204.55	28259.6
891.4497	1517.9176	29140.8	28191.65
891.5927	1519.7166	28986.95	28039.85
891.7357	1521.515	28873.3	27925.15
891.8786	1523.3126	28858.65	27915.95
892.0216	1525.1094	28739.6	27792.95
892.1645	1526.9055	28626.55	27682.05
892.3074	1528.7008	28476.25	27532.8
892.4503	1530.4954	28325.95	27376.15
892.5932	1532.2893	28299.15	27356
892.7361	1534.0824	28136.55	27192.95
892.879	1535.8747	28165.95	27225.75
893.0218	1537.6663	28044.55	27108.3
893.1647	1539.4572	27942.7	27000.15
893.3075	1541.2473	27851.7	26909.25
893.4503	1543.0367	27723.6	26783.75
893.5931	1544.8253	27586.65	26638.45
893.7359	1546.6132	27614.35	26668.1
893.8787	1548.4003	27525.05	26574.8
894.0214	1550.1867	27445.2	26498.9
894.1642	1551.9723	27416.15	26475.25
894.3069	1553.7572	27357.7	26422.45
894.4496	1555.5414	27290.8	26353.1
894.5923	1557.3247	27248.6	26313.65
894.735	1559.1074	27235.45	26301.85
894.8777	1560.8893	27198.35	26268.25
895.0204	1562.6705	27147.65	26215
895.163	1564.4509	27165.8	26235.75
895.3056	1566.2305	27154.4	26226.2
895.4482	1568.0094	27219.05	26292.85
895.5908	1569.7876	27239.05	26308.85
895.7334	1571.565	27259.2	26327.15
895.876	1573.3417	27262.7	26325.8
896.0186	1575.1176	27185.85	26253.65
896.1611	1576.8928	27084.85	26156.8
896.3036	1578.6672	26921.2	25999.85
896.4461	1580.4409	26717.35	25797.7
896.5886	1582.2138	26531.95	25608.45
896.7311	1583.986	26389.55	25461.1
896.8736	1585.7575	26282.15	25354.1
897.0161	1587.5282	26101.8	25178.85
897.1585	1589.2981	26039.45	25117.8
897.3009	1591.0673	25902	24982.15
897.4433	1592.8358	25831.45	24909
897.5857	1594.6035	25760.95	24830.6
897.7281	1596.3704	25697.95	24771.8
897.8705	1598.1366	25607.05	24680.5
898.0128	1599.9021	25624.6	24700.7
898.1551	1601.6668	25506.45	24582.7
898.2975	1603.4308	25521.5	24595.85
898.4398	1605.194	25525.2	24600.1
898.5821	1606.9564	25534.85	24618.05
898.7243	1608.7182	25647.85	24734.05
898.8666	1610.4791	25625.7	24717.25
899.0088	1612.2394	25728.55	24820.25
899.1511	1613.9988	25785.15	24874.4
899.2933	1615.7576	25962.75	25044.8
899.4355	1617.5156	26168.7	25239.7
899.5776	1619.2728	26393.05	25465.5
899.7198	1621.0293	26477.75	25552.05
899.862	1622.785	26484.4	25564.2
900.0041	1624.54	26321.6	25407.6
900.1462	1626.2942	26128.3	25214.15
900.2883	1628.0477	25782.95	24863.15
900.4304	1629.8005	25507.85	24587.4
900.5725	1631.5525	25259.25	24343.45
900.7145	1633.3037	25006.85	24090.6
900.8566	1635.0542	24837.05	23920.2
900.9986	1636.804	24614.8	23698.3
901.1406	1638.553	24548.5	23549.45
901.2826	1640.3013	24363.3	23443.7
901.4245	1642.0488	24287.7	23373.1
901.5665	1643.7955	24276.55	23363.45
901.7085	1645.5416	24242.35	23326.55
901.8504	1647.2868	24239.9	23324.6
901.9923	1649.0313	24197.05	23279.2
902.1342	1650.7751	24337.55	23416.3
902.2761	1652.5181	24466.7	23552.45
902.4179	1654.2604	24588.7	23676.2
902.5598	1656.0019	24799.7	23886.7
902.7016	1657.7427	25072.85	24156.65
902.8434	1659.4828	25367.1	24450.95
902.9852	1661.222	25529.75	24611.15
903.127	1662.9606	25534	24615.8
903.2687	1664.6984	25323.1	24405
903.4105	1666.4354	24991	24067.25
903.5522	1668.1717	24505.1	23579.7
903.6939	1669.9072	23911.2	22989.65
903.8356	1671.642	23553.05	22626.5
903.9773	1673.3761	23209.7	22289.65
904.119	1675.1094	22895.25	21978.8
904.2606	1676.8419	22641.35	21725.95
904.4022	1678.5737	22437.35	21519.6
904.5439	1680.3048	22294.6	21375.55
904.6855	1682.0351	22086.1	21165.2
904.827	1683.7646	21972.35	21047.15
904.9686	1685.4934	21872.65	20955.95
905.1101	1687.2215	21722.1	20803.9
905.2517	1688.9488	21560.85	20644.2
905.3932	1690.6754	21505.75	20592.5
905.5347	1692.4012	21470.35	20552.95
905.6761	1694.1263	21346.2	20425.2
905.8176	1695.8506	21290	20373.3
905.9591	1697.5742	21206.55	20292.5
906.1005	1699.297	21118.15	20208.85
906.2419	1701.0191	20984.55	20075
906.3833	1702.7404	20879.2	19968.1
906.5246	1704.461	20791.85	19878.6
906.666	1706.1808	20693.15	19778.4
906.8073	1707.8999	20613.7	19703.5
906.9487	1709.6182	20544.7	19636.7
907.09	1711.3358	20502.65	19595.75
907.2313	1713.0527	20442.25	19538.35
907.3725	1714.7688	20398.6	19485.9
907.5138	1716.4841	20264.7	19354.7
907.655	1718.1987	20249.35	19335.35
907.7962	1719.9126	20159.5	19251.15
907.9374	1721.6257	20070.25	19164
908.0786	1723.338	20067.45	19161.5
908.2198	1725.0496	19928.35	19019.45
908.3609	1726.7605	19883.4	18973.1
908.502	1728.4706	19794.35	18886.3
908.6431	1730.18	19687.3	18780.55
908.7842	1731.8886	19656.2	18752.85
908.9253	1733.5964	19631.7	18705
909.0664	1735.3036	19569.15	18659.9
909.2074	1737.0099	19512.25	18604.55
909.3484	1738.7156	19460	18553.5
909.4894	1740.4204	19367	18458.7
909.6304	1742.1246	19341.6	18431.5
909.7714	1743.8279	19272.7	18365.55
909.9123	1745.5306	19191.5	18289.1
910.0532	1747.2325	19161.35	18257.55
910.1941	1748.9336	19096.3	18191.45
910.335	1750.634	19025.4	18116.35
910.4759	1752.3336	18981.15	18077.65
910.6168	1754.0325	18972.95	18071.85
910.7576	1755.7307	18908.8	18006.15
910.8984	1757.4281	18873.15	17967.05
911.0392	1759.1247	18806.4	17887.65
911.18	1760.8206	18774.25	17858
911.3208	1762.5158	18772.05	17859.7
911.4615	1764.2102	18693.35	17784.9
911.6022	1765.9039	18596.35	17690.65
911.7429	1767.5968	18568.25	17664.45
911.8836	1769.289	18503.9	17600.9
912.0243	1770.9804	18491	17586.15
912.1649	1772.6711	18440.5	17532.75
912.3056	1774.361	18392.5	17483.85
912.4462	1776.0502	18342.9	17433.55
912.5868	1777.7386	18326.7	17416.4
912.7274	1779.4263	18243.2	17337.6
912.8679	1781.1132	18188.35	17285.8
913.0084	1782.7994	18177.25	17277.1
913.149	1784.4849	18107.05	17205.5
913.2895	1786.1696	18036	17124.5
913.4299	1787.8535	18016.4	17117.65
913.5704	1789.5367	17948.1	17049.55
913.7108	1791.2192	17937.3	17035.9
913.8513	1792.9009	17883.45	16952.95
913.9917	1794.5818	17809.6	16902.55
914.132	1796.2621	17792.95	16886.5
914.2724	1797.9415	17720.85	16813.5
914.4128	1799.6202	17661.55	16755.05
914.5531	1801.2982	17634.15	16726.6
914.6934	1802.9755	17606.55	16700.7
914.8337	1804.6519	17588.4	16681.85
914.9739	1806.3277	17503.2	16600.9
915.1142	1808.0027	17412.45	16514.45
915.2544	1809.6769	17413.3	16514
915.3946	1811.3504	17339.4	16441.1
915.5348	1813.0231	17328.35	16426.9
915.675	1814.6951	17267.55	16365.5
915.8151	1816.3664	17320.75	16413.6
915.9553	1818.0369	17234.6	16328.05
916.0954	1819.7067	17174.95	16271.3
916.2355	1821.3757	17152.7	16247.2
916.3755	1823.044	17125.95	16220.95
916.5156	1824.7115	17063.95	16156.2
916.6556	1826.3783	17012.75	16105.95
916.7956	1828.0443	16924.6	16023.7
916.9356	1829.7096	16924.95	16020.35
917.0756	1831.3741	16919.6	16012.25
917.2155	1833.0379	16836.2	15936.6
917.3555	1834.701	16801.4	15900.6
917.4954	1836.3633	16755.45	15857.05
917.6353	1838.0248	16704.55	15804.4
917.7751	1839.6856	16678.35	15774.75
917.915	1841.3457	16662.35	15759.15
918.0548	1843.005	16617.45	15713.1
918.1946	1844.6636	16581.25	15679.6
918.3344	1846.3214	16556.8	15652.85
918.4742	1847.9785	16571.35	15669.7
918.6139	1849.6349	16478.4	15574.45
918.7537	1851.2904	16421.6	15506.5
918.8934	1852.9453	16388	15481.85
919.0331	1854.5994	16355.15	15447.35
919.1727	1856.2528	16381.7	15469.45
919.3124	1857.9054	16306.6	15402.3
919.452	1859.5572	16292.4	15390
919.5916	1861.2083	16244.45	15342.6
919.7312	1862.8587	16246.05	15338.7
919.8708	1864.5084	16191	15283.05
920.0103	1866.1572	16153.6	15247
920.1498	1867.8054	16081.15	15174.15
920.2893	1869.4528	16021.6	15113.9
920.4288	1871.0994	15961.1	15054.6
920.5683	1872.7453	15964.75	15058.85
920.7077	1874.3905	15936.25	15025
920.8471	1876.0349	15886.55	14982.85
920.9865	1877.6786	15883.2	14977.85
921.1259	1879.3215	15850.3	14946.5
921.2653	1880.9637	15820.15	14914.25
921.4046	1882.6051	15738.05	14835.45
921.5439	1884.2458	15730.45	14825.85
921.6832	1885.8858	15664.7	14760.95
921.8225	1887.525	15639.8	14737
921.9617	1889.1634	15590.6	14686.45
922.101	1890.8011	15509.15	14603.8
922.2402	1892.4381	15466.85	14564.1
922.3794	1894.0743	15471	14565.9
922.5185	1895.7098	15412.2	14507.4
922.6577	1897.3446	15400.85	14497.35
922.7968	1898.9786	15382.25	14475.25
922.9359	1900.6118	15331.6	14429.3
923.075	1902.2443	15256.95	14350.55
923.214	1903.8761	15234.3	14333.05
923.3531	1905.5071	15128.95	14222.9
923.4921	1907.1374	15080.15	14173.85
923.6311	1908.7669	15049.85	14147.9
923.77	1910.3957	15014.8	14116.3
923.909	1912.0237	14925.25	14023.75
924.0479	1913.651	14913	14007
924.1868	1915.2776	14869.55	13967.15
924.3257	1916.9034	14831.7	13932.6
924.4646	1918.5285	14749.55	13849.75
924.6034	1920.1528	14704.15	13805.1
924.7422	1921.7764	14697.4	13793.5
924.881	1923.3992	14625.75	13721.5
925.0198	1925.0213	14527.15	13624.6
925.1586	1926.6427	14466.7	13566.25
925.2973	1928.2633	14493.9	13525.65
925.436	1929.8832	14413.7	13511.6
925.5747	1931.5023	14332.35	13430.1
925.7134	1933.1207	14336.95	13435.8
925.852	1934.7383	14308.1	13403.95
925.9906	1936.3552	14244.55	13346.9
926.1292	1937.9714	14215.15	13314.15
926.2678	1939.5868	14136.45	13234.1
926.4064	1941.2015	14051.05	13147.65
926.5449	1942.8154	14033.6	13129.55
926.6834	1944.4286	13958.9	13053.25
926.8219	1946.041	13905	12984.3
926.9604	1947.6528	13845.95	12939.05
927.0988	1949.2637	13823.1	12920.95
927.2372	1950.8739	13746.8	12845.95
927.3756	1952.4834	13753	12851.3
927.514	1954.0921	13718.15	12817.3
927.6523	1955.7001	13683.35	12780.85
927.7907	1957.3074	13627.25	12728.45
927.929	1958.9139	13550.55	12654.1
928.0673	1960.5197	13531.45	12633.75
928.2055	1962.1247	13462.4	12565.1
928.3438	1963.729	13435.35	12538.75
928.482	1965.3325	13394.7	12475.25
928.6202	1966.9353	13316.6	12424.15
928.7584	1968.5374	13284.5	12386.1
928.8965	1970.1387	13247.05	12347.85
929.0346	1971.7393	13188.3	12292.95
929.1727	1973.3392	13164.9	12267.65
929.3108	1974.9383	13117.25	12221.6
929.4489	1976.5366	13043.95	12148.7
929.5869	1978.1342	13021.75	12128.9
929.7249	1979.7311	12984.05	12089.35
929.8629	1981.3273	12939.65	12046.5
930.0009	1982.9227	12924.85	12027.9
930.1388	1984.5173	12863.25	11970.3
930.2767	1986.1112	12815.9	11922.75
930.4146	1987.7044	12790.45	11898.4
930.5525	1989.2968	12734.9	11841.9
930.6904	1990.8885	12698.7	11801.05
930.8282	1992.4795	12678.75	11785.55
930.966	1994.0697	12642.4	11750.6
931.1038	1995.6592	12598.35	11704.05
931.2415	1997.2479	12548.3	11655.35
931.3793	1998.8359	12539.25	11648.75
931.517	2000.4232	12500.2	11611.75
931.6547	2002.0097	12434.55	11550.35
931.7923	2003.5955	12374.7	11487.95
931.93	2005.1805	12392.6	11501.6
932.0676	2006.7648	12331.85	11441
932.2052	2008.3484	12317.3	11427.75
932.3427	2009.9312	12304.8	11416.2
932.4803	2011.5133	12237.05	11350.65
932.6178	2013.0946	12199.9	11311.7
932.7553	2014.6752	12187	11300.55
932.8928	2016.2551	12158.2	11267.3
933.0302	2017.8342	12089	11199.3
933.1676	2019.4126	12057.5	11170.8
933.305	2020.9902	11988.85	11102.3
933.4424	2022.5672	11958.95	11072.4
933.5798	2024.1433	11972.5	11079.75
933.7171	2025.7188	11896.9	11011.9
933.8544	2027.2935	11843.15	10954.8
933.9917	2028.8674	11828.4	10943.25
934.129	2030.4406	11792.05	10907.65
934.2662	2032.0131	11742.95	10860.15
934.4034	2033.5849	11700.6	10814.45
934.5406	2035.1559	11690.65	10805.2
934.6778	2036.7261	11688.85	10800.55
934.8149	2038.2957	11652.3	10760.85
934.952	2039.8645	11625.05	10732.8
935.0891	2041.4325	11627.1	10734.9
935.2262	2042.9998	11579.5	10690.1
935.3632	2044.5664	11511.15	10621.55
935.5002	2046.1323	11501.35	10615.25
935.6372	2047.6974	11470.9	10585.85
935.7742	2049.2617	11403.8	10519.05
935.9111	2050.8254	11411.1	10520.8
936.048	2052.3883	11404.05	10512.25
936.1849	2053.9504	11343.65	10451.8
936.3218	2055.5118	11304.55	10412.25
936.4586	2057.0725	11281.9	10390.9
936.5955	2058.6325	11242.4	10357.2
936.7323	2060.1917	11182.4	10295.1
936.869	2061.7502	11168.2	10279.8
937.0058	2063.3079	11118.15	10232.4
937.1425	2064.8649	11087.5	10198
937.2792	2066.4212	11083.9	10193.85
937.4159	2067.9767	11054.55	10165.05
937.5525	2069.5315	11028.6	10137.15
937.6891	2071.0856	10947.3	10058.2
937.8257	2072.6389	10924.25	10037.25
937.9623	2074.1915	10880.3	9995.3
938.0989	2075.7433	10792.15	9903.95
938.2354	2077.2945	10782	9893.05
938.3719	2078.8448	10739.05	9848.15
938.5084	2080.3945	10733.15	9843.95
938.6448	2081.9434	10692.35	9803.5
938.7812	2083.4916	10662.45	9767.6
938.9176	2085.039	10642.4	9747.7
939.054	2086.5857	10616.9	9719.35
939.1903	2088.1317	10600.9	9704.7
939.3267	2089.677	10586.3	9689.85
939.463	2091.2215	10555.2	9655.9
939.5992	2092.7652	10524	9624.1
939.7355	2094.3083	10485.9	9589.45
939.8717	2095.8506	10458.8	9566.7
940.0079	2097.3921	10457.45	9565.3
940.1441	2098.933	10409.45	9516.65
940.2802	2100.4731	10406	9513.1
940.4163	2102.0124	10374.55	9474.3
940.5524	2103.5511	10371.35	9477.4
940.6885	2105.089	10348.05	9454.85
940.8245	2106.6261	10301	9408.35
940.9606	2108.1626	10248.05	9354.9
941.0965	2109.6983	10249.25	9329.15
941.2325	2111.2332	10215.1	9324.75
941.3684	2112.7675	10187.65	9292.05
941.5044	2114.301	10140.3	9243.05
941.6403	2115.8337	10170.15	9276.15
941.7761	2117.3657	10120.55	9226.55
941.912	2118.897	10101.1	9205.4
942.0478	2120.4276	10056.7	9153.85
942.1835	2121.9575	10015.9	9120
942.3193	2123.4866	10014.5	9117.6
942.455	2125.0149	9992.75	9095.05
942.5907	2126.5426	9923.4	9032.15
942.7264	2128.0695	9918.1	9027.45
942.8621	2129.5956	9863.2	8976.45
942.9977	2131.1211	9851.95	8958.35
943.1333	2132.6458	9837.35	8944.6
943.2689	2134.1698	9804.85	8909.1
943.4044	2135.693	9784.2	8886
943.54	2137.2155	9803.55	8902.55
943.6755	2138.7373	9737.95	8846.9
943.8109	2140.2584	9686.1	8797.15
943.9464	2141.7787	9657.55	8766.6
944.0818	2143.2983	9636.1	8750.5
944.2172	2144.8171	9590.85	8706.8
944.3526	2146.3353	9551.65	8661.05
944.4879	2147.8527	9542	8652.5
944.6232	2149.3693	9546	8651.6
944.7585	2150.8853	9498.25	8603.25
944.8938	2152.4005	9447.4	8552.6
945.029	2153.9149	9429.65	8534.95
945.1642	2155.4287	9507.25	8504.4
945.2994	2156.9417	9403.4	8507.15
945.4346	2158.454	9388	8492.6
945.5697	2159.9655	9336.1	8445.6
945.7048	2161.4764	9341.25	8451.9
945.8399	2162.9865	9306.6	8413
945.9749	2164.4958	9247.3	8356.85
946.1099	2166.0045	9226.45	8333.3
946.2449	2167.5124	9216.05	8324.1
946.3799	2169.0195	9187.3	8293.85
946.5148	2170.526	9184.85	8291.95
946.6498	2172.0317	9167.8	8274.8
946.7846	2173.5367	9148.35	8256.95
946.9195	2175.0409	9110.85	8219.85
947.0543	2176.5445	9079	8186.6
947.1891	2178.0473	9070.3	8172.95
947.3239	2179.5494	9004.45	8106.1
947.4587	2181.0507	9011	8119.2
947.5934	2182.5513	8978.2	8084.7
947.7281	2184.0512	8938.4	8045.95
947.8628	2185.5504	8903.4	8010.55
947.9974	2187.0488	8876.4	7986.55
948.132	2188.5465	8823.3	7934.1
948.2666	2190.0435	8813.25	7923.05
948.4012	2191.5397	8774.1	7881.45
948.5357	2193.0353	8762.45	7867.6
948.6702	2194.5301	8714.35	7816.8
948.8047	2196.0241	8702.85	7804.05
948.9392	2197.5175	8685.4	7786.3
949.0736	2199.0101	8675.1	7772.15
949.208	2200.502	8599.4	7707.1
949.3424	2201.9931	8570.7	7681.15
949.4767	2203.4835	8572.5	7682.8
949.611	2204.9733	8548.45	7643.8
949.7453	2206.4622	8504.65	7615.8
949.8796	2207.9505	8486.4	7593.35
950.0138	2209.438	8420.05	7533.35
950.148	2210.9248	8412.5	7520.5
950.2822	2212.4109	8399.4	7506.6
950.4164	2213.8962	8368.05	7470.65
950.5505	2215.3809	8349.8	7449.85
950.6846	2216.8648	8332.3	7433.25
950.8186	2218.3479	8319.75	7417.8
950.9527	2219.8304	8280.75	7378.05
951.0867	2221.3121	8256.2	7357.1
951.2207	2222.7931	8221.1	7325.9
951.3546	2224.2733	8197.35	7303
951.4886	2225.7529	8160.65	7267.5
951.6225	2227.2317	8138.5	7242.65
951.7563	2228.7098	8127	7238.65
951.8902	2230.1872	8075.25	7184.7
952.024	2231.6638	8074.6	7184.95
952.1578	2233.1397	8023.95	7131.95
952.2916	2234.6149	7999	7108.85
952.4253	2236.0894	7972.95	7081
952.559	2237.5632	7970.9	7076.9
952.6927	2239.0362	7960.15	7066
952.8263	2240.5085	7925.85	7033.65
952.9599	2241.9801	7895.8	7001.5
953.0935	2243.4509	7863.3	6968.55
953.2271	2244.921	7845.2	6947.75
953.3606	2246.3904	7799.3	6900.6
953.4941	2247.8591	7762.5	6867.4
953.6276	2249.3271	7764.05	6866.55
953.7611	2250.7943	7740.75	6842.45
953.8945	2252.2608	7710.25	6813.3
954.0279	2253.7266	7676.55	6781.9
954.1612	2255.1917	7665.85	6772.65
954.2946	2256.656	7639.35	6745.55
954.4279	2258.1197	7632.45	6742.6
954.5612	2259.5826	7611.8	6716.3
954.6944	2261.0447	7580.95	6687.1
954.8276	2262.5062	7561.3	6665.7
954.9608	2263.9669	7550.55	6653.7
955.094	2265.4269	7545.6	6650.4
955.2271	2266.8862	7516.45	6624.1
955.3602	2268.3448	7489.15	6598.45
955.4933	2269.8026	7476.8	6586.8
955.6264	2271.2598	7435.55	6544.5
955.7594	2272.7162	7433.2	6542.45
955.8924	2274.1719	7411.6	6514.35
956.0253	2275.6268	7379.1	6483.45
956.1583	2277.0811	7386.25	6490.8
956.2912	2278.5346	7343.05	6450.8
956.4241	2279.9874	7330.65	6439.25
956.5569	2281.4395	7328.45	6438.45
956.6897	2282.8908	7298.95	6400.6
956.8225	2284.3414	7279.35	6382.7
956.9553	2285.7914	7263.1	6369.45
957.088	2287.2406	7244.35	6347.5
957.2207	2288.689	7222.2	6323.2
957.3534	2290.1368	7214.65	6313.2
957.486	2291.5838	7160.3	6256.65
957.6186	2293.0302	7161.9	6256.9
957.7512	2294.4758	7123.95	6225.7
957.8838	2295.9206	7099.6	6201.4
958.0163	2297.3648	7072.4	6178.85
958.1488	2298.8082	7065	6170.25
958.2813	2300.251	7060.05	6164.95
958.4137	2301.693	7015.25	6115.9
958.5461	2303.1343	7029.35	6133.75
958.6785	2304.5748	7011.4	6117.15
958.8108	2306.0147	6985.05	6092.35
958.9432	2307.4538	6962.7	6069.85
959.0754	2308.8922	6932.45	6044.6
959.2077	2310.3299	6909.85	6019.45
959.3399	2311.7669	6872.3	5981.65
959.4721	2313.2031	6881.85	5988.6
959.6043	2314.6387	6843.6	5950.95
959.7365	2316.0735	6805.15	5910.5
959.8686	2317.5076	6771.45	5876.7
960.0006	2318.941	6783.3	5885.8
960.1327	2320.3737	6777.4	5880
960.2647	2321.8056	6748.2	5850.3
960.3967	2323.2369	6724.85	5828.95
960.5287	2324.6674	6721.2	5826.15
960.6606	2326.0972	6680.95	5785.25
960.7925	2327.5263	6674.15	5777.45
960.9244	2328.9547	6655.2	5759
961.0562	2330.3823	6632.25	5731.35
961.1881	2331.8092	6647.7	5747.9
961.3198	2333.2355	6581.4	5679.95
961.4516	2334.661	6564.85	5667.6
961.5833	2336.0858	6575.7	5676.7
961.715	2337.5098	6571.1	5677.05
961.8467	2338.9332	6542.25	5647.2
961.9783	2340.3558	6510.65	5613.9
962.1099	2341.7778	6482.65	5589.25
962.2415	2343.199	6474.4	5578.2
962.373	2344.6195	6437.5	5545.3
962.5045	2346.0393	6438.25	5546
962.636	2347.4583	6425.2	5530.45
962.7675	2348.8767	6413.55	5516
962.8989	2350.2943	6376.9	5478
963.0303	2351.7113	6390.8	5489.95
963.1617	2353.1275	6352.1	5452.45
963.293	2354.543	6359.9	5453.8
963.4243	2355.9578	6328.4	5431.4
963.5556	2357.3718	6266.25	5374.05
963.6868	2358.7852	6274.15	5379.65
963.818	2360.1978	6251.4	5357.85
963.9492	2361.6098	6218.95	5326.55
964.0803	2363.021	6220.95	5322.25
964.2114	2364.4315	6186.85	5291.7
964.3425	2365.8413	6178.25	5281.05
964.4736	2367.2504	6161	5267.4
964.6046	2368.6587	6125	5233.45
964.7356	2370.0664	6093.35	5199.85
964.8666	2371.4733	6082	5186.15
964.9975	2372.8795	6067.25	5173.45
965.1284	2374.285	6037.6	5143.4
965.2593	2375.6899	6014.2	5120.75
965.3901	2377.0939	5992.55	5099.55
965.5209	2378.4973	5984.8	5091.8
965.6517	2379.9	5949.95	5057.7
965.7825	2381.3019	5922.85	5029.7
965.9132	2382.7032	5936.05	5047.5
966.0439	2384.1037	5895.65	5006.75
966.1745	2385.5035	5878.5	4988.4
966.3051	2386.9027	5856.15	4967.95
966.4357	2388.3011	5853	4959.4
966.5663	2389.6987	5839.25	4946.9
966.6968	2391.0957	5805.7	4914.3
966.8273	2392.492	5781.85	4889.9
966.9578	2393.8876	5762.7	4869.15
967.0882	2395.2824	5743.75	4850.9
967.2186	2396.6765	5721.7	4830.85
967.349	2398.07	5699.7	4806.35
967.4793	2399.4627	5683.45	4788.95
967.6097	2400.8547	5674.95	4781.2
967.7399	2402.246	5663.45	4763.05
967.8702	2403.6366	5630.3	4738.2
968.0004	2405.0265	5602.55	4712.65
968.1306	2406.4156	5593.35	4698.8
968.2607	2407.8041	5571.65	4674.75
968.3909	2409.1918	5563.3	4665.8
968.521	2410.5789	5550.6	4656.95
968.651	2411.9652	5534.3	4636.95
968.781	2413.3508	5524.15	4631.5
968.911	2414.7358	5483.85	4589.15
969.041	2416.12	5459.65	4567.7
969.1709	2417.5035	5473.8	4582.1
969.3008	2418.8863	5429.5	4536.85
969.4307	2420.2684	5414.5	4521.55
969.5606	2421.6497	5394.6	4500.35
969.6904	2423.0304	5362.05	4468.5
969.8201	2424.4104	5352.8	4461.95
969.9499	2425.7896	5346.4	4452.8
970.0796	2427.1682	5323.35	4430.1
970.2093	2428.546	5320.85	4426.1
970.3389	2429.9232	5296.7	4400.2
970.4685	2431.2996	5294.15	4400.15
970.5981	2432.6753	5281.65	4388.05
970.7277	2434.0503	5263.9	4367.55
970.8572	2435.4246	5237.35	4342.5
970.9867	2436.7982	5227.55	4328.9
971.1161	2438.1711	5222.15	4329.3
971.2456	2439.5433	5203.8	4307.75
971.375	2440.9148	5180.55	4281.25
971.5043	2442.2856	5139.55	4246.5
971.6336	2443.6557	5146.2	4250.25
971.7629	2445.025	5116.65	4222.35
971.8922	2446.3937	5108.25	4212.8
972.0214	2447.7617	5089	4192.35
972.1506	2449.1289	5087.5	4192.9
972.2798	2450.4955	5075.55	4178.1
972.4089	2451.8613	5070.85	4177.8
972.538	2453.2265	5068.3	4175.1
972.6671	2454.5909	5036.45	4142.45
972.7961	2455.9546	5028.6	4135.05
972.9251	2457.3177	5008.8	4115.6
973.0541	2458.68	5017.35	4124.5
973.1831	2460.0416	4976.3	4082.6
973.312	2461.4025	4990.85	4096.65
973.4408	2462.7627	4969.95	4067.1
973.5697	2464.1222	4970.1	4077.8
973.6985	2465.4811	4928.5	4037.3
973.8273	2466.8392	4928	4037.7
973.956	2468.1966	4915.45	4020.85
974.0847	2469.5533	4913.7	4017.3
974.2134	2470.9093	4896.45	4003.25
974.3421	2472.2645	4867.9	3972.35
974.4707	2473.6191	4867.45	3974.5
974.5993	2474.973	4854.25	3958.95
974.7278	2476.3262	4839.8	3946.35
974.8563	2477.6787	4828.95	3934.6
974.9848	2479.0305	4799.75	3908.1
975.1132	2480.3816	4795.15	3902.5
975.2417	2481.7319	4770.45	3876.8
975.37	2483.0816	4742.9	3849.55
975.4984	2484.4306	4748	3855.25
975.6267	2485.7789	4714.75	3821.5
975.755	2487.1264	4692.5	3798
975.8833	2488.4733	4690	3798.05
976.0115	2489.8195	4693.35	3785
976.1397	2491.165	4651.35	3755.15
976.2678	2492.5097	4650.45	3755.9
976.3959	2493.8538	4638.5	3745.1
976.524	2495.1972	4612.55	3720.55
976.6521	2496.5398	4603.45	3708.35
976.7801	2497.8818	4608.8	3713.45
976.9081	2499.2231	4572.35	3676.75
977.036	2500.5637	4552.75	3655.85
977.164	2501.9035	4544.2	3647.95
977.2918	2503.2427	4538.5	3641.15
977.4197	2504.5812	4529.1	3636.65
977.5475	2505.919	4524.2	3627.3
977.6753	2507.256	4503.65	3609.4
977.8031	2508.5924	4482.7	3589.6
977.9308	2509.9281	4475.3	3575.45
978.0585	2511.2631	4459.7	3564.4
978.1861	2512.5974	4450.3	3555.55
978.3137	2513.9309	4423.6	3527.75
978.4413	2515.2638	4440.9	3520.4
978.5689	2516.596	4419.3	3527.25
978.6964	2517.9275	4393.55	3498.35
978.8239	2519.2583	4383.15	3488.5
978.9513	2520.5884	4343.95	3451
979.0788	2521.9178	4347.05	3452.55
979.2062	2523.2465	4333.05	3442.45
979.3335	2524.5745	4315.75	3423.05
979.4608	2525.9018	4299.25	3405.45
979.5881	2527.2284	4301.55	3408.75
979.7154	2528.5543	4293.9	3399.65
979.8426	2529.8796	4296	3401.65
979.9698	2531.2041	4275	3381.15
980.0969	2532.5279	4265.95	3373.95
980.224	2533.851	4271.85	3377.6
980.3511	2535.1735	4239.45	3346.85
980.4781	2536.4952	4238	3345.8
980.6052	2537.8163	4229.7	3334.15
980.7321	2539.1366	4214.1	3319.85
980.8591	2540.4562	4207.95	3310
980.986	2541.7752	4202.85	3308.2
981.1129	2543.0935	4186.45	3291
981.2397	2544.411	4181.9	3284.95
981.3665	2545.7279	4171.85	3278.15
981.4933	2547.0441	4178.95	3281.7
981.62	2548.3596	4169.2	3271.8
981.7467	2549.6744	4163.8	3269.75
981.8734	2550.9885	4134.45	3236.8
982.0001	2552.3019	4119.8	3225.45
982.1267	2553.6146	4111.45	3219.65
982.2532	2554.9266	4101.9	3207.9
982.3798	2556.2379	4102.1	3204.65
982.5063	2557.5485	4073.6	3182.15
982.6327	2558.8585	4087.7	3186.25
982.7592	2560.1677	4070.2	3171.65
982.8856	2561.4762	4056.9	3163.45
983.0119	2562.7841	4052.9	3157.5
983.1383	2564.0913	4044.65	3151
983.2646	2565.3977	4046.6	3153
983.3908	2566.7035	4013.75	3119.25
983.517	2568.0086	4021.4	3123.45
983.6432	2569.313	4010.85	3114.95
983.7694	2570.6167	4007.4	3110.15
983.8955	2571.9197	3991	3095.7
984.0216	2573.222	3987.65	3089.75
984.1476	2574.5236	3984.65	3088.15
984.2737	2575.8246	3973.25	3076.8
984.3996	2577.1248	3972.4	3075.2
984.5256	2578.4244	3957.75	3065.35
984.6515	2579.7232	3949.5	3055.85
984.7774	2581.0214	3965.75	3038.55
984.9032	2582.3189	3926.05	3031.35
985.029	2583.6157	3935.95	3036.05
985.1548	2584.9118	3933.4	3038.65
985.2806	2586.2072	3909.95	3013.25
985.4063	2587.5019	3904.8	3009.25
985.5319	2588.7959	3891.75	2996.35
985.6576	2590.0893	3895.25	2999.65
985.7832	2591.3819	3896	3002.9
985.9087	2592.6739	3877.6	2983.15
986.0343	2593.9652	3862	2967.8
986.1597	2595.2557	3862.85	2967.95
986.2852	2596.5456	3848.45	2951.4
986.4106	2597.8348	3830.5	2934.65
986.536	2599.1234	3812.4	2917.75
986.6614	2600.4112	3821.95	2929
986.7867	2601.6983	3819.15	2920.35
986.912	2602.9848	3807.1	2914.25
987.0372	2604.2705	3793.85	2892.85
987.1624	2605.5556	3785.75	2891.9
987.2876	2606.84	3764.2	2869.7
987.4128	2608.1237	3755.4	2860.1
987.5379	2609.4067	3732.3	2839.15
987.6629	2610.689	3741.1	2837.65
987.788	2611.9707	3737	2839
987.913	2613.2516	3724.15	2826.15
988.0379	2614.5319	3684.9	2791.7
988.1629	2615.8115	3698.45	2804.2
988.2878	2617.0903	3679.25	2784.15
988.4126	2618.3685	3673.15	2777.75
988.5375	2619.6461	3660.55	2764.5
988.6622	2620.9229	3655.45	2760.3
988.787	2622.199	3636.9	2742.45
988.9117	2623.4745	3628.6	2736
989.0364	2624.7493	3617.7	2723.95
989.161	2626.0234	3617.1	2723.85
989.2857	2627.2968	3605	2710.2
989.4102	2628.5695	3587.1	2690.25
989.5348	2629.8415	3575.1	2682.9
989.6593	2631.1128	3574.85	2680.9
989.7837	2632.3835	3556.05	2665.35
989.9082	2633.6535	3548.1	2654.75
990.0326	2634.9228	3545.3	2651.4
990.1569	2636.1914	3529.9	2639.1
990.2812	2637.4593	3520.5	2621.65
990.4055	2638.7265	3506.55	2613.75
990.5298	2639.9931	3494.3	2601
990.654	2641.259	3496.35	2602
990.7782	2642.5242	3477.35	2582.65
990.9023	2643.7887	3470.15	2574.9
991.0264	2645.0525	3460.35	2565.15
991.1505	2646.3156	3462.55	2554.5
991.2745	2647.5781	3451	2556.1
991.3985	2648.8398	3433.35	2540.75
991.5225	2650.1009	3428.05	2530.8
991.6464	2651.3613	3422.55	2531.3
991.7703	2652.6211	3410.05	2517.5
991.8942	2653.8801	3403.85	2511.45
992.018	2655.1385	3396.55	2501.65
992.1418	2656.3961	3398.1	2505.2
992.2655	2657.6531	3386.35	2494.55
992.3892	2658.9094	3376.3	2481.5
992.5129	2660.1651	3378.8	2485.75
992.6366	2661.42	3363	2467.95
992.7602	2662.6743	3356.25	2464.4
992.8837	2663.9279	3365.7	2473.1
993.0073	2665.1808	3339.1	2444.85
993.1307	2666.433	3349.75	2454.3
993.2542	2667.6846	3334.2	2439.1
993.3776	2668.9354	3329.95	2434.35
993.501	2670.1856	3324.8	2431.65
993.6244	2671.4351	3319.65	2429
993.7477	2672.6839	3301.95	2406.95
993.8709	2673.9321	3315.1	2423.8
993.9942	2675.1795	3315.15	2422.15
994.1174	2676.4263	3295.95	2403.25
994.2405	2677.6724	3297.1	2403.65
994.3637	2678.9179	3279.5	2384.5
994.4868	2680.1626	3291.95	2400.65
994.6098	2681.4067	3270.65	2378.3
994.7328	2682.6501	3273.3	2381
994.8558	2683.8928	3258.45	2366.6
994.9788	2685.1348	3243.5	2350.7
995.1017	2686.3761	3257.7	2365.55
995.2245	2687.6168	3228.45	2335.05
995.3474	2688.8568	3211	2317.5
995.4702	2690.0961	3205.4	2314.4
995.5929	2691.3348	3210	2316.05
995.7156	2692.5727	3208.15	2316.45
995.8383	2693.81	3186.15	2293.3
995.961	2695.0466	3172.6	2280.65
996.0836	2696.2826	3164.75	2269.95
996.2062	2697.5178	3173.2	2279.15
996.3287	2698.7524	3167.05	2275.05
996.4512	2699.9863	3151.1	2256.75
996.5737	2701.2195	3144.05	2252.15
996.6961	2702.452	3135	2242.75
996.8185	2703.6839	3147.4	2253.1
996.9408	2704.9151	3135.8	2242.45
997.0631	2706.1456	3127.95	2237.65
997.1854	2707.3755	3137.7	2245.55
997.3077	2708.6046	3134.95	2242
997.4299	2709.8331	3135.8	2244.65
997.552	2711.0609	3133.5	2239.8
997.6742	2712.2881	3127.65	2234.25
997.7963	2713.5145	3124.95	2230.05
997.9183	2714.7403	3125.25	2232.2
998.0403	2715.9654	3140.45	2248.4
998.1623	2717.1899	3154.1	2248.85
998.2842	2718.4136	3155.6	2263.9
998.4062	2719.6367	3135.2	2242.55
998.528	2720.8591	3137.7	2240.05
998.6498	2722.0809	3146.85	2255.1
998.7716	2723.3019	3159.55	2263.85
998.8934	2724.5223	3144.7	2250.85
999.0151	2725.7421	3151.05	2258.05
999.1368	2726.9611	3146.2	2254.35
999.2584	2728.1795	3125.05	2229.65
999.38	2729.3972	3114	2224.1
999.5016	2730.6142	3099	2198.9
999.6231	2731.8306	3068.15	2174.9
999.7446	2733.0462	3056.8	2163.15
999.8661	2734.2612	3040	2142.2
999.9875	2735.4756	3029.05	2134.35
1000.1089	2736.6892	2996.55	2104.55
1000.2302	2737.9022	2974.65	2084
1000.3515	2739.1145	2961	2068.1
1000.4728	2740.3262	2942.75	2044.5
1000.594	2741.5372	2907	2015.25
1000.7152	2742.7475	2900.25	2008.95
1000.8363	2743.9571	2877.85	1985.9
1000.9575	2745.1661	2881.4	1983.15
1001.0785	2746.3744	2855.75	1962.9
1001.1996	2747.582	2846.6	1955.4
1001.3206	2748.7889	2835.5	1942.5
1001.4415	2749.9952	2820.15	1929
1001.5625	2751.2008	2807.85	1914.2
1001.6833	2752.4057	2790.3	1897.85
1001.8042	2753.61	2798.95	1908.1
1001.925	2754.8136	2787.8	1895.1
1002.0458	2756.0165	2786.55	1894.75
1002.1665	2757.2188	2775	1885.1
1002.2872	2758.4204	2762.05	1871.6
1002.4078	2759.6213	2762.85	1871.3
1002.5285	2760.8215	2759.85	1864.25
1002.649	2762.0211	2759	1867.45
1002.7696	2763.22	2740.45	1847.35
1002.8901	2764.4182	2724.15	1832.6
1003.0106	2765.6158	2723	1832.95
1003.131	2766.8127	2721.25	1830.4
1003.2514	2768.009	2713.45	1821.4
1003.3717	2769.2045	2691.1	1800
1003.492	2770.3994	2698.1	1804.05
1003.6123	2771.5936	2677.35	1786.25
1003.7325	2772.7872	2670.75	1780.7
1003.8527	2773.9801	2656	1765.7
1003.9729	2775.1723	2673.2	1766.75
1004.093	2776.3639	2648.8	1756.75
1004.2131	2777.5548	2654.3	1761.3
1004.3331	2778.745	2636.85	1746.2
1004.4531	2779.9346	2634.2	1743.65
1004.5731	2781.1235	2633.9	1742.95
1004.693	2782.3117	2631.3	1743.2
1004.8129	2783.4992	2634.7	1746.35
1004.9328	2784.6861	2630.75	1742.55
1005.0526	2785.8723	2638.9	1747.55
1005.1723	2787.0579	2632.75	1740.35
1005.2921	2788.2428	2614.75	1722.8
1005.4118	2789.427	2645.35	1755.75
1005.5314	2790.6106	2638.75	1749.8
1005.651	2791.7935	2643.05	1752.75
1005.7706	2792.9757	2645.35	1757.5
1005.8902	2794.1573	2656.65	1765.2
1006.0097	2795.3382	2665.85	1776.8
1006.1291	2796.5184	2668.75	1779.7
1006.2485	2797.698	2680.4	1787.9
1006.3679	2798.8769	2688.4	1796.05
1006.4873	2800.0551	2701.9	1812.8
1006.6066	2801.2327	2713.85	1822.4
1006.7258	2802.4096	2724.75	1837.75
1006.8451	2803.5859	2728	1839.3
1006.9642	2804.7615	2767.65	1878.65
1007.0834	2805.9364	2768.8	1877.95
1007.2025	2807.1106	2774.95	1886.55
1007.3216	2808.2842	2818.2	1927.45
1007.4406	2809.4572	2839.2	1947.75
1007.5596	2810.6294	2876.5	1985.5
1007.6785	2811.801	2908.15	2020.75
1007.7975	2812.972	2937.2	2048.8
1007.9163	2814.1423	2971.45	2082.4
1008.0352	2815.3119	3017.9	2128.4
1008.154	2816.4808	3065.85	2178.25
1008.2727	2817.6491	3115.25	2223.7
1008.3914	2818.8167	3138.8	2248.6
1008.5101	2819.9837	3194.85	2302.55
1008.6288	2821.15	3237.15	2346.95
1008.7474	2822.3157	3255.1	2367.75
1008.8659	2823.4807	3318.4	2427.55
1008.9844	2824.645	3358.3	2468.85
1009.1029	2825.8086	3379.05	2491.4
1009.2214	2826.9716	3426.95	2540.55
1009.3398	2828.134	3462.3	2574.1
1009.4581	2829.2957	3495.05	2607.1
1009.5764	2830.4567	3520.65	2631.6
1009.6947	2831.617	3526.1	2639
1009.813	2832.7767	3546.3	2658
1009.9312	2833.9358	3543.3	2653.65
1010.0493	2835.0941	3543.9	2653.3
1010.1675	2836.2519	3522.3	2632.75
1010.2855	2837.4089	3517	2629.3
1010.4036	2838.5653	3490.95	2603.35
1010.5216	2839.7211	3478.65	2591.2
1010.6396	2840.8761	3495.45	2606.05
1010.7575	2842.0306	3509.35	2621.25
1010.8754	2843.1843	3538	2648
1010.9932	2844.3374	3593.2	2704.4
1011.111	2845.4899	3635.7	2745
1011.2288	2846.6417	3697.85	2810.1
1011.3465	2847.7928	3782.9	2897.5
1011.4642	2848.9433	3838.1	2951.55
1011.5818	2850.0931	3930.9	3041.65
1011.6995	2851.2422	3976.55	3086.8
1011.817	2852.3907	4050.1	3159.5
1011.9345	2853.5385	4108.9	3218.8
1012.052	2854.6857	4162.6	3266.95
1012.1695	2855.8323	4202	3314.9
1012.2869	2856.9781	4247.6	3362.3
1012.4042	2858.1233	4302.35	3415
1012.5216	2859.2679	4329.2	3441.75
1012.6389	2860.4118	4382.95	3494.25
1012.7561	2861.555	4429.5	3534.4
1012.8733	2862.6976	4434	3542.4
1012.9905	2863.8395	4461.5	3574.75
1013.1076	2864.9808	4486.35	3601.05
1013.2247	2866.1214	4507.05	3621.15
1013.3417	2867.2614	4501.7	3614.1
1013.4587	2868.4007	4512.45	3621.3
1013.5757	2869.5393	4532.9	3643.4
1013.6926	2870.6773	4544.2	3652.15
1013.8095	2871.8146	4552.65	3663.1
1013.9263	2872.9513	4551.2	3661
1014.0431	2874.0874	4532.95	3646.5
1014.1599	2875.2227	4519.5	3631.6
1014.2766	2876.3574	4504.45	3619.65
1014.3933	2877.4915	4458.5	3572.65
1014.51	2878.6249	4439.95	3553
1014.6266	2879.7577	4401.55	3512.55
1014.7431	2880.8898	4391.7	3491.75
1014.8596	2882.0212	4373.7	3486.1
1014.9761	2883.152	4357.75	3470.75
1015.0925	2884.2821	4331.55	3447
1015.2089	2885.4116	4320.3	3433.1
1015.3253	2886.5405	4312.85	3425.3
1015.4416	2887.6686	4325.5	3434.55
1015.5579	2888.7962	4320.65	3434.75
1015.6741	2889.923	4327.55	3439.75
1015.7903	2891.0493	4326.45	3440.9
1015.9065	2892.1748	4351.05	3463.15
1016.0226	2893.2997	4357.25	3468.6
1016.1387	2894.424	4367.65	3482.2
1016.2547	2895.5476	4360.9	3474.35
1016.3707	2896.6706	4389.7	3502.8
1016.4866	2897.7929	4431.8	3543.2
1016.6025	2898.9145	4415.85	3527.7
1016.7184	2900.0355	4461.95	3575.9
1016.8342	2901.1559	4487.65	3601.45
1016.95	2902.2756	4516.95	3628.8
1017.0658	2903.3946	4536.9	3650.7
1017.1815	2904.513	4565.9	3676.05
1017.2971	2905.6308	4594.65	3708.75
1017.4127	2906.7479	4597.05	3708.3
1017.5283	2907.8643	4619.35	3732.75
1017.6439	2908.9801	4634.8	3745.7
1017.7594	2910.0953	4659.1	3774.65
1017.8748	2911.2098	4632.15	3741.9
1017.9902	2912.3236	4623.2	3730.75
1018.1056	2913.4368	4612.15	3722.6
1018.2209	2914.5494	4575.95	3687.7
1018.3362	2915.6613	4558.1	3666.3
1018.4515	2916.7725	4522	3631.2
1018.5667	2917.8831	4486.55	3599.05
1018.6819	2918.9931	4452.3	3562.1
1018.797	2920.1024	4431.45	3541.15
1018.9121	2921.211	4398.35	3511.75
1019.0271	2922.319	4386.55	3500.3
1019.1421	2923.4264	4385.55	3500.25
1019.2571	2924.5331	4363.55	3480.5
1019.372	2925.6391	4343.4	3456.65
1019.4869	2926.7445	4327.55	3442.85
1019.6017	2927.8493	4316.05	3426.75
1019.7165	2928.9534	4314.75	3426.75
1019.8313	2930.0569	4301	3410.65
1019.946	2931.1597	4291.65	3403.85
1020.0606	2932.2619	4288.7	3401.75
1020.1753	2933.3634	4280.35	3394.35
1020.2899	2934.4643	4254.45	3362.4
1020.4044	2935.5645	4235.3	3343.35
1020.5189	2936.6641	4209.65	3320.2
1020.6334	2937.763	4157.4	3273.9
1020.7478	2938.8613	4118	3231.75
1020.8622	2939.959	4045.9	3155.2
1020.9765	2941.056	3978.45	3094.25
1021.0908	2942.1523	3888.6	3002.25
1021.2051	2943.248	3828.9	2943.8
1021.3193	2944.3431	3728	2840.9
1021.4334	2945.4375	3616.5	2730.2
1021.5476	2946.5313	3509.4	2625.15
1021.6617	2947.6244	3409	2524.35
1021.7757	2948.7169	3310.75	2424.35
1021.8897	2949.8087	3223.5	2337.1
1022.0037	2950.8999	3118.1	2232.6
1022.1176	2951.9904	3051.1	2166.45
1022.2315	2953.0803	2970.9	2084.15
1022.3453	2954.1696	2896.05	2009.05
1022.4591	2955.2582	2857.65	1972.35
1022.5728	2956.3462	2790.05	1903.8
1022.6865	2957.4335	2769.65	1881
1022.8002	2958.5202	2729.9	1842.15
1022.9138	2959.6062	2694.85	1810
1023.0274	2960.6916	2668.95	1783.55
1023.141	2961.7764	2655.7	1768.4
1023.2545	2962.8605	2638.3	1752.65
1023.3679	2963.9439	2624.35	1736.55
1023.4813	2965.0267	2607.95	1722.15
1023.5947	2966.1089	2613.95	1703.45
1023.708	2967.1905	2576.4	1689.95
1023.8213	2968.2714	2570.2	1686.2
1023.9346	2969.3516	2558.8	1673.3
1024.0478	2970.4312	2576.4	1684.1
1024.1609	2971.5102	2563.25	1678.7
1024.274	2972.5885	2561.8	1676.75
1024.3871	2973.6662	2572.35	1680.6
1024.5002	2974.7432	2547.75	1663
1024.6132	2975.8196	2551.65	1667.65
1024.7261	2976.8954	2541.85	1656.4
1024.839	2977.9705	2529.7	1645.8
1024.9519	2979.045	2508.15	1623.85
1025.0647	2980.1188	2491.45	1607.3
1025.1775	2981.192	2473.2	1590.35
1025.2902	2982.2645	2450.95	1565.6
1025.4029	2983.3364	2416.65	1530.2
1025.5156	2984.4077	2383.9	1500.5
1025.6282	2985.4783	2361.05	1470.35
1025.7407	2986.5483	2334.5	1451.2
1025.8532	2987.6177	2288	1404.3
1025.9657	2988.6864	2259.4	1373.1
1026.0782	2989.7545	2223.25	1335.9
1026.1906	2990.8219	2182.4	1296.9
1026.3029	2991.8887	2160.9	1274.35
1026.4152	2992.9548	2129.5	1242.25
1026.5275	2994.0204	2095.8	1209.75
1026.6397	2995.0852	2063.65	1179.1
1026.7519	2996.1495	2041.2	1153.9
1026.864	2997.2131	2007.2	1121
1026.9761	2998.276	1988.9	1102.85
1027.0882	2999.3383	1967.1	1081.35
1027.2002	3000.4	1958.6	1072.75
1027.3122	3001.4611	1940.25	1052.85
1027.4241	3002.5215	1914.4	1029.8
1027.536	3003.5812	1900.45	1016.85
1027.6478	3004.6404	1882.3	995.55
1027.7596	3005.6989	1869.35	984.75
1027.8714	3006.7567	1865.7	978.65
1027.9831	3007.8139	1862.9	958.1
1028.0947	3008.8705	1844.85	961.55
1028.2064	3009.9264	1847.35	945.7
1028.3179	3010.9818	1838.35	953
1028.4295	3012.0364	1817.7	934.1
1028.541	3013.0905	1822.2	937.15
1028.6524	3014.1439	1809.7	925.9
1028.7638	3015.1966	1805.75	920.85
1028.8752	3016.2487	1812.55	929.6
1028.9865	3017.3002	1818.85	926.2
1029.0978	3018.3511	1798.15	914.35
1029.209	3019.4013	1795.95	912.65
1029.3202	3020.4509	1797.55	912.8
1029.4314	3021.4998	1799.05	913.65
1029.5425	3022.5481	1791.9	905.95
1029.6535	3023.5958	1796.8	913.65
1029.7645	3024.6428	1794.5	909.95
1029.8755	3025.6892	1794	909.95
1029.9864	3026.735	1794.5	910.6
1030.0973	3027.7802	1789.85	905.2
1030.2082	3028.8247	1789.75	904
1030.319	3029.8685	1788.7	904.6
1030.4297	3030.9118	1798.8	911
1030.5404	3031.9544	1796.7	914.45
1030.6511	3032.9963	1791.75	908.15
1030.7617	3034.0376	1791.85	907.5
1030.8723	3035.0783	1800.9	913.9
1030.9829	3036.1184	1802.2	916.05
1031.0934	3037.1578	1796.05	911.4
1031.2038	3038.1966	1801.8	918.9
1031.3142	3039.2348	1797.65	913.3
1031.4246	3040.2723	1812	921.05
1031.5349	3041.3092	1804.7	920.4
1031.6452	3042.3455	1797.4	914.2
1031.7554	3043.3811	1789.2	903.3
1031.8656	3044.4161	1783.05	896.65
1031.9758	3045.4505	1779.7	896.85
1032.0859	3046.4842	1777.05	890.85
1032.1959	3047.5173	1756.25	874.25
1032.3059	3048.5498	1753.9	870.25
1032.4159	3049.5816	1752.65	868.85
1032.5258	3050.6128	1743.3	858.85
1032.6357	3051.6434	1726.5	841.45
1032.7455	3052.6734	1728	842.55
1032.8553	3053.7027	1717.35	833
1032.9651	3054.7314	1709.45	824.8
1033.0748	3055.7594	1699.95	815.9
1033.1845	3056.7868	1694.7	808.65
1033.2941	3057.8136	1685.25	802.1
1033.4037	3058.8398	1677.4	793.65
1033.5132	3059.8653	1682	798.8
1033.6227	3060.8902	1667.25	783.6
1033.7321	3061.9145	1663.55	781
1033.8415	3062.9381	1655.85	772.55
1033.9509	3063.9612	1666.75	767.35
1034.0602	3064.9835	1640.7	756.95
1034.1694	3066.0053	1625.15	741.7
1034.2787	3067.0264	1624.7	740.75
1034.3878	3068.0469	1619.7	735.85
1034.497	3069.0668	1615.85	729.1
1034.6061	3070.086	1595.7	713.1
1034.7151	3071.1046	1588.9	704.75
1034.8241	3072.1226	1576	689.8
1034.9331	3073.1399	1575.4	692.2
1035.042	3074.1567	1558.95	675.95
1035.1508	3075.1727	1543.35	659.35
1035.2597	3076.1882	1542.75	659.85
1035.3684	3077.203	1527.55	643.6
1035.4772	3078.2173	1517.2	630.95
1035.5859	3079.2308	1515.5	630.25
1035.6945	3080.2438	1502.8	618.85
1035.8031	3081.2561	1500.3	619.55
1035.9117	3082.2678	1485.1	601.6
1036.0202	3083.2789	1482.55	598.55
1036.1286	3084.2893	1474.6	591.75
1036.2371	3085.2991	1460.55	575.15
1036.3454	3086.3083	1457.25	570.7
1036.4538	3087.3169	1455.3	570.5
1036.562	3088.3248	1446.35	558.95
1036.6703	3089.3321	1439.85	555.25
1036.7785	3090.3388	1429.65	545.5
1036.8866	3091.3449	1425.4	542.15
1036.9948	3092.3503	1427.45	543.35
1037.1028	3093.3551	1415.55	534.35
1037.2108	3094.3593	1414.05	531.85
1037.3188	3095.3629	1410.05	527.8
1037.4267	3096.3658	1399	514.9
1037.5346	3097.3681	1396.9	513.75
1037.6425	3098.3698	1396.4	511.8
1037.7503	3099.3708	1396.05	504.65
1037.858	3100.3713	1383.4	499.2
1037.9657	3101.3711	1386.25	502.4
1038.0734	3102.3702	1507.5	490.55
1038.181	3103.3688	1388.25	502.1
1038.2886	3104.3667	1366.75	484.6
1038.3961	3105.364	1367.45	482.9
1038.5036	3106.3607	1367.45	481.35
1038.611	3107.3568	1364.2	479.2
1038.7184	3108.3522	1352.35	470.85
1038.8257	3109.347	1349.45	464.5
1038.933	3110.3412	1356.1	468.1
1039.0403	3111.3348	1348.3	464.05
1039.1475	3112.3277	1337.6	455.25
1039.2547	3113.32	1335.7	452.35
1039.3618	3114.3117	1344.15	461.3
1039.4689	3115.3028	1333.4	447.9
1039.5759	3116.2932	1336.55	449.95
1039.6829	3117.2831	1334.35	445.95
1039.7898	3118.2723	1324.85	442.05
1039.8967	3119.2608	1320	435.7
1040.0035	3120.2488	1316.25	434
1040.1103	3121.2361	1319.85	436.6
1040.2171	3122.2229	1309.95	427.35
1040.3238	3123.209	1316.55	432.55
1040.4305	3124.1944	1320.15	437.65
1040.5371	3125.1793	1314	429.65
1040.6437	3126.1635	1306.1	423.2
1040.7502	3127.1471	1302.3	419.75
1040.8567	3128.1301	1291	409.9
1040.9631	3129.1125	1302.6	421.75
1041.0695	3130.0942	1294.55	411.6
1041.1759	3131.0753	1304.3	413
1041.2822	3132.0558	1285.95	402
1041.3884	3133.0357	1291.75	406.1
1041.4946	3134.015	1287	404.7
1041.6008	3134.9936	1281.3	396.3
1041.7069	3135.9716	1296.85	392.9
1041.813	3136.949	1277.65	390.8
1041.919	3137.9258	1297.6	395.8
1042.025	3138.902	1281.7	394
1042.1309	3139.8775	1276.55	396.35
1042.2368	3140.8524	1272.05	389.3
1042.3427	3141.8267	1270.4	385.85
1042.4485	3142.8004	1268.65	386.4
1042.5542	3143.7735	1275.75	385.65
1042.6599	3144.7459	1264.2	378
1042.7656	3145.7178	1256.15	372.35
1042.8712	3146.689	1257.05	375.95
1042.9768	3147.6596	1257.95	375.35
1043.0823	3148.6295	1255.05	373.1
1043.1878	3149.5989	1245.35	361.55
1043.2932	3150.5676	1250.45	369.4
1043.3986	3151.5357	1245.35	362.55
1043.5039	3152.5032	1245.3	361.85
1043.6092	3153.4701	1243.9	361.15
1043.7145	3154.4364	1241.35	357.1
1043.8197	3155.402	1229.35	348.1
1043.9248	3156.367	1232.15	349.45
1044.03	3157.3315	1273.55	346.15
1044.135	3158.2952	1229.45	346.25
1044.24	3159.2584	1225.75	343.15
1044.345	3160.221	1228.75	345.4
1044.4499	3161.1829	1225.2	341.25
1044.5548	3162.1442	1219.9	335.6
1044.6596	3163.105	1225.4	342.3
1044.7644	3164.065	1221.2	339.95
1044.8692	3165.0245	1215.9	331.25
1044.9739	3165.9834	1204.8	324.9
1045.0785	3166.9416	1212.45	331
1045.1831	3167.8993	1210.5	327.65
1045.2877	3168.8563	1209.35	328.75
1045.3922	3169.8127	1203.75	320.65
1045.4966	3170.7684	1200.35	316.3
1045.6011	3171.7236	1196.2	314.9
1045.7054	3172.6782	1201.3	318.85
1045.8098	3173.6321	1203.05	320.5
1045.914	3174.5854	1200.9	313.75
1046.0183	3175.5381	1196.9	314.8
1046.1224	3176.4902	1195.95	315.7
1046.2266	3177.4417	1189.65	308.3
1046.3307	3178.3926	1183.3	300.65
1046.4347	3179.3428	1183.45	303.5
1046.5387	3180.2924	1189.25	306.3
1046.6427	3181.2415	1187.5	306.2
1046.7466	3182.1899	1180.35	296.15
1046.8504	3183.1377	1181.8	299.55
1046.9542	3184.0848	1184.05	298.55
1047.058	3185.0314	1177.8	292.9
1047.1617	3185.9773	1180.05	296.95
1047.2654	3186.9227	1174.95	293.7
1047.369	3187.8674	1170.45	287.05
1047.4726	3188.8115	1178.9	291.1
1047.5761	3189.755	1166	282.9
1047.6796	3190.6979	1173.75	290.9
1047.783	3191.6402	1164.7	284.3
1047.8864	3192.5818	1164.9	281.45
1047.9898	3193.5229	1172.5	285
1048.0931	3194.4633	1163.4	282.05
1048.1963	3195.4031	1162	281.25
1048.2995	3196.3423	1159.5	277.8
1048.4027	3197.2809	1160.15	279
1048.5058	3198.2189	1159.45	276.6
1048.6089	3199.1563	1159.6	272.35
1048.7119	3200.0931	1154.5	273.45
1048.8148	3201.0292	1149.65	267.75
1048.9178	3201.9648	1146.9	266.25
1049.0206	3202.8997	1154.35	267.9
1049.1235	3203.834	1149.75	268.65
1049.2262	3204.7677	1143.4	261.05
1049.329	3205.7008	1145	261.65
1049.4317	3206.6333	1142.6	261.6
1049.5343	3207.5652	1143.65	261.95
1049.6369	3208.4964	1143.2	260.55
1049.7394	3209.4271	1139.85	260.1
1049.8419	3210.3571	1139.8	257.7
1049.9444	3211.2865	1138.65	256.5
1050.0468	3212.2154	1137.55	255.1
1050.1491	3213.1436	1140.7	254.4
1050.2514	3214.0712	1142.2	255.85
1050.3537	3214.9982	1132.85	249.65
1050.4559	3215.9246	1129.15	246.5
1050.5581	3216.8503	1127.25	248.05
1050.6602	3217.7755	1129.9	245.2
1050.7623	3218.7001	1123.6	243.1
1050.8643	3219.624	1125.25	242.45
1050.9663	3220.5473	1127.05	244.75
1051.0682	3221.4701	1126.3	243.7
1051.1701	3222.3922	1122.75	238.5
1051.2719	3223.3137	1123.45	243.6
1051.3737	3224.2346	1122	241.4
1051.4754	3225.1549	1116.1	233.9
1051.5771	3226.0746	1119	238.6
1051.6788	3226.9937	1114.7	230.1
1051.7804	3227.9121	1110.95	230.15
1051.8819	3228.83	1112.15	231.55
1051.9834	3229.7473	1109.35	227.1
1052.0849	3230.6639	1113.65	233.15
1052.1863	3231.5799	1105.9	225.4
1052.2876	3232.4954	1111.6	229.35
1052.3889	3233.4102	1110.5	229.8
1052.4902	3234.3244	1103.2	221.55
1052.5914	3235.238	1102.7	221.65
1052.6926	3236.151	1128.4	219.5
1052.7937	3237.0634	1099.95	220
1052.8948	3237.9752	1102.95	222.8
1052.9958	3238.8864	1102	220.95
1053.0968	3239.797	1096.7	217.9
1053.1977	3240.7069	1096.9	216.85
1053.2986	3241.6163	1093.8	210.4
1053.3994	3242.5251	1095.05	215.1
1053.5002	3243.4332	1094.7	212.7
1053.6009	3244.3408	1090.5	209
1053.7016	3245.2477	1085.3	203.35
1053.8022	3246.154	1089.25	206.6
1053.9028	3247.0598	1087.05	205.95
1054.0034	3247.9649	1083	201.8
1054.1039	3248.8694	1084.05	203.05
1054.2043	3249.7733	1082.65	202.35
1054.3047	3250.6766	1085.5	204.8
1054.4051	3251.5793	1082.45	199.75
1054.5054	3252.4814	1078	197.1
1054.6056	3253.3829	1075.6	195
1054.7058	3254.2838	1074.55	192.5
1054.806	3255.1841	1074.25	194.65
1054.9061	3256.0838	1069	187.55
1055.0061	3256.9829	1070.35	190.95
1055.1062	3257.8814	1068.8	183.3
1055.2061	3258.7792	1072.85	191.35
1055.306	3259.6765	1064.6	182.65
1055.4059	3260.5731	1068.55	187.4
1055.5057	3261.4692	1062.25	179.15
1055.6055	3262.3647	1056.1	174.9
1055.7052	3263.2595	1057.25	178
1055.8049	3264.1538	1049.5	168.7
1055.9045	3265.0474	1053	171.3
1056.0041	3265.9404	1052.15	170.8
1056.1036	3266.8329	1042.7	162.15
1056.2031	3267.7247	1051.1	159.85
1056.3025	3268.616	1039.45	161.05
1056.4019	3269.5066	1035.15	153.05
1056.5013	3270.3966	1032.25	148.75
1056.6005	3271.286	1022.9	142.45
