Software Version:	3.9.2.0
Unit SN:	10000200
Spectrometer SN:	6960
Date:	3/26/2024 2:21:30 PM
Data Line Index:	25
Spectral Points:	2048
Integration time (ms):	125
Averages:	20
Delay (ms):	30000
Sequence Number:	1
Processing:	dark subtract
Laser Power (mW):	305
Laser Current (mA):	820
Laser Diode Temp (C):	25.1
Laser Case Temp (C):	27.6
System Temp (C):	27.7
Spectrometer Temp (C):	25.5
CCD Temp (C):	0.005
Secondary Temp (C):	20.008
Heatsink Temp (C):	23.107
CCDPCB Temp (C):	37.074
SecondaryPCB Temp (C):	34.562

Wavelength	RamanShift	Raw Counts	Dark Subtracted
787.061	30.1047	669.4	258.95
787.2016	32.3739	683.1	272
787.3422	34.6426	700.3	289.6
787.4828	36.9109	717	304.4
787.6235	39.1787	742.95	324.75
787.7642	41.4461	766.25	343.55
787.9049	43.7131	800.45	375.75
788.0456	45.9796	821.3	394.75
788.1863	48.2456	850.25	419.45
788.3271	50.5112	878.3	443.35
788.4679	52.7764	908	470.25
788.6087	55.0411	936.2	493.55
788.7496	57.3054	974.2	528.3
788.8904	59.5692	1015.3	565.6
789.0313	61.8326	1050.95	598.1
789.1722	64.0955	1100	643.75
789.3132	66.3579	1146.25	683.8
789.4541	68.6199	1211.8	748.35
789.5951	70.8815	1312.55	846.1
789.7361	73.1426	1541.6	1068.85
789.8771	75.4032	2095.75	1618
790.0181	77.6634	3488.7	3003.65
790.1592	79.9231	6990.55	6496.45
790.3003	82.1824	15031.65	14519.8
790.4414	84.4412	35690.25	35146.4
790.5825	86.6995	63423.6	62832.6
790.7237	88.9574	65535	64904.3
790.8648	91.2148	65535	64870.35
791.006	93.4717	65535	64849.65
791.1472	95.7282	65535	64839.45
791.2885	97.9842	65535	64832.85
791.4297	100.2398	65535	64832.15
791.571	102.4949	65535	64826.55
791.7123	104.7495	65535	64829.55
791.8536	107.0036	65535	64822.65
791.9949	109.2573	65535	64822.65
792.1363	111.5105	65535	64826.35
792.2777	113.7632	65535	64820
792.4191	116.0154	65535	64811.55
792.5605	118.2672	65535	64817.75
792.7019	120.5185	65535	64811
792.8434	122.7693	65535	64813.55
792.9849	125.0197	65535	64806.7
793.1264	127.2696	65535	64810.7
793.2679	129.519	65535	64804.3
793.4094	131.7679	65535	64796.75
793.551	134.0163	65535	64793.7
793.6926	136.2642	65535	64790.7
793.8342	138.5117	65535	64783.15
793.9758	140.7587	65535	64785.85
794.1175	143.0052	65535	64781.95
794.2591	145.2512	65535	64787.35
794.4008	147.4967	65535	64787.35
794.5425	149.7417	65535	64785.65
794.6842	151.9863	65535	64781.7
794.826	154.2304	65535	64775.3
794.9677	156.4739	65535	64776.25
795.1095	158.717	65535	64769.8
795.2513	160.9596	65535	64764.4
795.3931	163.2017	65535	64767.85
795.535	165.4433	65535	64765.75
795.6768	167.6844	65535	64761.45
795.8187	169.925	65535	64764.05
795.9606	172.1651	65535	64764.4
796.1025	174.4047	65535	64758.65
796.2445	176.6439	65535	64753.45
796.3864	178.8825	65535	64748.4
796.5284	181.1206	65535	64746.7
796.6704	183.3582	65535	64741.3
796.8124	185.5954	65535	64744.3
796.9544	187.832	65535	64739.1
797.0965	190.0681	65535	64736.7
797.2386	192.3037	65535	64732.35
797.3806	194.5388	65535	64727.1
797.5228	196.7734	65535	64724.95
797.6649	199.0075	65535	64721
797.807	201.2411	65535	64717.9
797.9492	203.4742	65535	64720.95
798.0914	205.7068	65535	64713.1
798.2336	207.9389	65535	64717.3
798.3758	210.1704	65535	64709.75
798.518	212.4015	65535	64716.75
798.6603	214.632	65535	64715.55
798.8025	216.862	65535	64725.35
798.9448	219.0915	65535	64731.7
799.0871	221.3205	65535	64729.1
799.2294	223.549	65535	64736.2
799.3718	225.777	65535	64735.9
799.5141	228.0044	65535	64728.25
799.6565	230.2314	65535	64735.3
799.7989	232.4578	65535	64736
799.9413	234.6837	65535	64729.35
800.0837	236.909	65535	64724.75
800.2262	239.1339	65535	64696.3
800.3687	241.3582	65535	64707.45
800.5111	243.582	65535	64680.2
800.6536	245.8053	65535	64692.3
800.7961	248.0281	65535	64706.6
800.9387	250.2503	65535	64697.45
801.0812	252.472	65535	64688.6
801.2238	254.6932	65535	64692.6
801.3664	256.9139	65535	64687.6
801.509	259.134	65535	64684.25
801.6516	261.3536	65535	64684.2
801.7942	263.5727	65535	64676.2
801.9369	265.7912	65535	64687.05
802.0795	268.0092	65535	64688.7
802.2222	270.2267	65535	64683.05
802.3649	272.4436	65535	64683.75
802.5076	274.6601	65535	64675.65
802.6504	276.8759	65535	64682.1
802.7931	279.0913	65535	64681.45
802.9359	281.3061	65535	64675
803.0787	283.5204	65535	64676.8
803.2215	285.7341	65535	64673.25
803.3643	287.9473	65535	64663.6
803.5071	290.16	65535	64664.25
803.6499	292.3721	65535	64672.7
803.7928	294.5837	65535	64670.05
803.9357	296.7947	65535	64669
804.0786	299.0052	65535	64671.25
804.2215	301.2152	65535	64667.75
804.3644	303.4246	65535	64672.2
804.5074	305.6334	65535	64674.7
804.6503	307.8418	65535	64665.25
804.7933	310.0495	65535	64666.85
804.9363	312.2568	65535	64662.65
805.0793	314.4635	65535	64662.9
805.2223	316.6696	65535	64665.4
805.3653	318.8752	65535	64657.25
805.5084	321.0802	65535	64659.45
805.6514	323.2847	65535	64658.8
805.7945	325.4887	65535	64662.8
805.9376	327.692	65535	64658.5
806.0807	329.8949	65535	64658
806.2238	332.0972	65535	64658.65
806.367	334.2989	65535	64651.85
806.5101	336.5001	65535	64654.3
806.6533	338.7007	65535	64650.7
806.7965	340.9008	65535	64651.1
806.9397	343.1003	65535	64648.9
807.0829	345.2992	65535	64647.7
807.2261	347.4976	65535	64643.45
807.3693	349.6955	65535	64643.15
807.5126	351.8927	65535	64640.75
807.6559	354.0895	65535	64630.55
807.7991	356.2856	65535	64642.05
807.9424	358.4812	65535	64644.6
808.0857	360.6763	65535	64641.65
808.2291	362.8707	65535	64643.5
808.3724	365.0646	65535	64638.6
808.5158	367.258	65535	64638.35
808.6591	369.4508	65535	64634.3
808.8025	371.643	65535	64627.2
808.9459	373.8346	65535	64634.3
809.0893	376.0257	65535	64632.25
809.2327	378.2162	65535	64633.45
809.3762	380.4062	65535	64627.9
809.5196	382.5956	65535	64624.35
809.6631	384.7844	65535	64627.95
809.8066	386.9726	65535	64632.2
809.9501	389.1603	65535	64631.8
810.0936	391.3474	65535	64595.2
810.2371	393.5339	65535	64631.15
810.3806	395.7199	65535	64638.95
810.5241	397.9052	65535	64637.55
810.6677	400.09	65535	64638.45
810.8113	402.2743	65535	64639.7
810.9548	404.4579	65535	64643.85
811.0984	406.641	65535	64640.7
811.2421	408.8235	65535	64641.6
811.3857	411.0054	65535	64641.5
811.5293	413.1868	65535	64633.95
811.673	415.3675	65535	64628.65
811.8166	417.5477	65535	64631.35
811.9603	419.7273	65535	64638.35
812.104	421.9064	65535	64626.65
812.2477	424.0848	65535	64632
812.3914	426.2627	65535	64624.35
812.5351	428.4399	65535	64625.7
812.6788	430.6166	65535	64619.75
812.8226	432.7928	65535	64623.4
812.9663	434.9683	65535	64623.9
813.1101	437.1432	65535	64622.2
813.2539	439.3176	65535	64626.95
813.3977	441.4914	65535	64629.3
813.5415	443.6645	65535	64628.4
813.6853	445.8371	65535	64621.8
813.8291	448.0091	65535	64621.15
813.973	450.1806	65535	64628.65
814.1168	452.3514	65535	64631.25
814.2607	454.5216	65535	64618.35
814.4046	456.6913	65535	64625.3
814.5485	458.8603	65535	64626.8
814.6924	461.0288	65535	64628.85
814.8363	463.1967	65535	64633.75
814.9802	465.3639	65535	64631.95
815.1241	467.5306	65535	64629.45
815.2681	469.6967	65535	64626.55
815.412	471.8622	65535	64628.2
815.556	474.0271	65535	64627.5
815.7	476.1914	65535	64618.6
815.844	478.3551	65535	64619.3
815.988	480.5182	65535	64625.05
816.132	482.6807	65535	64633.95
816.276	484.8426	65535	64637.5
816.4201	487.0039	65535	64633.05
816.5641	489.1647	65535	64619.75
816.7082	491.3248	65535	64622.85
816.8522	493.4843	65535	64628.6
816.9963	495.6432	65535	64624.05
817.1404	497.8015	65535	64615.3
817.2845	499.9592	65535	64612.15
817.4286	502.1163	65535	64616.25
817.5727	504.2728	65535	64623.15
817.7168	506.4287	65535	64629.85
817.861	508.5839	65535	64628.8
818.0051	510.7386	65535	64624.2
818.1493	512.8927	65535	64615.7
818.2935	515.0461	65535	64617.35
818.4377	517.199	65535	64615.5
818.5818	519.3512	65535	64613.85
818.726	521.5029	65535	64613.15
818.8703	523.6539	65535	64618.65
819.0145	525.8043	65535	64613.15
819.1587	527.9541	65535	64610.45
819.303	530.1033	65535	64613.75
819.4472	532.2519	65535	64615
819.5915	534.3999	65535	64614.5
819.7357	536.5472	65535	64617.8
819.88	538.694	65535	64622.4
820.0243	540.8401	65535	64614.8
820.1686	542.9856	65535	64604
820.3129	545.1305	65535	64598.8
820.4572	547.2748	65535	64597.3
820.6016	549.4185	65535	64599.4
820.7459	551.5615	65535	64594.7
820.8902	553.704	65535	64600.3
821.0346	555.8458	65535	64605
821.1789	557.987	65535	64603.55
821.3233	560.1276	65535	64604.1
821.4677	562.2675	65535	64602.5
821.6121	564.4069	65535	64602.95
821.7565	566.5456	65535	64604.75
821.9009	568.6837	65535	64609.15
822.0453	570.8212	65535	64605.35
822.1897	572.958	65535	64606.25
822.3342	575.0942	65535	64608.15
822.4786	577.2299	65535	64614.3
822.6231	579.3648	65535	64624.7
822.7675	581.4992	65535	64632.7
822.912	583.6329	65535	64629.65
823.0565	585.766	65535	64624.65
823.201	587.8985	65535	64622.35
823.3454	590.0304	65535	64601.2
823.4899	592.1616	65535	64609.7
823.6345	594.2922	65535	64600.05
823.779	596.4222	65535	64606.7
823.9235	598.5515	65535	64601.8
824.068	600.6802	65535	64600.45
824.2126	602.8083	65535	64604.85
824.3571	604.9358	65535	64606.8
824.5017	607.0626	65535	64602.4
824.6462	609.1888	65535	64591
824.7908	611.3144	65535	64595.35
824.9354	613.4393	65535	64592.8
825.08	615.5636	65535	64599.75
825.2246	617.6873	65535	64593.25
825.3692	619.8103	65535	64600.85
825.5138	621.9327	65535	64599.85
825.6584	624.0544	65535	64606.65
825.803	626.1756	65535	64605.1
825.9477	628.2961	65535	64599.3
826.0923	630.4159	65535	64600.05
826.237	632.5351	65535	64597.8
826.3816	634.6537	65535	64593.2
826.5263	636.7716	65535	64592.55
826.6709	638.8889	65535	64587.05
826.8156	641.0056	65535	64587.15
826.9603	643.1216	65535	64594.5
827.105	645.237	65535	64594.2
827.2497	647.3518	65535	64605.55
827.3944	649.4659	65535	64605.95
827.5391	651.5793	65535	64607.6
827.6838	653.6922	65535	64603.55
827.8285	655.8043	65535	64599.6
827.9733	657.9159	65535	64596.45
828.118	660.0268	65535	64598.85
828.2627	662.137	65535	64596.55
828.4075	664.2466	65535	64586.85
828.5522	666.3556	65535	64592.3
828.697	668.4639	65535	64596.05
828.8418	670.5716	65535	64601.2
828.9865	672.6786	65535	64597
829.1313	674.785	65535	64593.3
829.2761	676.8907	65535	64597.2
829.4209	678.9958	65535	64603.1
829.5657	681.1002	65535	64593.7
829.7105	683.204	65535	64583.85
829.8553	685.3072	65535	64591.65
830.0001	687.4097	65535	64594.7
830.1449	689.5115	65535	64587.1
830.2898	691.6127	65535	64595.95
830.4346	693.7132	65535	64597.15
830.5794	695.8131	65535	64579.75
830.7243	697.9123	65535	64587.55
830.8691	700.0109	65535	64583.05
831.014	702.1089	65535	64591.45
831.1588	704.2061	65535	64591.75
831.3037	706.3028	65535	64588.55
831.4486	708.3987	65535	64588.75
831.5935	710.4941	65535	64588.6
831.7383	712.5887	65535	64588.45
831.8832	714.6827	65535	64589.85
832.0281	716.7761	65535	64594.7
832.173	718.8688	65535	64591.8
832.3179	720.9608	65535	64586.1
832.4628	723.0522	65535	64584.8
832.6077	725.1429	65535	64585.45
832.7527	727.233	65535	64586.85
832.8976	729.3224	65535	64585
833.0425	731.4112	65535	64585.9
833.1874	733.4993	65535	64586.15
833.3324	735.5867	65535	64590.8
833.4773	737.6735	65535	64585.95
833.6222	739.7596	65535	64587.15
833.7672	741.845	65535	64590.7
833.9122	743.9298	65535	64587.75
834.0571	746.014	65535	64592.3
834.2021	748.0974	65535	64584.2
834.347	750.1802	65535	64581
834.492	752.2624	65535	64582.2
834.637	754.3439	65535	64579.65
834.782	756.4247	65535	64575.65
834.9269	758.5048	65535	64584.55
835.0719	760.5843	65535	64584.45
835.2169	762.6631	65535	64581
835.3619	764.7413	65535	64586.15
835.5069	766.8188	65535	64584.2
835.6519	768.8956	65535	64580.5
835.7969	770.9718	65535	64585.05
835.9419	773.0473	65535	64580.7
836.0869	775.1221	65535	64585.95
836.232	777.1962	65535	64585.3
836.377	779.2697	65535	64580.35
836.522	781.3426	65535	64565.1
836.667	783.4147	65535	64581.35
836.8121	785.4862	65535	64585.75
836.9571	787.557	65535	64582.4
837.1021	789.6271	65535	64579.3
837.2472	791.6966	65535	64580.3
837.3922	793.7654	65535	64581.55
837.5373	795.8335	65535	64585.8
837.6823	797.901	65535	64585.15
837.8274	799.9678	65535	64578.8
837.9724	802.0339	65535	64582.85
838.1175	804.0993	65535	64572.3
838.2626	806.1641	65535	64583.15
838.4076	808.2282	65535	64583.7
838.5527	810.2916	65535	64579.6
838.6978	812.3544	65535	64584.5
838.8428	814.4164	65535	64581.2
838.9879	816.4778	65535	64577.25
839.133	818.5385	65535	64580.85
839.2781	820.5986	65535	64582.4
839.4232	822.658	65535	64578.55
839.5682	824.7166	65535	64582.85
839.7133	826.7747	65535	64580.7
839.8584	828.832	65535	64577.65
840.0035	830.8886	65535	64574.2
840.1486	832.9446	65535	64577.95
840.2937	834.9999	65535	64583.3
840.4388	837.0545	65535	64575.95
840.5839	839.1085	65535	64579.65
840.729	841.1618	65535	64580.15
840.8741	843.2143	65535	64579.55
841.0192	845.2662	65535	64582.5
841.1643	847.3175	65535	64577.45
841.3095	849.368	65535	64579.95
841.4546	851.4179	65535	64585.3
841.5997	853.467	65535	64582.05
841.7448	855.5155	65535	64581.15
841.8899	857.5633	65535	64579.2
842.0351	859.6105	65535	64580.65
842.1802	861.6569	65535	64579.25
842.3253	863.7027	65535	64578.85
842.4704	865.7478	65535	64579.55
842.6156	867.7922	65535	64576.45
842.7607	869.8359	65535	64578.65
842.9058	871.8789	65535	64576.5
843.0509	873.9212	65535	64551.95
843.1961	875.9629	65535	64577.45
843.3412	878.0039	65535	64579.9
843.4863	880.0441	65535	64581.35
843.6315	882.0837	65535	64580.35
843.7766	884.1226	65535	64582.8
843.9218	886.1609	65535	64578.4
844.0669	888.1984	65527.2	64570
844.212	890.2352	65535	64579.55
844.3572	892.2714	65520.5	64558.25
844.5023	894.3069	65529.5	64573.15
844.6475	896.3416	65516.8	64562.5
844.7926	898.3757	65511	64552
844.9377	900.4091	65414.7	64452.4
845.0829	902.4418	65527.05	64561.5
845.228	904.4739	65490.35	64528.8
845.3732	906.5052	65492.95	64533.35
845.5183	908.5358	65440.25	64483.2
845.6635	910.5658	65401.05	64438
845.8086	912.595	65393.75	64437.55
845.9538	914.6236	65097.45	64140.1
846.0989	916.6515	65467.85	64513.55
846.2441	918.6786	65115.8	64157.7
846.3892	920.7051	65257.5	64298.8
846.5344	922.7309	65180.4	64222.25
846.6795	924.756	65253.4	64294.8
846.8246	926.7804	65101.95	64146.1
846.9698	928.8041	64714.25	63751.6
847.1149	930.8272	65049.1	64091.75
847.2601	932.8495	65044.6	64085.4
847.4052	934.8711	64736.15	63775.65
847.5504	936.892	64476.15	63516.2
847.6955	938.9123	64637	63676.85
847.8407	940.9318	64428.75	63474.8
847.9858	942.9506	64353.8	63395.7
848.131	944.9688	64407.6	63447.7
848.2761	946.9862	63767.65	62809.85
848.4213	949.003	64023.55	63065.55
848.5664	951.019	63415.6	62455.8
848.7115	953.0344	63581.75	62624.9
848.8567	955.0491	63480.8	62523
849.0018	957.063	63694	62737.65
849.147	959.0763	63780.5	62818.25
849.2921	961.0888	63302.05	62344.9
849.4373	963.1007	63656.4	62702.6
849.5824	965.1119	63648.6	62702.15
849.7275	967.1223	63260	62318.85
849.8727	969.1321	63709.3	62766.15
850.0178	971.1412	63127.7	62178.85
850.1629	973.1495	62882.3	61930.2
850.3081	975.1572	63234.5	62225.8
850.4532	977.1641	62937.25	61978.15
850.5983	979.1704	62828.55	61870.55
850.7435	981.1759	62901.2	61940.1
850.8886	983.1808	62477.8	61517.65
851.0337	985.1849	62585.3	61622.25
851.1788	987.1884	62795.5	61833.75
851.324	989.1911	63109.4	62153.4
851.4691	991.1932	62035	61077.05
851.6142	993.1945	62369.35	61416.5
851.7593	995.1951	62675.6	61717.85
851.9045	997.1951	61976.45	61016.55
852.0496	999.1943	61827.35	60872.65
852.1947	1001.1928	61527.45	60569.1
852.3398	1003.1906	61712.85	60755.3
852.4849	1005.1877	60766.45	59807.25
852.63	1007.1841	60477.25	59521.6
852.7751	1009.1798	60503.45	59548
852.9202	1011.1748	60374.8	59420.6
853.0653	1013.1691	60091.85	59133.1
853.2104	1015.1627	58389.75	57434.85
853.3555	1017.1556	58880.7	57927.3
853.5006	1019.1477	59088.1	58135.9
853.6457	1021.1392	58309.1	57361.3
853.7908	1023.1299	57369.7	56426.55
853.9359	1025.12	57925.25	56985
854.081	1027.1093	57397.7	56466.4
854.2261	1029.0979	57368.05	56442.65
854.3712	1031.0859	57200	56264.4
854.5163	1033.0731	56499.2	55558.1
854.6613	1035.0596	56655.2	55711.6
854.8064	1037.0454	56501.8	55548.5
854.9515	1039.0304	55973.75	55023.55
855.0965	1041.0148	55295.65	54346.05
855.2416	1042.9985	55226.95	54273.35
855.3867	1044.9814	55487.4	54535.15
855.5317	1046.9636	54810.35	53856.25
855.6768	1048.9452	54685.45	53736.45
855.8219	1050.926	54581.05	53632.05
855.9669	1052.9061	54430.3	53480
856.112	1054.8855	54420.55	53469.7
856.257	1056.8642	53986.75	53030.8
856.4021	1058.8421	53889.15	52927.95
856.5471	1060.8194	53765.8	52813.4
856.6921	1062.7959	53513.9	52562.9
856.8372	1064.7717	53675.9	52721.2
856.9822	1066.7469	53422.15	52466.2
857.1272	1068.7213	53355.65	52400.8
857.2723	1070.695	53094.85	52142.55
857.4173	1072.6679	52656.45	51705.7
857.5623	1074.6402	52621.6	51668.35
857.7073	1076.6117	52410.1	51452.55
857.8523	1078.5826	52316.8	51362.5
857.9973	1080.5527	52243.3	51288.05
858.1423	1082.5221	52182.85	51230.75
858.2873	1084.4908	52320.75	51369.3
858.4323	1086.4587	52311	51355.05
858.5773	1088.426	52412.95	51460.5
858.7223	1090.3925	52193.2	51238.3
858.8673	1092.3584	52019.8	51064.45
859.0123	1094.3235	51515.35	50563.2
859.1573	1096.2879	51276.6	50325.45
859.3022	1098.2515	51134.3	50179.6
859.4472	1100.2145	51046.55	50096.85
859.5922	1102.1767	50856.15	49904.3
859.7371	1104.1382	50961.1	50013.35
859.8821	1106.099	50961.6	50011.35
860.027	1108.0591	50948.7	49998.3
860.172	1110.0185	50755.45	49803.45
860.3169	1111.9771	50867.05	49917.2
860.4619	1113.9351	50401.2	49452
860.6068	1115.8923	49878.35	48929.4
860.7517	1117.8488	49406.6	48455.5
860.8967	1119.8045	48807.3	47858.45
861.0416	1121.7596	48604.95	47651.8
861.1865	1123.7139	48336.75	47390.9
861.3314	1125.6675	48202.25	47252.5
861.4763	1127.6204	48308.15	47359.8
861.6212	1129.5726	48081.75	47129.45
861.7661	1131.524	48049.45	47101.35
861.911	1133.4748	48018.2	47066.7
862.0559	1135.4248	47875.65	46925.5
862.2008	1137.3741	47832.1	46883.75
862.3457	1139.3226	47676.25	46723.2
862.4905	1141.2705	47546.15	46598.5
862.6354	1143.2176	47241.8	46284.05
862.7803	1145.164	47152.4	46200.5
862.9251	1147.1097	47113.7	46160.8
863.07	1149.0546	47045.35	46095.7
863.2148	1150.9989	46830.1	45880.55
863.3597	1152.9424	46545.35	45595.55
863.5045	1154.8852	46257.75	45307.25
863.6493	1156.8272	45970.9	45020.55
863.7942	1158.7686	45892.05	44933.05
863.939	1160.7092	45594.55	44642.35
864.0838	1162.6491	45393.7	44441.45
864.2286	1164.5883	45417.75	44470.8
864.3734	1166.5267	45340.35	44390.3
864.5182	1168.4644	45393.75	44442.45
864.663	1170.4014	45390.15	44436
864.8078	1172.3377	45664.1	44716.4
864.9526	1174.2732	45693.8	44745.4
865.0974	1176.2081	45748.85	44798.7
865.2421	1178.1421	45776.45	44823.05
865.3869	1180.0755	45884.45	44940.35
865.5317	1182.0082	45645.7	44697.25
865.6764	1183.9401	45500.65	44554.95
865.8212	1185.8713	45168.45	44224.65
865.9659	1187.8017	44849.05	43913.95
866.1106	1189.7315	44537.25	43606.9
866.2554	1191.6605	43991.75	43063.15
866.4001	1193.5888	43628.85	42696.75
866.5448	1195.5163	43486.35	42546.4
866.6895	1197.4432	43193.4	42250.7
866.8342	1199.3693	43002.95	42059.85
866.9789	1201.2947	42749.05	41798.7
867.1236	1203.2193	42544.05	41597.55
867.2683	1205.1432	42531.2	41585.55
867.413	1207.0664	42402.75	41458.3
867.5576	1208.9889	42319.35	41372.4
867.7023	1210.9106	42230.45	41284.4
867.847	1212.8316	42119.35	41174.4
867.9916	1214.7519	42139.95	41184.95
868.1363	1216.6715	41950	41001.55
868.2809	1218.5903	41847.15	40905.35
868.4255	1220.5084	41673.75	40727.95
868.5701	1222.4257	41634.05	40687.6
868.7148	1224.3424	41274.75	40332.2
868.8594	1226.2583	41223.3	40276.85
869.004	1228.1735	41183.15	40237.65
869.1486	1230.0879	41117.6	40167.55
869.2932	1232.0016	41133.45	40188.7
869.4377	1233.9146	41058.9	40113
869.5823	1235.8269	40805.25	39857.1
869.7269	1237.7384	40660.05	39716.4
869.8715	1239.6492	40333.35	39388.55
870.016	1241.5592	40146.15	39202.8
870.1606	1243.4686	39846.1	38899.9
870.3051	1245.3772	39679.55	38735
870.4496	1247.285	39493.4	38551.2
870.5941	1249.1922	39249.1	38307.35
870.7387	1251.0986	39245	38303.1
870.8832	1253.0042	39038.5	38099.1
871.0277	1254.9092	38990.05	38048.9
871.1722	1256.8134	38980.9	38040.1
871.3167	1258.7169	39067.9	38125.5
871.4611	1260.6196	39097.4	38154.25
871.6056	1262.5216	39210.25	38267.65
871.7501	1264.4229	39237.5	38295.4
871.8945	1266.3234	39296.45	38355.1
872.039	1268.2232	39234.85	38290.1
872.1834	1270.1223	39084.15	38140.3
872.3278	1272.0207	38981.8	38038.2
872.4723	1273.9183	38844.85	37897.7
872.6167	1275.8151	38650.05	37706.5
872.7611	1277.7113	38507.15	37567.95
872.9055	1279.6067	38213	37271.15
873.0499	1281.5014	37954.1	37011.95
873.1943	1283.3953	37733.15	36787.2
873.3386	1285.2885	37569.5	36628.6
873.483	1287.181	37370.6	36429.15
873.6274	1289.0727	37366.75	36424.55
873.7717	1290.9637	37249.1	36308.9
873.9161	1292.854	37305.55	36362.8
874.0604	1294.7435	37335.35	36392.25
874.2047	1296.6323	37434.3	36492.3
874.349	1298.5204	37631.55	36689.25
874.4933	1300.4077	37870.45	36927.3
874.6376	1302.2943	37981.1	37042.05
874.7819	1304.1802	38012.1	37072.2
874.9262	1306.0653	37867.3	36923.85
875.0705	1307.9497	37675.7	36733.1
875.2147	1309.8333	37532.2	36594.15
875.359	1311.7162	37401.3	36462.5
875.5032	1313.5984	37476.85	36530.9
875.6475	1315.4798	37479.55	36520.25
875.7917	1317.3605	37532.8	36575
875.9359	1319.2405	37668	36727.75
876.0801	1321.1197	37640.35	36695.75
876.2243	1322.9982	37466.85	36521.3
876.3685	1324.876	37465.4	36526
876.5127	1326.753	37288.05	36347.25
876.6569	1328.6293	37308.6	36367.1
876.801	1330.5048	37317.55	36374.15
876.9452	1332.3796	37164.65	36223.9
877.0893	1334.2537	37101.35	36137.2
877.2335	1336.127	36929.75	35987.25
877.3776	1337.9996	36812.9	35872.05
877.5217	1339.8714	36649.1	35708.75
877.6658	1341.7426	36487.4	35504
877.8099	1343.6129	36411.75	35473.8
877.954	1345.4826	36266.65	35324.85
878.0981	1347.3515	36239.65	35292.9
878.2422	1349.2196	36077.65	35132.7
878.3862	1351.087	35978.85	35038.45
878.5303	1352.9537	35990.15	35046.85
878.6743	1354.8197	36015.7	35076.35
878.8184	1356.6849	36166.05	35224.65
878.9624	1358.5493	36116.15	35175.2
879.1064	1360.4131	36041.95	35101.1
879.2504	1362.276	35848.5	34912.6
879.3944	1364.1383	35620	34679.1
879.5384	1365.9998	35243.4	34295.4
879.6823	1367.8606	34884.1	33942.3
879.8263	1369.7206	34556.5	33618.05
879.9702	1371.5799	34329.1	33388.25
880.1142	1373.4384	34071.2	33129.15
880.2581	1375.2962	33954.55	33014.55
880.402	1377.1533	33521.25	32583.65
880.5459	1379.0096	33148.45	32211.7
880.6898	1380.8652	32782.45	31846.55
880.8337	1382.7201	32464.4	31529.2
880.9776	1384.5742	32181.5	31245.95
881.1215	1386.4275	31931.15	30989.6
881.2653	1388.2802	31625.75	30687.05
881.4092	1390.132	31418.7	30478.6
881.553	1391.9832	31351.05	30408.75
881.6968	1393.8336	31126.5	30188.9
881.8406	1395.6832	30999.4	30059.55
881.9844	1397.5322	30887.8	29948.15
882.1282	1399.3803	30784.65	29839.6
882.272	1401.2278	30517.45	29580.05
882.4158	1403.0745	30489.45	29553.6
882.5595	1404.9204	30323.1	29390.3
882.7033	1406.7656	30274.45	29338.55
882.847	1408.6101	30173.2	29233.1
882.9908	1410.4538	30092.05	29154.85
883.1345	1412.2968	30045.85	29106.95
883.2782	1414.139	29929.5	28991
883.4219	1415.9805	29915.55	28979.6
883.5656	1417.8213	29857.35	28900.4
883.7092	1419.6613	29958.35	29023.05
883.8529	1421.5006	30039	29104.15
883.9965	1423.3391	30231.8	29297.05
884.1402	1425.1769	30477.2	29540.35
884.2838	1427.0139	30920.25	29981.8
884.4274	1428.8502	31469.6	30530.45
884.571	1430.6858	31988.9	31050.8
884.7146	1432.5206	32285.5	31350.35
884.8582	1434.3547	32550.6	31617.9
885.0018	1436.188	32580.7	31645.8
885.1453	1438.0206	32500.5	31565.2
885.2889	1439.8524	32190.7	31254.3
885.4324	1441.6835	32055.25	31118.55
885.5759	1443.5139	31876.4	30937.4
885.7194	1445.3435	31737.85	30802.9
885.8629	1447.1724	31620.15	30684.95
886.0064	1449.0005	31503.8	30571.3
886.1499	1450.8279	31323.6	30391.35
886.2933	1452.6545	31292.55	30357.9
886.4368	1454.4804	31256.15	30323
886.5802	1456.3056	31173.4	30234.45
886.7237	1458.13	31018.8	30087.1
886.8671	1459.9536	30804.65	29870.85
887.0105	1461.7766	30403.8	29471.1
887.1539	1463.5987	29834.75	28898.5
887.2972	1465.4202	29396.05	28459.85
887.4406	1467.2409	28972.05	28037.7
887.584	1469.0608	28684.65	27751.05
887.7273	1470.88	28387.25	27452.45
887.8706	1472.6984	28080.8	27145.45
888.0139	1474.5161	27808.85	26872.25
888.1572	1476.3331	27586.55	26654.25
888.3005	1478.1493	27399.55	26465.25
888.4438	1479.9648	27242.25	26306.7
888.5871	1481.7795	27121.25	26189.45
888.7303	1483.5935	27068.25	26135.7
888.8736	1485.4067	26889.2	25953.65
889.0168	1487.2192	26820.3	25886.95
889.16	1489.031	26758.35	25822.05
889.3032	1490.842	26667.7	25734.9
889.4464	1492.6522	26599.35	25665.25
889.5896	1494.4618	26478.3	25543.6
889.7327	1496.2705	26372.85	25440.3
889.8759	1498.0785	26321.8	25387.5
890.019	1499.8858	26240.95	25307.45
890.1622	1501.6924	26147	25217.35
890.3053	1503.4981	26079.05	25145.25
890.4484	1505.3032	26043.8	25113.15
890.5914	1507.1075	25966.5	25035.9
890.7345	1508.911	25903.55	24973.7
890.8776	1510.7138	25785.35	24855.25
891.0206	1512.5159	25674.9	24743.45
891.1637	1514.3172	25555.4	24623.9
891.3067	1516.1178	25390.3	24462.85
891.4497	1517.9176	25378	24442.25
891.5927	1519.7166	25266.3	24337.4
891.7357	1521.515	25174.7	24240.4
891.8786	1523.3126	25143.85	24214.5
892.0216	1525.1094	25037.15	24105.2
892.1645	1526.9055	24945	24015.5
892.3074	1528.7008	24825.9	23896.4
892.4503	1530.4954	24663.6	23727.5
892.5932	1532.2893	24616.3	23690.75
892.7361	1534.0824	24490.9	23557.45
892.879	1535.8747	24493.2	23568.5
893.0218	1537.6663	24366.4	23439.4
893.1647	1539.4572	24311.1	23385.05
893.3075	1541.2473	24247.25	23321.65
893.4503	1543.0367	24182.75	23257.1
893.5931	1544.8253	24046.95	23115.3
893.7359	1546.6132	24009.3	23080.5
893.8787	1548.4003	23900.2	22964.5
894.0214	1550.1867	23905.2	22970.6
894.1642	1551.9723	23859.15	22933.25
894.3069	1553.7572	23817.75	22894.85
894.4496	1555.5414	23744.7	22820.6
894.5923	1557.3247	23691	22768.45
894.735	1559.1074	23667.25	22743.65
894.8777	1560.8893	23652.5	22732.65
895.0204	1562.6705	23623.7	22702
895.163	1564.4509	23639.6	22721.75
895.3056	1566.2305	23612.95	22695.7
895.4482	1568.0094	23725.5	22807.9
895.5908	1569.7876	23763.25	22844.5
895.7334	1571.565	23792.7	22872.25
895.876	1573.3417	23796.9	22876.8
896.0186	1575.1176	23757.8	22837
896.1611	1576.8928	23669.8	22754.4
896.3036	1578.6672	23497.6	22585.65
896.4461	1580.4409	23322.15	22413.1
896.5886	1582.2138	23175	22257.95
896.7311	1583.986	22977.45	22062.65
896.8736	1585.7575	22863.35	21947.9
897.0161	1587.5282	22634.7	21718.85
897.1585	1589.2981	22576.45	21665.6
897.3009	1591.0673	22442.1	21531.1
897.4433	1592.8358	22402.3	21490.7
897.5857	1594.6035	22334.9	21418.55
897.7281	1596.3704	22233.15	21318.05
897.8705	1598.1366	22175.15	21260.7
898.0128	1599.9021	22147.4	21237.5
898.1551	1601.6668	22093.5	21176.4
898.2975	1603.4308	22103.85	21188.7
898.4398	1605.194	22086	21167.2
898.5821	1606.9564	22109.4	21201.35
898.7243	1608.7182	22090.9	21185.05
898.8666	1610.4791	22182.8	21282.75
899.0088	1612.2394	22308	21405.9
899.1511	1613.9988	22377.1	21474.4
899.2933	1615.7576	22577	21670.8
899.4355	1617.5156	22790	21868
899.5776	1619.2728	23005.2	22088.25
899.7198	1621.0293	23165.1	22249.9
899.862	1622.785	23176.65	22265.85
900.0041	1624.54	23039.9	22133.7
900.1462	1626.2942	22876.4	21968.8
900.2883	1628.0477	22511.15	21600.5
900.4304	1629.8005	22239.25	21330.15
900.5725	1631.5525	21925.55	21018.1
900.7145	1633.3037	21670.1	20763.95
900.8566	1635.0542	21475.25	20570.85
900.9986	1636.804	21248.1	20341.45
901.1406	1638.553	21181.8	20228.1
901.2826	1640.3013	21044.25	20137.1
901.4245	1642.0488	20885.65	19976.1
901.5665	1643.7955	20835.3	19929.5
901.7085	1645.5416	20784.6	19878.6
901.8504	1647.2868	20815.6	19907.35
901.9923	1649.0313	20801.95	19894.4
902.1342	1650.7751	20911.6	20002
902.2761	1652.5181	21001.7	20096.65
902.4179	1654.2604	21141.55	20237
902.5598	1656.0019	21427.45	20522.65
902.7016	1657.7427	21763.55	20858.95
902.8434	1659.4828	22114.95	21207.05
902.9852	1661.222	22288.05	21379.75
903.127	1662.9606	22309.25	21401.5
903.2687	1664.6984	22156.7	21246.1
903.4105	1666.4354	21851.2	20940.4
903.5522	1668.1717	21382.65	20470.15
903.6939	1669.9072	20855.95	19944.55
903.8356	1671.642	20430.85	19518
903.9773	1673.3761	20109.5	19201.85
904.119	1675.1094	19789.5	18885.2
904.2606	1676.8419	19576.15	18672.7
904.4022	1678.5737	19378.3	18469.3
904.5439	1680.3048	19238.85	18330.05
904.6855	1682.0351	19090.4	18181.55
904.827	1683.7646	18944.15	18030.15
904.9686	1685.4934	18841.5	17934.5
905.1101	1687.2215	18732.7	17826.1
905.2517	1688.9488	18608.3	17700.15
905.3932	1690.6754	18545	17639.55
905.5347	1692.4012	18479.95	17574.05
905.6761	1694.1263	18396.7	17489.9
905.8176	1695.8506	18364.45	17459.6
905.9591	1697.5742	18272.7	17366.35
906.1005	1699.297	18163.7	17260.65
906.2419	1701.0191	18056.65	17156.35
906.3833	1702.7404	17980.2	17080.5
906.5246	1704.461	17906.9	17000.9
906.666	1706.1808	17830.9	16924.2
906.8073	1707.8999	17783.55	16881.85
906.9487	1709.6182	17728.65	16828.4
907.09	1711.3358	17668.45	16771.45
907.2313	1713.0527	17606.4	16712.95
907.3725	1714.7688	17565.1	16658.75
907.5138	1716.4841	17450.4	16543.9
907.655	1718.1987	17450.05	16542.15
907.7962	1719.9126	17370.35	16472.9
907.9374	1721.6257	17316.45	16418
908.0786	1723.338	17284.1	16383.8
908.2198	1725.0496	17111.25	16211.25
908.3609	1726.7605	17086.55	16183.8
908.502	1728.4706	17039.95	16140.65
908.6431	1730.18	16952.7	16051.1
908.7842	1731.8886	16931.2	16034.95
908.9253	1733.5964	16891	15972.05
909.0664	1735.3036	16843.5	15942.9
909.2074	1737.0099	16775.95	15877.65
909.3484	1738.7156	16747.15	15850.3
909.4894	1740.4204	16642.75	15742.25
909.6304	1742.1246	16589.55	15690.3
909.7714	1743.8279	16553.95	15653.05
909.9123	1745.5306	16532.35	15634.2
910.0532	1747.2325	16488.35	15592.9
910.1941	1748.9336	16432	15534.4
910.335	1750.634	16381.95	15480.85
910.4759	1752.3336	16338.6	15439.9
910.6168	1754.0325	16284.95	15389.55
910.7576	1755.7307	16248.55	15352.45
910.8984	1757.4281	16245.6	15348.2
911.0392	1759.1247	16222.4	15314.85
911.18	1760.8206	16177.55	15272.35
911.3208	1762.5158	16144.05	15238
911.4615	1764.2102	16058.15	15157.35
911.6022	1765.9039	16000.25	15103.4
911.7429	1767.5968	15979.75	15086.4
911.8836	1769.289	15924.35	15031.4
912.0243	1770.9804	15876.25	14976.1
912.1649	1772.6711	15882.15	14979.1
912.3056	1774.361	15807.6	14906.3
912.4462	1776.0502	15774.05	14872.65
912.5868	1777.7386	15763.85	14864.8
912.7274	1779.4263	15668.6	14771.85
912.8679	1781.1132	15665.15	14772.45
913.0084	1782.7994	15587.45	14693.2
913.149	1784.4849	15548.05	14655
913.2895	1786.1696	15537.95	14623.45
913.4299	1787.8535	15463.85	14567.95
913.5704	1789.5367	15400.95	14507.85
913.7108	1791.2192	15381.25	14486.8
913.8513	1792.9009	15328.65	14404.25
913.9917	1794.5818	15300.4	14400.15
914.132	1796.2621	15263.45	14367.05
914.2724	1797.9415	15239.3	14340.65
914.4128	1799.6202	15164.8	14268.95
914.5531	1801.2982	15152.1	14254.45
914.6934	1802.9755	15124.7	14224.3
914.8337	1804.6519	15106.1	14210.05
914.9739	1806.3277	15010.9	14115.6
915.1142	1808.0027	14998.8	14106.15
915.2544	1809.6769	14956.7	14064.4
915.3946	1811.3504	14907.4	14014.3
915.5348	1813.0231	14874	13982.25
915.675	1814.6951	14829.75	13935.05
915.8151	1816.3664	14831.2	13929.45
915.9553	1818.0369	14809.85	13914.9
916.0954	1819.7067	14767.25	13869
916.2355	1821.3757	14716.6	13816.05
916.3755	1823.044	14669.4	13773.05
916.5156	1824.7115	14647.1	13749.8
916.6556	1826.3783	14590.35	13692.25
916.7956	1828.0443	14532	13637.65
916.9356	1829.7096	14504.95	13605.2
917.0756	1831.3741	14515.3	13618.45
917.2155	1833.0379	14451.85	13558.05
917.3555	1834.701	14391.45	13496.95
917.4954	1836.3633	14393.9	13500.3
917.6353	1838.0248	14352.25	13458.05
917.7751	1839.6856	14303.35	13409.65
917.915	1841.3457	14293.9	13400.7
918.0548	1843.005	14248.65	13350.7
918.1946	1844.6636	14244.15	13348.35
918.3344	1846.3214	14163.65	13266.05
918.4742	1847.9785	14160.3	13264.2
918.6139	1849.6349	14154.45	13257.9
918.7537	1851.2904	14101.35	13195.35
918.8934	1852.9453	14055.5	13157.6
919.0331	1854.5994	14045	13145.25
919.1727	1856.2528	14025.35	13123.8
919.3124	1857.9054	13970.75	13074.6
919.452	1859.5572	13973.95	13079.15
919.5916	1861.2083	13935.65	13039.35
919.7312	1862.8587	13933.75	13038.6
919.8708	1864.5084	13864	12962.95
920.0103	1866.1572	13808.8	12911.4
920.1498	1867.8054	13754.6	12856.3
920.2893	1869.4528	13754.55	12855.55
920.4288	1871.0994	13680.25	12783.25
920.5683	1872.7453	13681.3	12786.75
920.7077	1874.3905	13667.3	12763.3
920.8471	1876.0349	13582	12683.75
920.9865	1877.6786	13598.9	12701.1
921.1259	1879.3215	13580.5	12684.4
921.2653	1880.9637	13526.2	12626.7
921.4046	1882.6051	13507.3	12612.1
921.5439	1884.2458	13457.6	12560.7
921.6832	1885.8858	13386.75	12490.4
921.8225	1887.525	13378.3	12479.8
921.9617	1889.1634	13337.5	12440
922.101	1890.8011	13315.4	12419.5
922.2402	1892.4381	13272.75	12378
922.3794	1894.0743	13240.1	12344.6
922.5185	1895.7098	13217	12320.8
922.6577	1897.3446	13197.85	12301.7
922.7968	1898.9786	13139.9	12238.95
922.9359	1900.6118	13112.8	12218.15
923.075	1902.2443	13051.7	12154
923.214	1903.8761	13007.85	12113.4
923.3531	1905.5071	12935.5	12040.5
923.4921	1907.1374	12904.9	12008.35
923.6311	1908.7669	12892.35	11996
923.77	1910.3957	12878.8	11987.75
923.909	1912.0237	12832.25	11937.45
924.0479	1913.651	12779.2	11883.7
924.1868	1915.2776	12737.55	11842.8
924.3257	1916.9034	12665.15	11770.95
924.4646	1918.5285	12622.1	11730.85
924.6034	1920.1528	12556.55	11665.1
924.7422	1921.7764	12584.6	11690.1
924.881	1923.3992	12538.95	11644.7
925.0198	1925.0213	12443.25	11548.9
925.1586	1926.6427	12395.3	11500.55
925.2973	1928.2633	12406.65	11440.05
925.436	1929.8832	12350.6	11453.95
925.5747	1931.5023	12286.3	11393.25
925.7134	1933.1207	12241.55	11345.6
925.852	1934.7383	12239.35	11344.2
925.9906	1936.3552	12181.15	11289.15
926.1292	1937.9714	12145.9	11250.6
926.2678	1939.5868	12096.4	11200.9
926.4064	1941.2015	12006.4	11111.5
926.5449	1942.8154	11997.05	11101.35
926.6834	1944.4286	11932.75	11038.6
926.8219	1946.041	11912.5	10997.5
926.9604	1947.6528	11823.15	10924
927.0988	1949.2637	11832.95	10940.5
927.2372	1950.8739	11778.95	10886
927.3756	1952.4834	11741.15	10846.55
927.514	1954.0921	11727.1	10831.5
927.6523	1955.7001	11684.2	10789.35
927.7907	1957.3074	11658.2	10766.55
927.929	1958.9139	11598.95	10710.05
928.0673	1960.5197	11569.2	10677.9
928.2055	1962.1247	11523.35	10632.4
928.3438	1963.729	11458.2	10568.65
928.482	1965.3325	11422.05	10509.65
928.6202	1966.9353	11385.2	10496.9
928.7584	1968.5374	11329.35	10437.7
928.8965	1970.1387	11304.65	10413.2
929.0346	1971.7393	11270.3	10380.95
929.1727	1973.3392	11246.95	10356.95
929.3108	1974.9383	11199.75	10311.6
929.4489	1976.5366	11162.6	10274.8
929.5869	1978.1342	11121.5	10232.65
929.7249	1979.7311	11098.05	10209.7
929.8629	1981.3273	11062.85	10175.2
930.0009	1982.9227	11042.85	10153.65
930.1388	1984.5173	10976.55	10088.9
930.2767	1986.1112	10912.45	10025.7
930.4146	1987.7044	10920.6	10032.45
930.5525	1989.2968	10883.6	9991.85
930.6904	1990.8885	10872.65	9981.75
930.8282	1992.4795	10838.15	9950.2
930.966	1994.0697	10813.7	9928.6
931.1038	1995.6592	10776.2	9889.65
931.2415	1997.2479	10735.6	9845.9
931.3793	1998.8359	10694.9	9809.1
931.517	2000.4232	10662.95	9779.1
931.6547	2002.0097	10613.05	9729.75
931.7923	2003.5955	10552.55	9668.05
931.93	2005.1805	10580.9	9692.95
932.0676	2006.7648	10543.35	9659.5
932.2052	2008.3484	10523.2	9638.75
932.3427	2009.9312	10512.65	9626.85
932.4803	2011.5133	10452.25	9569.2
932.6178	2013.0946	10436.5	9551.45
932.7553	2014.6752	10426.85	9542.5
932.8928	2016.2551	10389.9	9504.4
933.0302	2017.8342	10359.6	9473.35
933.1676	2019.4126	10279.5	9394.6
933.305	2020.9902	10227.45	9344.75
933.4424	2022.5672	10220.3	9334.7
933.5798	2024.1433	10202.15	9314.45
933.7171	2025.7188	10172.9	9292.5
933.8544	2027.2935	10157.5	9273.05
933.9917	2028.8674	10088.3	9206.05
934.129	2030.4406	10089.7	9206.65
934.2662	2032.0131	10021.8	9140.9
934.4034	2033.5849	10017.45	9126.35
934.5406	2035.1559	9974.7	9093.75
934.6778	2036.7261	9980.05	9094.9
934.8149	2038.2957	9932.5	9045.7
934.952	2039.8645	9895.45	9008.8
935.0891	2041.4325	9907.9	9018.35
935.2262	2042.9998	9863.55	8978.35
935.3632	2044.5664	9845.25	8959.1
935.5002	2046.1323	9801.85	8920.5
935.6372	2047.6974	9774.3	8889.35
935.7742	2049.2617	9761.25	8877.9
935.9111	2050.8254	9752.65	8863.1
936.048	2052.3883	9717	8830.25
936.1849	2053.9504	9694.85	8807
936.3218	2055.5118	9656.3	8769.1
936.4586	2057.0725	9606.55	8717.05
936.5955	2058.6325	9607.15	8721.5
936.7323	2060.1917	9580.75	8698.4
936.869	2061.7502	9557.8	8670.3
937.0058	2063.3079	9521.85	8638.95
937.1425	2064.8649	9461.65	8574.45
937.2792	2066.4212	9434.2	8547.6
937.4159	2067.9767	9436.35	8551.15
937.5525	2069.5315	9404.7	8519.1
937.6891	2071.0856	9359.1	8474.3
937.8257	2072.6389	9337.25	8452.9
937.9623	2074.1915	9288.55	8405.35
938.0989	2075.7433	9231.1	8345.15
938.2354	2077.2945	9207.7	8322.3
938.3719	2078.8448	9181.6	8296.9
938.5084	2080.3945	9160.15	8276.5
938.6448	2081.9434	9161.25	8273.4
938.7812	2083.4916	9136.9	8248.35
938.9176	2085.039	9076.55	8185.35
939.054	2086.5857	9068.95	8175.45
939.1903	2088.1317	9060.9	8167.15
939.3267	2089.677	9007.1	8114.25
939.463	2091.2215	8963.75	8071.55
939.5992	2092.7652	8972.5	8080.95
939.7355	2094.3083	8954.25	8060.65
939.8717	2095.8506	8936.85	8048.1
940.0079	2097.3921	8925.6	8039.6
940.1441	2098.933	8916.4	8027.5
940.2802	2100.4731	8872.9	7986.3
940.4163	2102.0124	8870.5	7974.65
940.5524	2103.5511	8822.05	7932.65
940.6885	2105.089	8812.2	7921.75
940.8245	2106.6261	8782	7893.75
940.9606	2108.1626	8775.45	7887.85
941.0965	2109.6983	8775.5	7858.85
941.2325	2111.2332	8739.5	7852.2
941.3684	2112.7675	8698.6	7807.85
941.5044	2114.301	8681	7790.15
941.6403	2115.8337	8652.9	7764.95
941.7761	2117.3657	8626.1	7737.75
941.912	2118.897	8630.55	7741.75
942.0478	2120.4276	8602.3	7706.4
942.1835	2121.9575	8539.35	7647.5
942.3193	2123.4866	8545.9	7653.45
942.455	2125.0149	8520.2	7630.1
942.5907	2126.5426	8478.5	7594.2
942.7264	2128.0695	8455.95	7566.65
942.8621	2129.5956	8440.8	7556.85
942.9977	2131.1211	8426.45	7536.3
943.1333	2132.6458	8387.15	7500.95
943.2689	2134.1698	8377.65	7485.85
943.4044	2135.693	8348.25	7453.35
943.54	2137.2155	8340.2	7444.7
943.6755	2138.7373	8330.85	7442.3
943.8109	2140.2584	8286.55	7400.05
943.9464	2141.7787	8258.3	7368.55
944.0818	2143.2983	8236.85	7354.25
944.2172	2144.8171	8195.15	7311.25
944.3526	2146.3353	8171.65	7285.4
944.4879	2147.8527	8155.95	7269.9
944.6232	2149.3693	8134.65	7245.7
944.7585	2150.8853	8109.9	7219.85
944.8938	2152.4005	8083.85	7191.6
945.029	2153.9149	8083.7	7193.25
945.1642	2155.4287	8153.45	7156.85
945.2994	2156.9417	8051.35	7158.55
945.4346	2158.454	8003.1	7114.3
945.5697	2159.9655	7989.8	7103.25
945.7048	2161.4764	7963	7078.5
945.8399	2162.9865	7924.3	7038.65
945.9749	2164.4958	7899.75	7012.3
946.1099	2166.0045	7873.05	6982.15
946.2449	2167.5124	7871.7	6983.75
946.3799	2169.0195	7879.6	6992.55
946.5148	2170.526	7866.45	6979.5
946.6498	2172.0317	7817.8	6930.75
946.7846	2173.5367	7803.5	6913.25
946.9195	2175.0409	7790.1	6901.85
947.0543	2176.5445	7767.35	6879.2
947.1891	2178.0473	7736.75	6845.1
947.3239	2179.5494	7715.85	6822.9
947.4587	2181.0507	7692.2	6804.45
947.5934	2182.5513	7651.15	6762.75
947.7281	2184.0512	7639.45	6750.9
947.8628	2185.5504	7606	6719.65
947.9974	2187.0488	7568.95	6683.5
948.132	2188.5465	7554.15	6667.95
948.2666	2190.0435	7540	6651.15
948.4012	2191.5397	7515.15	6625
948.5357	2193.0353	7518.25	6629.25
948.6702	2194.5301	7459.6	6568.55
948.8047	2196.0241	7445.95	6553.5
948.9392	2197.5175	7427.55	6534
949.0736	2199.0101	7369.5	6471.85
949.208	2200.502	7362.4	6475.6
949.3424	2201.9931	7321.95	6433
949.4767	2203.4835	7307.15	6420.6
949.611	2204.9733	7295.75	6394.8
949.7453	2206.4622	7264.5	6379.95
949.8796	2207.9505	7241.15	6352.3
950.0138	2209.438	7203.7	6319.2
950.148	2210.9248	7211.95	6324.35
950.2822	2212.4109	7171.25	6282.25
950.4164	2213.8962	7162	6268.5
950.5505	2215.3809	7134.15	6241
950.6846	2216.8648	7117.2	6222.8
950.8186	2218.3479	7103.1	6205.35
950.9527	2219.8304	7074.6	6179.4
951.0867	2221.3121	7050.75	6154.85
951.2207	2222.7931	7029.5	6138.35
951.3546	2224.2733	6994.35	6102.3
951.4886	2225.7529	6977.3	6086.75
951.6225	2227.2317	6951.65	6062.4
951.7563	2228.7098	6933.85	6047.15
951.8902	2230.1872	6901.6	6017.25
952.024	2231.6638	6910.65	6024.15
952.1578	2233.1397	6863.65	5974.5
952.2916	2234.6149	6876.4	5990.95
952.4253	2236.0894	6833.4	5946.65
952.559	2237.5632	6817.5	5926.65
952.6927	2239.0362	6764.95	5876.55
952.8263	2240.5085	6771.5	5882.25
952.9599	2241.9801	6761.65	5871.45
953.0935	2243.4509	6724.8	5833.85
953.2271	2244.921	6719	5828.4
953.3606	2246.3904	6690.6	5795.85
953.4941	2247.8591	6677.6	5788.2
953.6276	2249.3271	6646.8	5756.5
953.7611	2250.7943	6620.85	5727.85
953.8945	2252.2608	6606.7	5716.25
954.0279	2253.7266	6589.2	5699.25
954.1612	2255.1917	6571.35	5680.1
954.2946	2256.656	6528	5640.5
954.4279	2258.1197	6492	5603.8
954.5612	2259.5826	6494.2	5604.05
954.6944	2261.0447	6477.35	5585.35
954.8276	2262.5062	6472.2	5579
954.9608	2263.9669	6456	5563.9
955.094	2265.4269	6452.5	5560.1
955.2271	2266.8862	6426.15	5537.7
955.3602	2268.3448	6411.75	5524.35
955.4933	2269.8026	6408.65	5521.55
955.6264	2271.2598	6384.45	5497.45
955.7594	2272.7162	6362.35	5474.25
955.8924	2274.1719	6350.45	5457.95
956.0253	2275.6268	6319.25	5425.85
956.1583	2277.0811	6312.55	5420.15
956.2912	2278.5346	6306.4	5418.45
956.4241	2279.9874	6282.15	5394.5
956.5569	2281.4395	6279.2	5392.2
956.6897	2282.8908	6247.2	5354.25
956.8225	2284.3414	6235.7	5345.35
956.9553	2285.7914	6222.85	5334.35
957.088	2287.2406	6199.25	5306.9
957.2207	2288.689	6178.85	5287.9
957.3534	2290.1368	6192.2	5298.7
957.486	2291.5838	6157.7	5261.7
957.6186	2293.0302	6142.65	5246.25
957.7512	2294.4758	6096.8	5204.55
957.8838	2295.9206	6077.75	5184.1
958.0163	2297.3648	6071.55	5182.95
958.1488	2298.8082	6071.35	5182.2
958.2813	2300.251	6029.2	5137.45
958.4137	2301.693	6038.2	5140.35
958.5461	2303.1343	6023.85	5130.4
958.6785	2304.5748	5995.15	5105.1
958.8108	2306.0147	5956.3	5068.05
958.9432	2307.4538	5936.25	5047.4
959.0754	2308.8922	5928.4	5042.9
959.2077	2310.3299	5921.85	5033.5
959.3399	2311.7669	5888.35	5001.45
959.4721	2313.2031	5889.7	4998.75
959.6043	2314.6387	5851.55	4961.05
959.7365	2316.0735	5828.2	4939.15
959.8686	2317.5076	5847.15	4957.45
960.0006	2318.941	5825.3	4934.55
960.1327	2320.3737	5814.1	4922.8
960.2647	2321.8056	5793.75	4899.9
960.3967	2323.2369	5776.4	4883.3
960.5287	2324.6674	5762.65	4871
960.6606	2326.0972	5732.2	4841.65
960.7925	2327.5263	5731.15	4840.5
960.9244	2328.9547	5694.3	4803.65
961.0562	2330.3823	5690.45	4798.2
961.1881	2331.8092	5689.65	4792.75
961.3198	2333.2355	5658.35	4764.1
961.4516	2334.661	5638.15	4744
961.5833	2336.0858	5632.75	4740.25
961.715	2337.5098	5608	4719.3
961.8467	2338.9332	5581	4689.95
961.9783	2340.3558	5567.8	4676.5
962.1099	2341.7778	5556.15	4666.2
962.2415	2343.199	5537.85	4645.8
962.373	2344.6195	5529.75	4640.65
962.5045	2346.0393	5504.5	4616.35
962.636	2347.4583	5499.3	4608.35
962.7675	2348.8767	5483.05	4588.75
962.8989	2350.2943	5475.15	4581.45
963.0303	2351.7113	5490	4594.95
963.1617	2353.1275	5454.65	4558.55
963.293	2354.543	5427.3	4527.55
963.4243	2355.9578	5412.65	4521.15
963.5556	2357.3718	5388.2	4501.3
963.6868	2358.7852	5360.25	4469.8
963.818	2360.1978	5348.75	4459.05
963.9492	2361.6098	5342.75	4453.75
964.0803	2363.021	5331.05	4437.35
964.2114	2364.4315	5317.15	4426.35
964.3425	2365.8413	5304.85	4414
964.4736	2367.2504	5295.4	4406.15
964.6046	2368.6587	5258.7	4370.8
964.7356	2370.0664	5239.5	4351.3
964.8666	2371.4733	5219.25	4330.95
964.9975	2372.8795	5205.25	4315.95
965.1284	2374.285	5180.2	4291.55
965.2593	2375.6899	5163.3	4276.05
965.3901	2377.0939	5136.85	4247.3
965.5209	2378.4973	5136.55	4249.25
965.6517	2379.9	5107	4218.7
965.7825	2381.3019	5110.45	4220.65
965.9132	2382.7032	5079.2	4192.25
966.0439	2384.1037	5064.35	4178.6
966.1745	2385.5035	5056.9	4171.95
966.3051	2386.9027	5042.2	4157.15
966.4357	2388.3011	5037.1	4147.75
966.5663	2389.6987	5019.25	4133.65
966.6968	2391.0957	4980.4	4094.45
966.8273	2392.492	4959.7	4073.8
966.9578	2393.8876	4933.9	4046
967.0882	2395.2824	4938.65	4051.3
967.2186	2396.6765	4930.85	4043.05
967.349	2398.07	4888.2	4000.9
967.4793	2399.4627	4886.25	3997.7
967.6097	2400.8547	4873.9	3983.2
967.7399	2402.246	4849.65	3954.75
967.8702	2403.6366	4834.85	3944.85
968.0004	2405.0265	4809.65	3922.3
968.1306	2406.4156	4808.9	3917.05
968.2607	2407.8041	4783.25	3893.3
968.3909	2409.1918	4787.75	3900
968.521	2410.5789	4755.95	3868.9
968.651	2411.9652	4755.35	3861.1
968.781	2413.3508	4738.75	3846.9
968.911	2414.7358	4719.4	3829.95
969.041	2416.12	4716.55	3828.55
969.1709	2417.5035	4697.9	3811
969.3008	2418.8863	4697.95	3808
969.4307	2420.2684	4674.95	3786.7
969.5606	2421.6497	4642.75	3754.9
969.6904	2423.0304	4639.05	3751
969.8201	2424.4104	4627.7	3740.35
969.9499	2425.7896	4601.25	3709.25
970.0796	2427.1682	4588.25	3700.95
970.2093	2428.546	4580.75	3692.1
970.3389	2429.9232	4574.15	3682.15
970.4685	2431.2996	4564.15	3676.4
970.5981	2432.6753	4557.9	3670.4
970.7277	2434.0503	4548.3	3658.1
970.8572	2435.4246	4517.35	3628.4
970.9867	2436.7982	4493.4	3602.8
971.1161	2438.1711	4486	3594.8
971.2456	2439.5433	4480.65	3590
971.375	2440.9148	4462.55	3568.85
971.5043	2442.2856	4442.75	3553.95
971.6336	2443.6557	4429.55	3536.85
971.7629	2445.025	4408.75	3519.5
971.8922	2446.3937	4408.05	3518.4
972.0214	2447.7617	4401.65	3512.8
972.1506	2449.1289	4384.7	3492.8
972.2798	2450.4955	4385.05	3491.6
972.4089	2451.8613	4385.45	3497.9
972.538	2453.2265	4366.2	3478.85
972.6671	2454.5909	4343.95	3453.3
972.7961	2455.9546	4348.5	3459.25
972.9251	2457.3177	4330.25	3442.65
973.0541	2458.68	4325.05	3433.8
973.1831	2460.0416	4305.5	3415.6
973.312	2461.4025	4316.05	3425.75
973.4408	2462.7627	4300.55	3401.35
973.5697	2464.1222	4287.4	3401.7
973.6985	2465.4811	4255.75	3368.3
973.8273	2466.8392	4239.8	3353.9
973.956	2468.1966	4251.2	3361
974.0847	2469.5533	4236.3	3345.95
974.2134	2470.9093	4234.2	3344.7
974.3421	2472.2645	4232.95	3340.3
974.4707	2473.6191	4218.2	3328.5
974.5993	2474.973	4193.4	3303.1
974.7278	2476.3262	4178.05	3288.3
974.8563	2477.6787	4159.1	3270.65
974.9848	2479.0305	4143.85	3254.95
975.1132	2480.3816	4136.85	3248.25
975.2417	2481.7319	4129.85	3242.15
975.37	2483.0816	4105.15	3215.2
975.4984	2484.4306	4094.9	3204.7
975.6267	2485.7789	4080.95	3194.1
975.755	2487.1264	4066.4	3177.3
975.8833	2488.4733	4053.1	3166.05
976.0115	2489.8195	4070.55	3165.95
976.1397	2491.165	4031.9	3139.95
976.2678	2492.5097	4012.15	3122.65
976.3959	2493.8538	4009.4	3122.65
976.524	2495.1972	3989.15	3099.85
976.6521	2496.5398	3976.65	3084.75
976.7801	2497.8818	3964.3	3072.75
976.9081	2499.2231	3953.3	3064.4
977.036	2500.5637	3937.2	3042.55
977.164	2501.9035	3948.4	3056.35
977.2918	2503.2427	3927.35	3032.85
977.4197	2504.5812	3911.05	3021.9
977.5475	2505.919	3907.15	3016.1
977.6753	2507.256	3913.75	3023.2
977.8031	2508.5924	3898.45	3010.65
977.9308	2509.9281	3882.3	2988.05
978.0585	2511.2631	3877.8	2987.15
978.1861	2512.5974	3852.95	2965.35
978.3137	2513.9309	3844.25	2956.5
978.4413	2515.2638	3860.2	2944.15
978.5689	2516.596	3827.7	2935.15
978.6964	2517.9275	3808.15	2918.3
978.8239	2519.2583	3792.5	2901.9
978.9513	2520.5884	3774.8	2885.6
979.0788	2521.9178	3761.8	2873.4
979.2062	2523.2465	3765.5	2877.65
979.3335	2524.5745	3758.45	2871.25
979.4608	2525.9018	3739.1	2849.05
979.5881	2527.2284	3723.05	2833.85
979.7154	2528.5543	3735.85	2847.9
979.8426	2529.8796	3718.35	2828.65
979.9698	2531.2041	3706.4	2817.5
980.0969	2532.5279	3704.1	2818.6
980.224	2533.851	3693.5	2805.95
980.3511	2535.1735	3690.95	2803.65
980.4781	2536.4952	3665.95	2777.45
980.6052	2537.8163	3666	2775.95
980.7321	2539.1366	3653.8	2764.65
980.8591	2540.4562	3643.55	2751.75
980.986	2541.7752	3638.55	2750.65
981.1129	2543.0935	3632	2740.5
981.2397	2544.411	3631.8	2740.2
981.3665	2545.7279	3637.9	2745.6
981.4933	2547.0441	3621.45	2730.4
981.62	2548.3596	3619.9	2729.85
981.7467	2549.6744	3595.75	2704.3
981.8734	2550.9885	3582.15	2685.15
982.0001	2552.3019	3578.2	2690.1
982.1267	2553.6146	3584.95	2696.15
982.2532	2554.9266	3581.45	2689.95
982.3798	2556.2379	3562	2670.65
982.5063	2557.5485	3551.9	2662.85
982.6327	2558.8585	3544.15	2647.1
982.7592	2560.1677	3530.25	2635.2
982.8856	2561.4762	3533.95	2643.25
983.0119	2562.7841	3527.45	2633.65
983.1383	2564.0913	3515.15	2626
983.2646	2565.3977	3513.5	2625.65
983.3908	2566.7035	3494.85	2604.45
983.517	2568.0086	3498.4	2605.45
983.6432	2569.313	3495.85	2607.2
983.7694	2570.6167	3477.7	2585
983.8955	2571.9197	3472.3	2584.05
984.0216	2573.222	3463.7	2569.2
984.1476	2574.5236	3471.05	2579.65
984.2737	2575.8246	3457.25	2566.35
984.3996	2577.1248	3454.55	2561.65
984.5256	2578.4244	3447.75	2558
984.6515	2579.7232	3430.1	2540.75
984.7774	2581.0214	3466.25	2542.85
984.9032	2582.3189	3437.9	2547.05
985.029	2583.6157	3429.5	2534.4
985.1548	2584.9118	3433	2543.15
985.2806	2586.2072	3413.35	2521.9
985.4063	2587.5019	3401.8	2511.6
985.5319	2588.7959	3394.35	2504.65
985.6576	2590.0893	3397.3	2505.25
985.7832	2591.3819	3403.5	2514.6
985.9087	2592.6739	3380.85	2491.05
986.0343	2593.9652	3376.5	2482.9
986.1597	2595.2557	3366.25	2476.4
986.2852	2596.5456	3368.8	2477.4
986.4106	2597.8348	3348.6	2461.1
986.536	2599.1234	3344.55	2455.85
986.6614	2600.4112	3342.2	2452
986.7867	2601.6983	3333.5	2441.65
986.912	2602.9848	3328.05	2436.75
987.0372	2604.2705	3320.05	2423.6
987.1624	2605.5556	3308.35	2417
987.2876	2606.84	3286.65	2397.7
987.4128	2608.1237	3298.1	2407.5
987.5379	2609.4067	3283.6	2392.95
987.6629	2610.689	3282.25	2382.8
987.788	2611.9707	3266.35	2372.4
987.913	2613.2516	3245.85	2352.1
988.0379	2614.5319	3231.85	2340.8
988.1629	2615.8115	3230.2	2339.85
988.2878	2617.0903	3208.35	2316.85
988.4126	2618.3685	3209.05	2317.15
988.5375	2619.6461	3207.85	2315.7
988.6622	2620.9229	3200	2310.85
988.787	2622.199	3196.5	2306.5
988.9117	2623.4745	3187.6	2297.45
989.0364	2624.7493	3184.85	2293.15
989.161	2626.0234	3163.1	2272.9
989.2857	2627.2968	3156.45	2268.25
989.4102	2628.5695	3149.2	2257.35
989.5348	2629.8415	3145.65	2255.5
989.6593	2631.1128	3135.05	2243.4
989.7837	2632.3835	3111.35	2220.05
989.9082	2633.6535	3114.5	2225.75
990.0326	2634.9228	3105.9	2217
990.1569	2636.1914	3101.9	2215.25
990.2812	2637.4593	3109.45	2215.4
990.4055	2638.7265	3098.15	2206.7
990.5298	2639.9931	3090.25	2199.1
990.654	2641.259	3066.45	2175.3
990.7782	2642.5242	3073.85	2182.3
990.9023	2643.7887	3052.7	2162.1
991.0264	2645.0525	3052.8	2163.55
991.1505	2646.3156	3051.4	2145.35
991.2745	2647.5781	3024.05	2135.15
991.3985	2648.8398	3022.15	2133.15
991.5225	2650.1009	3045.5	2133.15
991.6464	2651.3613	3033.35	2143
991.7703	2652.6211	2997.75	2105.75
991.8942	2653.8801	2999.35	2110.35
992.018	2655.1385	3006.65	2112.25
992.1418	2656.3961	2987.35	2096.65
992.2655	2657.6531	2983.4	2093.45
992.3892	2658.9094	2973.25	2084.85
992.5129	2660.1651	2954.15	2064.95
992.6366	2661.42	2958.35	2068.75
992.7602	2662.6743	2961.6	2071.6
992.8837	2663.9279	2960.85	2072.8
993.0073	2665.1808	2962.6	2072.4
993.1307	2666.433	2963.05	2073.75
993.2542	2667.6846	2952.05	2061.1
993.3776	2668.9354	2951.8	2060.9
993.501	2670.1856	2938.4	2047.6
993.6244	2671.4351	2935.9	2047.25
993.7477	2672.6839	2931.3	2042.05
993.8709	2673.9321	2928.5	2038.65
993.9942	2675.1795	2913.75	2023.35
994.1174	2676.4263	2914.55	2024.5
994.2405	2677.6724	2912.25	2024.2
994.3637	2678.9179	2907.7	2018.15
994.4868	2680.1626	2912.3	2023.8
994.6098	2681.4067	2892.35	2004.3
994.7328	2682.6501	2895.35	2006.05
994.8558	2683.8928	2881.7	1992
994.9788	2685.1348	2885.85	1996.95
995.1017	2686.3761	2877.9	1990
995.2245	2687.6168	2868.5	1979.55
995.3474	2688.8568	2861.2	1972.4
995.4702	2690.0961	2835.2	1947.85
995.5929	2691.3348	2833.6	1945.6
995.7156	2692.5727	2826.7	1937.8
995.8383	2693.81	2820.65	1932.05
995.961	2695.0466	2805.1	1914.7
996.0836	2696.2826	2797.1	1907.55
996.2062	2697.5178	2798.05	1905.9
996.3287	2698.7524	2783.3	1893.85
996.4512	2699.9863	2799.7	1907.25
996.5737	2701.2195	2795.9	1907.4
996.6961	2702.452	2785.8	1892.95
996.8185	2703.6839	2792.85	1903.75
996.9408	2704.9151	2786.1	1895.7
997.0631	2706.1456	2781.5	1893.3
997.1854	2707.3755	2788.35	1899.2
997.3077	2708.6046	2777.25	1886.35
997.4299	2709.8331	2789.05	1900.3
997.552	2711.0609	2784.9	1894.2
997.6742	2712.2881	2783	1893.9
997.7963	2713.5145	2798.55	1897.5
997.9183	2714.7403	2794.75	1907.8
998.0403	2715.9654	2793	1906.1
998.1623	2717.1899	2820.65	1918.85
998.2842	2718.4136	2813.65	1926.65
998.4062	2719.6367	2825.6	1937.1
998.528	2720.8591	2833.3	1936.9
998.6498	2722.0809	2817.05	1928.05
998.7716	2723.3019	2839.55	1946.95
998.8934	2724.5223	2842.85	1954.2
999.0151	2725.7421	2824.1	1935.1
999.1368	2726.9611	2828.25	1938.8
999.2584	2728.1795	2827.5	1936.45
999.38	2729.3972	2809.2	1919.8
999.5016	2730.6142	2795.2	1900
999.6231	2731.8306	2768.95	1880.45
999.7446	2733.0462	2756.6	1865.95
999.8661	2734.2612	2728.95	1835.95
999.9875	2735.4756	2709.75	1819
1000.1089	2736.6892	2687.35	1799.5
1000.2302	2737.9022	2665.5	1778.55
1000.3515	2739.1145	2646.8	1757.8
1000.4728	2740.3262	2646.2	1749.6
1000.594	2741.5372	2610.6	1724.2
1000.7152	2742.7475	2597.55	1709.3
1000.8363	2743.9571	2584.05	1694.8
1000.9575	2745.1661	2568.85	1676.45
1001.0785	2746.3744	2566.25	1675.8
1001.1996	2747.582	2552.45	1663.7
1001.3206	2748.7889	2532.15	1644.5
1001.4415	2749.9952	2521.85	1632.95
1001.5625	2751.2008	2510.3	1623
1001.6833	2752.4057	2509.05	1619.65
1001.8042	2753.61	2490.65	1601.7
1001.925	2754.8136	2489.25	1599.1
1002.0458	2756.0165	2475.75	1590.05
1002.1665	2757.2188	2476.05	1590.3
1002.2872	2758.4204	2470.15	1581.45
1002.4078	2759.6213	2468.9	1579.15
1002.5285	2760.8215	2468.1	1575.5
1002.649	2762.0211	2456.2	1564.35
1002.7696	2763.22	2446.55	1555.65
1002.8901	2764.4182	2444.35	1554.2
1003.0106	2765.6158	2446.25	1558.3
1003.131	2766.8127	2441.75	1553.8
1003.2514	2768.009	2410.6	1523.55
1003.3717	2769.2045	2415.6	1527.8
1003.492	2770.3994	2425.2	1534.1
1003.6123	2771.5936	2409.75	1522.15
1003.7325	2772.7872	2396.3	1508.75
1003.8527	2773.9801	2395.35	1505.1
1003.9729	2775.1723	2399.4	1496.35
1004.093	2776.3639	2386.15	1501.4
1004.2131	2777.5548	2380.1	1490.6
1004.3331	2778.745	2376.05	1488.8
1004.4531	2779.9346	2370.75	1484.2
1004.5731	2781.1235	2372.15	1486.05
1004.693	2782.3117	2365.25	1478.65
1004.8129	2783.4992	2372.05	1486.6
1004.9328	2784.6861	2361.75	1475.2
1005.0526	2785.8723	2369.5	1480.1
1005.1723	2787.0579	2378.35	1491.05
1005.2921	2788.2428	2382.3	1494.95
1005.4118	2789.427	2389.5	1504.6
1005.5314	2790.6106	2381.15	1493.25
1005.651	2791.7935	2386.6	1500.75
1005.7706	2792.9757	2400.15	1514.6
1005.8902	2794.1573	2415.45	1527.05
1006.0097	2795.3382	2413.05	1526.9
1006.1291	2796.5184	2422.75	1537.65
1006.2485	2797.698	2429.2	1539.55
1006.3679	2798.8769	2449.05	1561.95
1006.4873	2800.0551	2459.4	1573.7
1006.6066	2801.2327	2471.85	1581.35
1006.7258	2802.4096	2481.6	1594.35
1006.8451	2803.5859	2498.8	1612.9
1006.9642	2804.7615	2537.9	1650.55
1007.0834	2805.9364	2534.05	1648.1
1007.2025	2807.1106	2573.05	1686.75
1007.3216	2808.2842	2592.45	1706
1007.4406	2809.4572	2627.4	1740.75
1007.5596	2810.6294	2677.45	1789.95
1007.6785	2811.801	2688.9	1803.6
1007.7975	2812.972	2726.55	1841.8
1007.9163	2814.1423	2778.2	1891.8
1008.0352	2815.3119	2830.05	1945.25
1008.154	2816.4808	2862.7	1977.05
1008.2727	2817.6491	2914.3	2026.85
1008.3914	2818.8167	2960.2	2074.05
1008.5101	2819.9837	3006.35	2114.9
1008.6288	2821.15	3044.95	2159.1
1008.7474	2822.3157	3080.3	2196.5
1008.8659	2823.4807	3130.25	2243.5
1008.9844	2824.645	3185.25	2298
1009.1029	2825.8086	3216.15	2328.15
1009.2214	2826.9716	3257.25	2374.2
1009.3398	2828.134	3291.65	2406.3
1009.4581	2829.2957	3320.5	2433.45
1009.5764	2830.4567	3361.4	2478.1
1009.6947	2831.617	3348.6	2462.1
1009.813	2832.7767	3355.45	2470.45
1009.9312	2833.9358	3373.8	2488.35
1010.0493	2835.0941	3362.85	2473.25
1010.1675	2836.2519	3347.45	2461.85
1010.2855	2837.4089	3330.55	2444.5
1010.4036	2838.5653	3328.75	2443.65
1010.5216	2839.7211	3335.8	2453.65
1010.6396	2840.8761	3323.95	2437.5
1010.7575	2842.0306	3340.05	2454.55
1010.8754	2843.1843	3382.65	2496.25
1010.9932	2844.3374	3438.45	2553.2
1011.111	2845.4899	3479.45	2593.2
1011.2288	2846.6417	3558	2672.7
1011.3465	2847.7928	3629.6	2746.5
1011.4642	2848.9433	3717	2833.55
1011.5818	2850.0931	3792.85	2907.4
1011.6995	2851.2422	3874.4	2990.1
1011.817	2852.3907	3941.15	3053.05
1011.9345	2853.5385	3994.45	3105.55
1012.052	2854.6857	4062.25	3167.55
1012.1695	2855.8323	4112.2	3229.45
1012.2869	2856.9781	4168.65	3283
1012.4042	2858.1233	4212.75	3326
1012.5216	2859.2679	4226.85	3340.8
1012.6389	2860.4118	4283.25	3397.15
1012.7561	2861.555	4329.8	3438.5
1012.8733	2862.6976	4358.25	3471.45
1012.9905	2863.8395	4376.9	3492.7
1013.1076	2864.9808	4401.15	3515.8
1013.2247	2866.1214	4412.4	3529.15
1013.3417	2867.2614	4427.45	3540.65
1013.4587	2868.4007	4431.65	3544.75
1013.5757	2869.5393	4439.4	3552.25
1013.6926	2870.6773	4469.9	3581.4
1013.8095	2871.8146	4469.25	3579.5
1013.9263	2872.9513	4484.9	3595.85
1014.0431	2874.0874	4462.9	3578.2
1014.1599	2875.2227	4451.25	3565.85
1014.2766	2876.3574	4436.75	3553.1
1014.3933	2877.4915	4388.55	3504.4
1014.51	2878.6249	4362.2	3478.65
1014.6266	2879.7577	4342.95	3456.45
1014.7431	2880.8898	4324.75	3428.55
1014.8596	2882.0212	4283.85	3400.2
1014.9761	2883.152	4273.7	3388.45
1015.0925	2884.2821	4274.1	3390.9
1015.2089	2885.4116	4261.95	3379.25
1015.3253	2886.5405	4268.55	3384.25
1015.4416	2887.6686	4263.7	3376.55
1015.5579	2888.7962	4270.8	3386.8
1015.6741	2889.923	4278.15	3393.8
1015.7903	2891.0493	4274.7	3392
1015.9065	2892.1748	4256.7	3371.55
1016.0226	2893.2997	4297.5	3411
1016.1387	2894.424	4290.15	3406.65
1016.2547	2895.5476	4305.5	3420.3
1016.3707	2896.6706	4338.35	3454.45
1016.4866	2897.7929	4363.95	3478.1
1016.6025	2898.9145	4390.75	3506.15
1016.7184	2900.0355	4419.25	3533.9
1016.8342	2901.1559	4426.7	3542.7
1016.95	2902.2756	4481.5	3596.5
1017.0658	2903.3946	4505.65	3622
1017.1815	2904.513	4527.25	3640.4
1017.2971	2905.6308	4557.9	3674.25
1017.4127	2906.7479	4578.5	3694.1
1017.5283	2907.8643	4593.75	3709.75
1017.6439	2908.9801	4592.55	3707.9
1017.7594	2910.0953	4617.15	3734.3
1017.8748	2911.2098	4611.65	3724.1
1017.9902	2912.3236	4602.15	3710.35
1018.1056	2913.4368	4595.45	3707.4
1018.2209	2914.5494	4556.25	3670.85
1018.3362	2915.6613	4544.25	3652.85
1018.4515	2916.7725	4500.3	3612.85
1018.5667	2917.8831	4493.75	3609.9
1018.6819	2918.9931	4433.7	3546.35
1018.797	2920.1024	4419.25	3535.45
1018.9121	2921.211	4390.15	3504.75
1019.0271	2922.319	4374.05	3490.95
1019.1421	2923.4264	4353.1	3470.2
1019.2571	2924.5331	4333.7	3450.5
1019.372	2925.6391	4306	3420.5
1019.4869	2926.7445	4299.65	3418.45
1019.6017	2927.8493	4301.05	3417.45
1019.7165	2928.9534	4287.85	3403.9
1019.8313	2930.0569	4280.5	3393.05
1019.946	2931.1597	4266.7	3382.05
1020.0606	2932.2619	4238.1	3353.35
1020.1753	2933.3634	4237.85	3355.9
1020.2899	2934.4643	4250.4	3357.55
1020.4044	2935.5645	4227.35	3336.65
1020.5189	2936.6641	4186.6	3298.5
1020.6334	2937.763	4127	3243.7
1020.7478	2938.8613	4070.1	3187.1
1020.8622	2939.959	4018.45	3129.55
1020.9765	2941.056	3931.9	3048.25
1021.0908	2942.1523	3847.1	2961.6
1021.2051	2943.248	3760.3	2875.1
1021.3193	2944.3431	3659.85	2774.65
1021.4334	2945.4375	3550.3	2667.1
1021.5476	2946.5313	3453.85	2569.55
1021.6617	2947.6244	3350.8	2468.5
1021.7757	2948.7169	3249.55	2364.1
1021.8897	2949.8087	3150.5	2266.05
1022.0037	2950.8999	3053	2170.05
1022.1176	2951.9904	2958	2075.25
1022.2315	2953.0803	2894	2010.8
1022.3453	2954.1696	2823.6	1940.05
1022.4591	2955.2582	2759	1875.6
1022.5728	2956.3462	2710.2	1826.95
1022.6865	2957.4335	2675.75	1790.2
1022.8002	2958.5202	2636.1	1750.05
1022.9138	2959.6062	2598.2	1714.85
1023.0274	2960.6916	2585.35	1701.95
1023.141	2961.7764	2558.95	1675.85
1023.2545	2962.8605	2540.3	1656.8
1023.3679	2963.9439	2519.6	1638.45
1023.4813	2965.0267	2509.35	1623.25
1023.5947	2966.1089	2512.2	1606.25
1023.708	2967.1905	2488	1606
1023.8213	2968.2714	2475.4	1594.35
1023.9346	2969.3516	2482.1	1599.1
1024.0478	2970.4312	2484.85	1596.15
1024.1609	2971.5102	2473.65	1590.85
1024.274	2972.5885	2472.05	1587.15
1024.3871	2973.6662	2477.6	1589.95
1024.5002	2974.7432	2465.9	1584.1
1024.6132	2975.8196	2454.55	1573.15
1024.7261	2976.8954	2448.25	1565
1024.839	2977.9705	2432.25	1549.8
1024.9519	2979.045	2424.6	1543.4
1025.0647	2980.1188	2397.2	1516.2
1025.1775	2981.192	2384.75	1503.05
1025.2902	2982.2645	2360.1	1476.75
1025.4029	2983.3364	2341.15	1458.55
1025.5156	2984.4077	2302.4	1418.45
1025.6282	2985.4783	2279.6	1392
1025.7407	2986.5483	2240.15	1356.85
1025.8532	2987.6177	2198.55	1317.25
1025.9657	2988.6864	2164.6	1283.4
1026.0782	2989.7545	2122.05	1238.25
1026.1906	2990.8219	2092.2	1210.25
1026.3029	2991.8887	2052.9	1167.25
1026.4152	2992.9548	2030.2	1148.5
1026.5275	2994.0204	1994.2	1112.45
1026.6397	2995.0852	1966.4	1083.35
1026.7519	2996.1495	1939.05	1054.75
1026.864	2997.2131	1908.7	1028.05
1026.9761	2998.276	1887.25	1005.9
1027.0882	2999.3383	1868.45	983.3
1027.2002	3000.4	1851.15	966.5
1027.3122	3001.4611	1828.4	946.25
1027.4241	3002.5215	1819.05	936.65
1027.536	3003.5812	1794.5	915.2
1027.6478	3004.6404	1785.3	900.3
1027.7596	3005.6989	1778.05	891.65
1027.8714	3006.7567	1768.1	883.85
1027.9831	3007.8139	1770.35	869.05
1028.0947	3008.8705	1750.1	868.85
1028.2064	3009.9264	1760.4	862.65
1028.3179	3010.9818	1729.95	849.5
1028.4295	3012.0364	1719.1	837.85
1028.541	3013.0905	1719.15	836.6
1028.6524	3014.1439	1720.75	838.5
1028.7638	3015.1966	1712.6	831.8
1028.8752	3016.2487	1714.1	831.55
1028.9865	3017.3002	1720.7	832.25
1029.0978	3018.3511	1717.55	836.55
1029.209	3019.4013	1708.7	827.35
1029.3202	3020.4509	1704.7	823.05
1029.4314	3021.4998	1710.6	827.35
1029.5425	3022.5481	1714.8	832.7
1029.6535	3023.5958	1705.85	822.75
1029.7645	3024.6428	1707.55	824.15
1029.8755	3025.6892	1699.45	817.45
1029.9864	3026.735	1708.95	828.2
1030.0973	3027.7802	1704.5	821.35
1030.2082	3028.8247	1706.05	823.5
1030.319	3029.8685	1703.3	820.05
1030.4297	3030.9118	1711.55	828.9
1030.5404	3031.9544	1708.05	825.35
1030.6511	3032.9963	1711.8	829.35
1030.7617	3034.0376	1711.85	828.2
1030.8723	3035.0783	1728.75	845.4
1030.9829	3036.1184	1729.7	847.3
1031.0934	3037.1578	1727.2	847.05
1031.2038	3038.1966	1735.85	851.35
1031.3142	3039.2348	1717.95	838.05
1031.4246	3040.2723	1725.3	833.9
1031.5349	3041.3092	1720.5	839.35
1031.6452	3042.3455	1716.2	835.7
1031.7554	3043.3811	1709.6	826.65
1031.8656	3044.4161	1703.55	821.85
1031.9758	3045.4505	1696.2	815.85
1032.0859	3046.4842	1702.5	819.25
1032.1959	3047.5173	1687.65	807.1
1032.3059	3048.5498	1674.05	793
1032.4159	3049.5816	1668.35	785.85
1032.5258	3050.6128	1659.9	775.7
1032.6357	3051.6434	1650.35	767.4
1032.7455	3052.6734	1649.75	767.5
1032.8553	3053.7027	1637.95	755
1032.9651	3054.7314	1630.5	747.85
1033.0748	3055.7594	1626.45	743.85
1033.1845	3056.7868	1616.1	733.75
1033.2941	3057.8136	1618.2	737.15
1033.4037	3058.8398	1608.9	727.2
1033.5132	3059.8653	1600.95	719.1
1033.6227	3060.8902	1591.85	708.25
1033.7321	3061.9145	1582.85	698.9
1033.8415	3062.9381	1573.9	691.5
1033.9509	3063.9612	1588.7	691.35
1034.0602	3064.9835	1561.65	679.8
1034.1694	3066.0053	1559.95	676.15
1034.2787	3067.0264	1545.2	664.4
1034.3878	3068.0469	1539.8	657.6
1034.497	3069.0668	1536.85	652.95
1034.6061	3070.086	1517.15	636.9
1034.7151	3071.1046	1517.3	633
1034.8241	3072.1226	1502.6	620.2
1034.9331	3073.1399	1490.85	609.4
1035.042	3074.1567	1482.9	602.1
1035.1508	3075.1727	1472.9	590.1
1035.2597	3076.1882	1465.1	584.05
1035.3684	3077.203	1451.3	569.75
1035.4772	3078.2173	1443.9	562.1
1035.5859	3079.2308	1432.95	550.05
1035.6945	3080.2438	1424.1	541.2
1035.8031	3081.2561	1413.7	531.9
1035.9117	3082.2678	1404.45	522
1036.0202	3083.2789	1399.05	516.65
1036.1286	3084.2893	1385.55	505.4
1036.2371	3085.2991	1384.1	502.3
1036.3454	3086.3083	1376.8	489.95
1036.4538	3087.3169	1371.05	488.9
1036.562	3088.3248	1363.3	481.05
1036.6703	3089.3321	1360.75	476.3
1036.7785	3090.3388	1357.65	477.4
1036.8866	3091.3449	1348.8	468.45
1036.9948	3092.3503	1343.9	458.95
1037.1028	3093.3551	1330.95	452.6
1037.2108	3094.3593	1336.3	454.4
1037.3188	3095.3629	1328.5	447.8
1037.4267	3096.3658	1327.6	444.35
1037.5346	3097.3681	1319.4	439.15
1037.6425	3098.3698	1321.15	438.4
1037.7503	3099.3708	1320.85	431.35
1037.858	3100.3713	1306.25	426.3
1037.9657	3101.3711	1313	431.7
1038.0734	3102.3702	1437.7	419.6
1038.181	3103.3688	1306.45	422
1038.2886	3104.3667	1293	411.05
1038.3961	3105.364	1297.9	414.95
1038.5036	3106.3607	1287.55	403.75
1038.611	3107.3568	1280.65	400.2
1038.7184	3108.3522	1283.95	402.5
1038.8257	3109.347	1281.6	401.45
1038.933	3110.3412	1285.2	400.1
1039.0403	3111.3348	1271.25	391.95
1039.1475	3112.3277	1272.8	392.8
1039.2547	3113.32	1270.05	389.55
1039.3618	3114.3117	1262.05	379.2
1039.4689	3115.3028	1259.4	377.5
1039.5759	3116.2932	1262.35	377.9
1039.6829	3117.2831	1259	373.45
1039.7898	3118.2723	1255.55	374.65
1039.8967	3119.2608	1256.05	375.15
1040.0035	3120.2488	1249.25	366.35
1040.1103	3121.2361	1247.3	366.25
1040.2171	3122.2229	1248.5	366.15
1040.3238	3123.209	1244.1	361.65
1040.4305	3124.1944	1241.9	362.3
1040.5371	3125.1793	1246.95	364.45
1040.6437	3126.1635	1234.4	355.45
1040.7502	3127.1471	1234.55	353.9
1040.8567	3128.1301	1233	353.35
1040.9631	3129.1125	1228.5	347
1041.0695	3130.0942	1227.4	348.05
1041.1759	3131.0753	1239.3	349.6
1041.2822	3132.0558	1234.15	349.65
1041.3884	3133.0357	1224.45	343.45
1041.4946	3134.015	1223.05	341.85
1041.6008	3134.9936	1218.95	335.55
1041.7069	3135.9716	1236.45	335.1
1041.813	3136.949	1209.45	328.6
1041.919	3137.9258	1230.05	329.5
1042.025	3138.902	1212.7	326.25
1042.1309	3139.8775	1208	328.05
1042.2368	3140.8524	1204.2	322.5
1042.3427	3141.8267	1208.5	325.25
1042.4485	3142.8004	1210.45	327.6
1042.5542	3143.7735	1207.15	322
1042.6599	3144.7459	1208.85	326.1
1042.7656	3145.7178	1195.8	314.7
1042.8712	3146.689	1194.05	313.6
1042.9768	3147.6596	1194.3	310.95
1043.0823	3148.6295	1195.3	315.1
1043.1878	3149.5989	1189.5	307.55
1043.2932	3150.5676	1180.75	302.3
1043.3986	3151.5357	1186.7	309.8
1043.5039	3152.5032	1185.6	304.95
1043.6092	3153.4701	1182.25	302.6
1043.7145	3154.4364	1183.95	300.95
1043.8197	3155.402	1179.4	300.05
1043.9248	3156.367	1179.55	296.45
1044.03	3157.3315	1219.2	294.95
1044.135	3158.2952	1171.95	290.55
1044.24	3159.2584	1171.45	289
1044.345	3160.221	1168.35	285.55
1044.4499	3161.1829	1163.2	284.05
1044.5548	3162.1442	1167.35	287.5
1044.6596	3163.105	1161.55	280.65
1044.7644	3164.065	1165.7	286.4
1044.8692	3165.0245	1161.6	278.15
1044.9739	3165.9834	1154.95	276.45
1045.0785	3166.9416	1158.45	279.2
1045.1831	3167.8993	1153.25	272.1
1045.2877	3168.8563	1151.05	269.05
1045.3922	3169.8127	1147.8	265.3
1045.4966	3170.7684	1145.85	264.85
1045.6011	3171.7236	1146.75	263.4
1045.7054	3172.6782	1145.95	265.2
1045.8098	3173.6321	1146.8	265.55
1045.914	3174.5854	1149.8	267.5
1046.0183	3175.5381	1145.6	265.5
1046.1224	3176.4902	1139.55	259.7
1046.2266	3177.4417	1142.45	262.85
1046.3307	3178.3926	1134	253.4
1046.4347	3179.3428	1130.2	250.75
1046.5387	3180.2924	1134.75	255.65
1046.6427	3181.2415	1129.6	248.6
1046.7466	3182.1899	1132.25	249.9
1046.8504	3183.1377	1128.8	249.6
1046.9542	3184.0848	1132.1	247.9
1047.058	3185.0314	1123.5	242.65
1047.1617	3185.9773	1128.65	248.4
1047.2654	3186.9227	1127	246.7
1047.369	3187.8674	1127.2	245.75
1047.4726	3188.8115	1127.35	244.7
1047.5761	3189.755	1122.15	242.75
1047.6796	3190.6979	1119.3	240.65
1047.783	3191.6402	1115.95	236.45
1047.8864	3192.5818	1119.85	241.05
1047.9898	3193.5229	1121.25	234.5
1048.0931	3194.4633	1115.4	234.2
1048.1963	3195.4031	1113.6	232.05
1048.2995	3196.3423	1113.6	233
1048.4027	3197.2809	1111.3	230.2
1048.5058	3198.2189	1109.65	229.4
1048.6089	3199.1563	1115.45	231.3
1048.7119	3200.0931	1108.9	229.8
1048.8148	3201.0292	1108.2	229.45
1048.9178	3201.9648	1099.8	219.35
1049.0206	3202.8997	1107.95	224.45
1049.1235	3203.834	1103.45	222.3
1049.2262	3204.7677	1104.05	223.45
1049.329	3205.7008	1097.7	216.7
1049.4317	3206.6333	1102.35	224.7
1049.5343	3207.5652	1102.85	220.2
1049.6369	3208.4964	1102.1	221.8
1049.7394	3209.4271	1099.1	222.25
1049.8419	3210.3571	1092.9	213.7
1049.9444	3211.2865	1095.75	216.45
1050.0468	3212.2154	1092	211.55
1050.1491	3213.1436	1094.15	211.3
1050.2514	3214.0712	1095.95	211.35
1050.3537	3214.9982	1092.75	213.25
1050.4559	3215.9246	1084.6	203
1050.5581	3216.8503	1086.8	205.85
1050.6602	3217.7755	1085.3	204.4
1050.7623	3218.7001	1090.5	210.7
1050.8643	3219.624	1086.45	206.25
1050.9663	3220.5473	1085.9	203.7
1051.0682	3221.4701	1084.2	202.8
1051.1701	3222.3922	1082.6	199
1051.2719	3223.3137	1077.25	197.8
1051.3737	3224.2346	1082.15	200.85
1051.4754	3225.1549	1079.65	198.3
1051.5771	3226.0746	1077.55	198.3
1051.6788	3226.9937	1074.15	194.35
1051.7804	3227.9121	1072.7	194.8
1051.8819	3228.83	1073.9	195.05
1051.9834	3229.7473	1070.4	190.5
1052.0849	3230.6639	1074	194.5
1052.1863	3231.5799	1071.6	188.6
1052.2876	3232.4954	1068.55	187.1
1052.3889	3233.4102	1071.15	193.65
1052.4902	3234.3244	1072.4	191.8
1052.5914	3235.238	1069.05	190.2
1052.6926	3236.151	1090.05	181.95
1052.7937	3237.0634	1067.9	187.9
1052.8948	3237.9752	1061.4	182.2
1052.9958	3238.8864	1059.65	179.35
1053.0968	3239.797	1061.15	183.4
1053.1977	3240.7069	1062.55	180.6
1053.2986	3241.6163	1060.1	178.4
1053.3994	3242.5251	1057.85	179.4
1053.5002	3243.4332	1053.5	172.1
1053.6009	3244.3408	1059.6	180.45
1053.7016	3245.2477	1054.75	175.3
1053.8022	3246.154	1057.05	174.7
1053.9028	3247.0598	1052.45	171
1054.0034	3247.9649	1049.3	170.65
1054.1039	3248.8694	1049.7	169.4
1054.2043	3249.7733	1048.75	168.05
1054.3047	3250.6766	1049.1	169.85
1054.4051	3251.5793	1049.2	167.7
1054.5054	3252.4814	1042.6	161.75
1054.6056	3253.3829	1041	161.65
1054.7058	3254.2838	1048.15	167.4
1054.806	3255.1841	1041.8	162.05
1054.9061	3256.0838	1039.9	160.05
1055.0061	3256.9829	1038.75	160.5
1055.1062	3257.8814	1034	151.65
1055.2061	3258.7792	1036.45	154.55
1055.306	3259.6765	1032.4	152.1
1055.4059	3260.5731	1029.65	150.25
1055.5057	3261.4692	1029.7	148.55
1055.6055	3262.3647	1027.8	147.35
1055.7052	3263.2595	1027.05	145.45
1055.8049	3264.1538	1025	147.4
1055.9045	3265.0474	1024.9	145.15
1056.0041	3265.9404	1020.35	139.75
1056.1036	3266.8329	1015.15	136.95
1056.2031	3267.7247	1027.8	139.5
1056.3025	3268.616	1011.65	136
1056.4019	3269.5066	1008.65	128.45
1056.5013	3270.3966	1007.4	128.85
1056.6005	3271.286	1001.35	120.7
