Software Version:	3.9.2.0
Unit SN:	10000200
Spectrometer SN:	6960
Date:	3/26/2024 1:29:10 PM
Data Line Index:	25
Spectral Points:	2048
Integration time (ms):	125
Averages:	20
Delay (ms):	30000
Sequence Number:	1
Processing:	dark subtract
Laser Power (mW):	305
Laser Current (mA):	819
Laser Diode Temp (C):	25
Laser Case Temp (C):	26.8
System Temp (C):	26.8
Spectrometer Temp (C):	24.5
CCD Temp (C):	0.004
Secondary Temp (C):	20.008
Heatsink Temp (C):	22.407
CCDPCB Temp (C):	36.574
SecondaryPCB Temp (C):	33.561

Wavelength	RamanShift	Raw Counts	Dark Subtracted
787.061	30.1047	534.65	123.9
787.2016	32.3739	538	128.05
787.3422	34.6426	548.55	137.1
787.4828	36.9109	556.1	142.3
787.6235	39.1787	574.35	155.8
787.7642	41.4461	586.25	164.3
787.9049	43.7131	601.4	176.25
788.0456	45.9796	614.6	184.35
788.1863	48.2456	631.85	199.7
788.3271	50.5112	645.85	210.85
788.4679	52.7764	663.45	224.95
788.6087	55.0411	679.45	236.7
788.7496	57.3054	696.55	247.75
788.8904	59.5692	718.5	270.05
789.0313	61.8326	737.5	284.25
789.1722	64.0955	766.5	307.35
789.3132	66.3579	796.05	333.3
789.4541	68.6199	822.55	359.45
789.5951	70.8815	885.85	419.05
789.7361	73.1426	1013.55	544.6
789.8771	75.4032	1327.75	853.05
790.0181	77.6634	2118	1636.25
790.1592	79.9231	4051.75	3560.75
790.3003	82.1824	8366.2	7863.55
790.4414	84.4412	16335.05	15812.85
790.5825	86.6995	28794.75	28247.3
790.7237	88.9574	40058.35	39483.4
790.8648	91.2148	47649.6	47055.95
791.006	93.4717	50071.75	49470.3
791.1472	95.7282	51077.95	50468
791.2885	97.9842	51539.05	50922.95
791.4297	100.2398	51281.5	50661.9
791.571	102.4949	51013.65	50390.85
791.7123	104.7495	50809.25	50181.95
791.8536	107.0036	50267.05	49636.75
791.9949	109.2573	50529.1	49906.7
792.1363	111.5105	49907.45	49281.35
792.2777	113.7632	49857.8	49225.5
792.4191	116.0154	49919.25	49280.05
792.5605	118.2672	50149.35	49517.85
792.7019	120.5185	50030.05	49391.5
792.8434	122.7693	49986.4	49350.5
792.9849	125.0197	49336.85	48696.25
793.1264	127.2696	50306.85	49662
793.2679	129.519	50050	49405.05
793.4094	131.7679	50431.05	49780.75
793.551	134.0163	49265.05	48609.85
793.6926	136.2642	49576.25	48919.3
793.8342	138.5117	50132.1	49472
793.9758	140.7587	49795.95	49135.65
794.1175	143.0052	49648.05	48985.45
794.2591	145.2512	48972.2	48308.75
794.4008	147.4967	49611.25	48943.4
794.5425	149.7417	49322	48652.4
794.6842	151.9863	49197.75	48529.1
794.826	154.2304	48817.05	48143.75
794.9677	156.4739	48981.5	48301.4
795.1095	158.717	49371	48693.4
795.2513	160.9596	48990.6	48303.05
795.3931	163.2017	48395.8	47706.15
795.535	165.4433	48822.05	48132.95
795.6768	167.6844	48402.65	47715.65
795.8187	169.925	48597.5	47905.3
795.9606	172.1651	48157.8	47464.9
796.1025	174.4047	48212.45	47515.6
796.2445	176.6439	48112.6	47414.5
796.3864	178.8825	47931.45	47228.6
796.5284	181.1206	48283.35	47572.35
796.6704	183.3582	48155.7	47445.25
796.8124	185.5954	47871.05	47158.5
796.9544	187.832	47933.15	47214.6
797.0965	190.0681	47575.3	46855.9
797.2386	192.3037	48192.95	47473.2
797.3806	194.5388	48828.95	48101.8
797.5228	196.7734	47340.15	46612.9
797.6649	199.0075	48670.8	47938.35
797.807	201.2411	48237.35	47501.35
797.9492	203.4742	48990.3	48257.4
798.0914	205.7068	48833.9	48096.6
798.2336	207.9389	48830.3	48094.2
798.3758	210.1704	48777.85	48037.85
798.518	212.4015	49427.35	48683.4
798.6603	214.632	48723.85	47980.5
798.8025	216.862	49476.1	48738.15
798.9448	219.0915	49127.05	48399.15
799.0871	221.3205	49029.3	48300.15
799.2294	223.549	49644.15	48922.1
799.3718	225.777	49573.65	48852.35
799.5141	228.0044	49924.3	49196.9
799.6565	230.2314	49696.6	48978.1
799.7989	232.4578	49685.45	48964.25
799.9413	234.6837	49802	49073.7
800.0837	236.909	50987.95	50258.5
800.2262	239.1339	49342.9	48585.35
800.3687	241.3582	50008.7	49266.2
800.5111	243.582	50002.5	49227.85
800.6536	245.8053	49990.25	49232.45
800.7961	248.0281	50015.5	49264.45
800.9387	250.2503	50210.3	49448.65
801.0812	252.472	49730.2	48965.65
801.2238	254.6932	50155.15	49390.15
801.3664	256.9139	49954.8	49182.65
801.509	259.134	51041.8	50267
801.6516	261.3536	49944.75	49171.85
801.7942	263.5727	50643.05	49869.05
801.9369	265.7912	50414.95	49639.3
802.0795	268.0092	50637.7	49866.35
802.2222	270.2267	50867.25	50096.8
802.3649	272.4436	50399.4	49624.95
802.5076	274.6601	50852.5	50067.5
802.6504	276.8759	51038.1	50262.4
802.7931	279.0913	50684.9	49904.6
802.9359	281.3061	50829.15	50048.55
803.0787	283.5204	50790.5	50006.1
803.2215	285.7341	50771.7	49984.2
803.3643	287.9473	51263.8	50465.75
803.5071	290.16	50918.6	50121.85
803.6499	292.3721	51131.95	50341.85
803.7928	294.5837	50728	49936.2
803.9357	296.7947	50438.35	49649.2
804.0786	299.0052	51313.35	50524
804.2215	301.2152	50952.15	50157.85
804.3644	303.4246	51202.5	50415.35
804.5074	305.6334	51049.1	50260.15
804.6503	307.8418	50308.3	49518.35
804.7933	310.0495	50168.95	49375.7
804.9363	312.2568	49995.3	49199.8
805.0793	314.4635	49791.05	48994.3
805.2223	316.6696	49996.4	49198.15
805.3653	318.8752	50169.55	49363.15
805.5084	321.0802	49039.9	48239.5
805.6514	323.2847	49558.05	48755.6
805.7945	325.4887	49439.55	48641.25
805.9376	327.692	49192.9	48391.3
806.0807	329.8949	49456.5	48655
806.2238	332.0972	49160.45	48353.05
806.367	334.2989	49249.55	48439.55
806.5101	336.5001	49488.8	48677.85
806.6533	338.7007	48646.1	47838.45
806.7965	340.9008	49069.3	48259.55
806.9397	343.1003	49013.45	48200.65
807.0829	345.2992	49211.4	48397.1
807.2261	347.4976	48747.4	47934.5
807.3693	349.6955	48885.85	48066.95
807.5126	351.8927	48564.75	47743.8
807.6559	354.0895	48862.3	48030.35
807.7991	356.2856	48794.25	47970.9
807.9424	358.4812	49063.25	48242.85
808.0857	360.6763	48476.9	47654.15
808.2291	362.8707	48964.6	48144.4
808.3724	365.0646	48581.3	47754.3
808.5158	367.258	48601	47774.5
808.6591	369.4508	48243.05	47412.9
808.8025	371.643	48882	48053.1
808.9459	373.8346	48589	47754.45
809.0893	376.0257	48631.05	47795.65
809.2327	378.2162	48463.9	47626.45
809.3762	380.4062	48026.75	47188.2
809.5196	382.5956	48335.5	47498.45
809.6631	384.7844	48266.9	47432.05
809.8066	386.9726	48398.6	47558.65
809.9501	389.1603	48333.8	47496.35
810.0936	391.3474	47850.15	46980.3
810.2371	393.5339	48262.1	47423.5
810.3806	395.7199	47577.75	46741.6
810.5241	397.9052	47644.65	46815.95
810.6677	400.09	47804.2	46969.55
810.8113	402.2743	48171.4	47341.2
810.9548	404.4579	47801.3	46972.7
811.0984	406.641	47867.55	47037.75
811.2421	408.8235	48165.35	47335.2
811.3857	411.0054	48202.3	47369.8
811.5293	413.1868	48322.15	47486.55
811.673	415.3675	48178.9	47340.55
811.8166	417.5477	48221.15	47382.5
811.9603	419.7273	48149.45	47311.3
812.104	421.9064	48003.75	47155.6
812.2477	424.0848	48019.7	47175.75
812.3914	426.2627	48277.7	47430.6
812.5351	428.4399	47633.7	46785.6
812.6788	430.6166	47104.45	46254.3
812.8226	432.7928	47405.65	46552.5
812.9663	434.9683	46842.35	45993
813.1101	437.1432	46790.2	45937.35
813.2539	439.3176	46981.35	46133.95
813.3977	441.4914	46376.85	45530.8
813.5415	443.6645	46449.9	45598.3
813.6853	445.8371	46433.6	45579.35
813.8291	448.0091	46133.2	45283.8
813.973	450.1806	45962.15	45113.65
814.1168	452.3514	45916.05	45065.7
814.2607	454.5216	45728.85	44866.2
814.4046	456.6913	45904.15	45053.05
814.5485	458.8603	45975.25	45121.45
814.6924	461.0288	45617.95	44766.3
814.8363	463.1967	45937.4	45090.15
814.9802	465.3639	45909.65	45055.45
815.1241	467.5306	45304.1	44450.3
815.2681	469.6967	45606.8	44754.8
815.412	471.8622	45708.2	44856.4
815.556	474.0271	45497.6	44643.75
815.7	476.1914	45615.5	44756.5
815.844	478.3551	45626.1	44769
815.988	480.5182	45980.85	45128.05
816.132	482.6807	45528.95	44676.9
816.276	484.8426	45685.05	44835.3
816.4201	487.0039	46219.25	45369.6
816.5641	489.1647	46333.6	45476.5
816.7082	491.3248	45947.65	45088.05
816.8522	493.4843	46497.15	45641.2
816.9963	495.6432	46428.9	45571.4
817.1404	497.8015	45828	44963.65
817.2845	499.9592	46023.95	45157.35
817.4286	502.1163	45943.75	45074.6
817.5727	504.2728	45743.65	44882.5
817.7168	506.4287	45651.55	44797.55
817.861	508.5839	45206.7	44349.7
818.0051	510.7386	45311	44451.65
818.1493	512.8927	45347.35	44479.65
818.2935	515.0461	45202.85	44337.7
818.4377	517.199	45498	44631.65
818.5818	519.3512	45349.65	44479.9
818.726	521.5029	45299.75	44429.2
818.8703	523.6539	45551.9	44688.9
819.0145	525.8043	45210.3	44339.6
819.1587	527.9541	45439.1	44565.5
819.303	530.1033	45222.55	44355.45
819.4472	532.2519	45028.25	44158.4
819.5915	534.3999	45207	44336.8
819.7357	536.5472	45392.2	44522.55
819.88	538.694	45001.4	44134.95
820.0243	540.8401	45397.1	44524.45
820.1686	542.9856	45442.8	44564.9
820.3129	545.1305	45547.55	44666.35
820.4572	547.2748	45300.3	44419.2
820.6016	549.4185	45240.35	44353.45
820.7459	551.5615	45335.35	44454.6
820.8902	553.704	45255.7	44374.25
821.0346	555.8458	44982.85	44105.8
821.1789	557.987	45183.05	44303.25
821.3233	560.1276	45398.35	44518.4
821.4677	562.2675	45417.25	44535.9
821.6121	564.4069	45633.7	44756.55
821.7565	566.5456	46014.9	45136.65
821.9009	568.6837	45611.15	44730.3
822.0453	570.8212	45624.2	44744.7
822.1897	572.958	44844.15	43963
822.3342	575.0942	44944.25	44069.9
822.4786	577.2299	44391.35	43518.6
822.6231	579.3648	44273.3	43407.05
822.7675	581.4992	44044.8	43184.5
822.912	583.6329	44055.25	43191.5
823.0565	585.766	44100	43237.25
823.201	587.8985	44191.95	43322.7
823.3454	590.0304	43784.45	42900.65
823.4899	592.1616	44022.75	43141.4
823.6345	594.2922	43788.35	42903.75
823.779	596.4222	43512.8	42630.75
823.9235	598.5515	43489.3	42602.7
824.068	600.6802	43423.65	42541.4
824.2126	602.8083	43026.7	42140.35
824.3571	604.9358	43017.25	42131.9
824.5017	607.0626	43143.45	42256.7
824.6462	609.1888	42901.1	42010.95
824.7908	611.3144	43079.2	42190.35
824.9354	613.4393	42962.95	42073.35
825.08	615.5636	42964.95	42074.3
825.2246	617.6873	43041.5	42150.4
825.3692	619.8103	42924.5	42033.5
825.5138	621.9327	42890.6	42000.6
825.6584	624.0544	42854.9	41971.2
825.803	626.1756	42623.8	41736.5
825.9477	628.2961	42563.85	41675
826.0923	630.4159	42341.9	41450.05
826.237	632.5351	42345.25	41453.8
826.3816	634.6537	42532.95	41641.4
826.5263	636.7716	42223.7	41328.8
826.6709	638.8889	42300.1	41403.8
826.8156	641.0056	42320.55	41422.9
826.9603	643.1216	42317.8	41423.1
827.105	645.237	42391.15	41495.3
827.2497	647.3518	42054.1	41167.25
827.3944	649.4659	42105	41218.6
827.5391	651.5793	42058.3	41169.85
827.6838	653.6922	41979.65	41089.2
827.8285	655.8043	41780.25	40888.35
827.9733	657.9159	42054.55	41163.75
828.118	660.0268	41538.55	40646.3
828.2627	662.137	41678.95	40783.4
828.4075	664.2466	41678.95	40779.75
828.5522	666.3556	41683.95	40785
828.697	668.4639	41549.25	40657.55
828.8418	670.5716	41545.95	40656.45
828.9865	672.6786	41532.15	40639.6
829.1313	674.785	41239.25	40342.15
829.2761	676.8907	41230.65	40336.3
829.4209	678.9958	41249.75	40357.65
829.5657	681.1002	41242.95	40347.2
829.7105	683.204	41043.85	40141.8
829.8553	685.3072	41014.3	40113.05
830.0001	687.4097	40925.8	40029.75
830.1449	689.5115	40875.7	39975.7
830.2898	691.6127	40959.75	40063.1
830.4346	693.7132	40783.9	39889.9
830.5794	695.8131	40837.45	39925.5
830.7243	697.9123	40898.7	39997
830.8691	700.0109	40894.95	39991.8
831.014	702.1089	40709.3	39811.5
831.1588	704.2061	40716.2	39813.85
831.3037	706.3028	40749.3	39842.7
831.4486	708.3987	40747.25	39843.5
831.5935	710.4941	40609.75	39713.3
831.7383	712.5887	40705.95	39804.65
831.8832	714.6827	40677.9	39769.8
832.0281	716.7761	40732.2	39836
832.173	718.8688	40752.7	39852.65
832.3179	720.9608	40758.35	39854.7
832.4628	723.0522	40811.2	39903.35
832.6077	725.1429	40671.7	39765.45
832.7527	727.233	40854.3	39952.2
832.8976	729.3224	40668.15	39764.05
833.0425	731.4112	40572.95	39666.65
833.1874	733.4993	40393.35	39486.55
833.3324	735.5867	40270.45	39366.4
833.4773	737.6735	40100.5	39196.3
833.6222	739.7596	39867.7	38963.35
833.7672	741.845	39787.2	38883.5
833.9122	743.9298	39653.8	38746.85
834.0571	746.014	39554.15	38650.75
834.2021	748.0974	39520.15	38608.95
834.347	750.1802	39472.2	38561.45
834.492	752.2624	39310.7	38401.4
834.637	754.3439	39227.45	38314.05
834.782	756.4247	39231.2	38313.4
834.9269	758.5048	39178.05	38269.55
835.0719	760.5843	39218.05	38309.1
835.2169	762.6631	39298.25	38385.65
835.3619	764.7413	39487.65	38576.4
835.5069	766.8188	39795.7	38886.85
835.6519	768.8956	39971.35	39063.8
835.7969	770.9718	40124.8	39216.8
835.9419	773.0473	39954.5	39044.4
836.0869	775.1221	39781.15	38869.35
836.232	777.1962	39578.35	38664.35
836.377	779.2697	39427.35	38515.6
836.522	781.3426	39448.3	38516.2
836.667	783.4147	39420.9	38505.85
836.8121	785.4862	39423.8	38511.85
836.9571	787.557	39252.05	38336.5
837.1021	789.6271	39002.55	38088.15
837.2472	791.6966	38603.95	37691.7
837.3922	793.7654	38167.5	37252.45
837.5373	795.8335	37989.75	37081.15
837.6823	797.901	37730	36820.85
837.8274	799.9678	37573.55	36659.95
837.9724	802.0339	37480.2	36565
838.1175	804.0993	37438.7	36513.9
838.2626	806.1641	37271.65	36355.2
838.4076	808.2282	37155.4	36239.75
838.5527	810.2916	37119.7	36203.9
838.6978	812.3544	37038.7	36128.9
838.8428	814.4164	36909	35998.35
838.9879	816.4778	36916.4	36002.45
839.133	818.5385	36837.25	35921.7
839.2781	820.5986	36855.3	35941.6
839.4232	822.658	36968.75	36054.8
839.5682	824.7166	36994.9	36081.1
839.7133	826.7747	37270.4	36358.35
839.8584	828.832	37464.15	36550.35
840.0035	830.8886	37484.95	36570.85
840.1486	832.9446	37540.15	36619.65
840.2937	834.9999	37327	36413.55
840.4388	837.0545	37208.1	36291.3
840.5839	839.1085	37051.75	36136.45
840.729	841.1618	36789.25	35868.9
840.8741	843.2143	36568.2	35652.95
841.0192	845.2662	36384.8	35469.75
841.1643	847.3175	36313.55	35398.9
841.3095	849.368	36116.7	35201.85
841.4546	851.4179	36056.7	35141.1
841.5997	853.467	35854.4	34937.25
841.7448	855.5155	35759.75	34841.25
841.8899	857.5633	35602.85	34686.15
842.0351	859.6105	35514.85	34597.35
842.1802	861.6569	35445.65	34528.7
842.3253	863.7027	35382.8	34463.55
842.4704	865.7478	35302.65	34383.8
842.6156	867.7922	35190.6	34274.15
842.7607	869.8359	35168.2	34247.5
842.9058	871.8789	35127.45	34209.75
843.0509	873.9212	35119.4	34168.35
843.1961	875.9629	35012.75	34094.85
843.3412	878.0039	35072.65	34153.8
843.4863	880.0441	35040.85	34125.1
843.6315	882.0837	35037.55	34120.9
843.7766	884.1226	34978.9	34058.55
843.9218	886.1609	34998.9	34081.1
844.0669	888.1984	35008.15	34089.95
844.212	890.2352	35093.25	34175.6
844.3572	892.2714	35001	34077.2
844.5023	894.3069	34941.75	34023.9
844.6475	896.3416	34712.95	33793.15
844.7926	898.3757	34594.05	33673.6
844.9377	900.4091	34479.2	33557.35
845.0829	902.4418	34414.55	33488.75
845.228	904.4739	34314	33393
845.3732	906.5052	34319.4	33396.15
845.5183	908.5358	34197.6	33277.25
845.6635	910.5658	34076.6	33153
845.8086	912.595	33914.3	32994.3
845.9538	914.6236	33701.5	32780.5
846.0989	916.6515	33629.15	32708.8
846.2441	918.6786	33476.05	32555.7
846.3892	920.7051	33466.35	32543.2
846.5344	922.7309	33460.35	32541.05
846.6795	924.756	33318.7	32397.05
846.8246	926.7804	33362.55	32436.95
846.9698	928.8041	33050.05	32124.5
847.1149	930.8272	33098	32177.75
847.2601	932.8495	32890.15	31965.35
847.4052	934.8711	32881.65	31954.9
847.5504	936.892	32744.05	31823.5
847.6955	938.9123	32607.2	31684
847.8407	940.9318	32614.75	31691
847.9858	942.9506	32503.05	31581.5
848.131	944.9688	32368.9	31447.55
848.2761	946.9862	32296.55	31377.85
848.4213	949.003	32044.5	31122.75
848.5664	951.019	31955.45	31033.95
848.7115	953.0344	31830.35	30906.8
848.8567	955.0491	31731.5	30805.5
849.0018	957.063	31774.6	30850.2
849.147	959.0763	31822.1	30898.4
849.2921	961.0888	31716.05	30791.1
849.4373	963.1007	31724.05	30804.4
849.5824	965.1119	31620.8	30703.95
849.7275	967.1223	31524.5	30609.7
849.8727	969.1321	31501.2	30587.25
850.0178	971.1412	31429.1	30512.6
850.1629	973.1495	31342.05	30421.5
850.3081	975.1572	31268.65	30329.15
850.4532	977.1641	31235.6	30314.6
850.5983	979.1704	31102.4	30179.9
850.7435	981.1759	30998.05	30069.6
850.8886	983.1808	30976.5	30051.8
851.0337	985.1849	30952.9	30015.7
851.1788	987.1884	30878.25	29950.9
851.324	989.1911	30887.05	29962.2
851.4691	991.1932	30848.65	29924
851.6142	993.1945	30711.1	29791.3
851.7593	995.1951	30550.15	29628.05
851.9045	997.1951	30530.25	29601.5
852.0496	999.1943	30390.3	29467.7
852.1947	1001.1928	30291.2	29369.6
852.3398	1003.1906	30140.7	29217.45
852.4849	1005.1877	30171.9	29245.5
852.63	1007.1841	30072.8	29150.9
852.7751	1009.1798	29963.95	29041.65
852.9202	1011.1748	29845.5	28924.6
853.0653	1013.1691	29676.6	28752.3
853.2104	1015.1627	29501.15	28577.1
853.3555	1017.1556	29192.8	28273.55
853.5006	1019.1477	29065.8	28144.95
853.6457	1021.1392	28866.5	27947.8
853.7908	1023.1299	28739.1	27821.55
853.9359	1025.12	28651.5	27738.15
854.081	1027.1093	28574.9	27671.35
854.2261	1029.0979	28566.45	27661.5
854.3712	1031.0859	28445	27535.15
854.5163	1033.0731	28463.95	27549.25
854.6613	1035.0596	28299.5	27382.65
854.8064	1037.0454	28172.95	27252.65
854.9515	1039.0304	28001.15	27077.25
855.0965	1041.0148	27868.2	26948.55
855.2416	1042.9985	27730.45	26805.55
855.3867	1044.9814	27661.65	26740.2
855.5317	1046.9636	27482.6	26560.2
855.6768	1048.9452	27409.05	26488.4
855.8219	1050.926	27389.65	26465.5
855.9669	1052.9061	27315.2	26396.4
856.112	1054.8855	27228.35	26306.5
856.257	1056.8642	27239.25	26317.65
856.4021	1058.8421	27220.45	26293.8
856.5471	1060.8194	27117	26194.5
856.6921	1062.7959	27089.95	26167.45
856.8372	1064.7717	27052.25	26127.1
856.9822	1066.7469	27014.3	26092.5
857.1272	1068.7213	27001.65	26075.75
857.2723	1070.695	27059.05	26133.95
857.4173	1072.6679	26923.85	25999.05
857.5623	1074.6402	26880.05	25959.85
857.7073	1076.6117	26834	25905.05
857.8523	1078.5826	26745.9	25823.35
857.9973	1080.5527	26585.95	25660.9
858.1423	1082.5221	26453.85	25531
858.2873	1084.4908	26376.95	25453.8
858.4323	1086.4587	26321.6	25399.95
858.5773	1088.426	26269.25	25348.2
858.7223	1090.3925	26200.7	25273.85
858.8673	1092.3584	26222.15	25298.55
859.0123	1094.3235	26072.9	25152.45
859.1573	1096.2879	26027.1	25104
859.3022	1098.2515	25989.8	25066.8
859.4472	1100.2145	26072.35	25151.5
859.5922	1102.1767	26052.45	25127.1
859.7371	1104.1382	26178.45	25254.95
859.8821	1106.099	26236.2	25313.55
860.027	1108.0591	26248.9	25328.9
860.172	1110.0185	26270.25	25346.55
860.3169	1111.9771	26319	25396.65
860.4619	1113.9351	26159.6	25237.05
860.6068	1115.8923	26010.15	25089.65
860.7517	1117.8488	25859.4	24937.45
860.8967	1119.8045	25621.2	24700.25
861.0416	1121.7596	25548.45	24627.25
861.1865	1123.7139	25333.5	24415.65
861.3314	1125.6675	25266.4	24346.6
861.4763	1127.6204	25331.95	24412.85
861.6212	1129.5726	25253.85	24330.8
861.7661	1131.524	25135.75	24213.75
861.911	1133.4748	25011.6	24089.5
862.0559	1135.4248	24849.55	23928.85
862.2008	1137.3741	24730.35	23812.75
862.3457	1139.3226	24579	23655.9
862.4905	1141.2705	24559.3	23638.9
862.6354	1143.2176	24384.45	23460.55
862.7803	1145.164	24331.75	23406.4
862.9251	1147.1097	24267.4	23347.55
863.07	1149.0546	24142.4	23221.15
863.2148	1150.9989	24088.3	23163.35
863.3597	1152.9424	24028.15	23107.3
863.5045	1154.8852	23908.15	22983.95
863.6493	1156.8272	23839.45	22917.65
863.7942	1158.7686	23811.85	22881
863.939	1160.7092	23760.35	22835.85
864.0838	1162.6491	23676.35	22755.95
864.2286	1164.5883	23675	22755.2
864.3734	1166.5267	23667.4	22744.2
864.5182	1168.4644	23731.75	22810
864.663	1170.4014	23779.9	22856.1
864.8078	1172.3377	23913.05	22995.3
864.9526	1174.2732	23964.9	23043.85
865.0974	1176.2081	24169.85	23251.1
865.2421	1178.1421	24404.45	23482.75
865.3869	1180.0755	24653.8	23733.45
865.5317	1182.0082	24730.95	23810.85
865.6764	1183.9401	24773.25	23855.6
865.8212	1185.8713	24634.05	23715.75
865.9659	1187.8017	24429.2	23517.1
866.1106	1189.7315	24192.65	23284.35
866.2554	1191.6605	23865.25	22957.5
866.4001	1193.5888	23593.35	22680.25
866.5448	1195.5163	23487.8	22571.65
866.6895	1197.4432	23375.15	22458.1
866.8342	1199.3693	23261.2	22340
866.9789	1201.2947	23121.65	22200.35
867.1236	1203.2193	22987.15	22069.2
867.2683	1205.1432	22971.15	22049.55
867.413	1207.0664	22909.85	21992.35
867.5576	1208.9889	22824.95	21902.35
867.7023	1210.9106	22739.45	21822.95
867.847	1212.8316	22672.05	21755.55
867.9916	1214.7519	22648.4	21718.65
868.1363	1216.6715	22542.95	21622.7
868.2809	1218.5903	22601.1	21683.1
868.4255	1220.5084	22577.5	21657.85
868.5701	1222.4257	22664.25	21747.25
868.7148	1224.3424	22578.2	21662.05
868.8594	1226.2583	22579.8	21657.95
869.004	1228.1735	22616.35	21698.65
869.1486	1230.0879	22601.8	21682.9
869.2932	1232.0016	22651.75	21734.15
869.4377	1233.9146	22654.75	21732.25
869.5823	1235.8269	22607.9	21690.95
869.7269	1237.7384	22612.65	21697
869.8715	1239.6492	22454.25	21535.8
870.016	1241.5592	22446.05	21528.15
870.1606	1243.4686	22359.85	21440.3
870.3051	1245.3772	22407.6	21491.15
870.4496	1247.285	22487.5	21569.95
870.5941	1249.1922	22541.7	21624
870.7387	1251.0986	22592.75	21676
870.8832	1253.0042	22564.85	21640.7
871.0277	1254.9092	22573.75	21654.95
871.1722	1256.8134	22612.1	21692.95
871.3167	1258.7169	22650	21731.35
871.4611	1260.6196	22677.15	21761.55
871.6056	1262.5216	22771.7	21852.45
871.7501	1264.4229	22812.7	21896.5
871.8945	1266.3234	22908.95	21993.7
872.039	1268.2232	22920.7	22001.55
872.1834	1270.1223	22890.9	21970.1
872.3278	1272.0207	22872.6	21956
872.4723	1273.9183	22810.95	21886.05
872.6167	1275.8151	22733.25	21815.4
872.7611	1277.7113	22687.3	21766.65
872.9055	1279.6067	22666.25	21747.95
873.0499	1281.5014	22789.7	21870.9
873.1943	1283.3953	22984.55	22064.2
873.3386	1285.2885	23233.35	22315.1
873.483	1287.181	23527.6	22610.35
873.6274	1289.0727	23867.25	22949.15
873.7717	1290.9637	24004.75	23085.7
873.9161	1292.854	24135.2	23216.4
874.0604	1294.7435	24030.8	23113.85
874.2047	1296.6323	23940.65	23022.4
874.349	1298.5204	23805.15	22885.3
874.4933	1300.4077	23611.3	22692.1
874.6376	1302.2943	23430.55	22515.4
874.7819	1304.1802	23247.8	22332.5
874.9262	1306.0653	22928	22012.85
875.0705	1307.9497	22615.35	21700.45
875.2147	1309.8333	22334.15	21416.6
875.359	1311.7162	22113.05	21196
875.5032	1313.5984	21963.05	21041.6
875.6475	1315.4798	21866.05	20932.75
875.7917	1317.3605	21762.95	20839
875.9359	1319.2405	21722.55	20801.55
876.0801	1321.1197	21561.85	20642.3
876.2243	1322.9982	21308.65	20389
876.3685	1324.876	21172.3	20253.5
876.5127	1326.753	20936.2	20017
876.6569	1328.6293	20772.55	19850.2
876.801	1330.5048	20688.2	19767.1
876.9452	1332.3796	20545.75	19626.9
877.0893	1334.2537	20485.1	19546.35
877.2335	1336.127	20307	19391.1
877.3776	1337.9996	20237.25	19316.7
877.5217	1339.8714	20194.85	19275.55
877.6658	1341.7426	20170.05	19206.35
877.8099	1343.6129	20197.9	19277.35
877.954	1345.4826	20084.3	19163.75
878.0981	1347.3515	20115.35	19194.1
878.2422	1349.2196	20011.65	19090.1
878.3862	1351.087	20042.95	19125.4
878.5303	1352.9537	20020.95	19102.05
878.6743	1354.8197	20062.8	19143.1
878.8184	1356.6849	20113.3	19197.1
878.9624	1358.5493	20141.8	19224.65
879.1064	1360.4131	20224.5	19307.65
879.2504	1362.276	20251.25	19330.7
879.3944	1364.1383	20244.3	19326.1
879.5384	1365.9998	20153.1	19229.75
879.6823	1367.8606	19904	18983.55
879.8263	1369.7206	19708.7	18791
879.9702	1371.5799	19479.2	18559.85
880.1142	1373.4384	19332.75	18414.35
880.2581	1375.2962	19164.35	18245.05
880.402	1377.1533	18947.3	18031.2
880.5459	1379.0096	18665.7	17750.4
880.6898	1380.8652	18452.1	17536.5
880.8337	1382.7201	18272.75	17355.5
880.9776	1384.5742	18052.8	17135.35
881.1215	1386.4275	17936.6	17018.95
881.2653	1388.2802	17773.05	16858.15
881.4092	1390.132	17647.5	16730.8
881.553	1391.9832	17588.2	16669.55
881.6968	1393.8336	17500.6	16583.25
881.8406	1395.6832	17431	16509.8
881.9844	1397.5322	17366.7	16451.5
882.1282	1399.3803	17292.4	16370
882.272	1401.2278	17188.65	16275.15
882.4158	1403.0745	17126.6	16210.25
882.5595	1404.9204	17076.9	16160.1
882.7033	1406.7656	17018.85	16102.85
882.847	1408.6101	16956.9	16039.7
882.9908	1410.4538	16921.6	16004.65
883.1345	1412.2968	16920.65	16005.1
883.2782	1414.139	16868.75	15950.7
883.4219	1415.9805	16870.25	15956.6
883.5656	1417.8213	16890.75	15952.7
883.7092	1419.6613	16872.25	15958
883.8529	1421.5006	16934.9	16019.4
883.9965	1423.3391	16999.8	16084
884.1402	1425.1769	17073.3	16157.9
884.2838	1427.0139	17295.85	16379.75
884.4274	1428.8502	17538.95	16621.35
884.571	1430.6858	17771.7	16855.8
884.7146	1432.5206	17902.85	16987.35
884.8582	1434.3547	18027.75	17111.15
885.0018	1436.188	18011.9	17096.65
885.1453	1438.0206	17954.15	17038.05
885.2889	1439.8524	17813.15	16899.2
885.4324	1441.6835	17709.2	16793.45
885.5759	1443.5139	17615.25	16698.65
885.7194	1445.3435	17566.8	16652.6
885.8629	1447.1724	17543.6	16629.05
886.0064	1449.0005	17495.85	16579.9
886.1499	1450.8279	17419.85	16504.45
886.2933	1452.6545	17409.55	16495.55
886.4368	1454.4804	17407.05	16497.05
886.5802	1456.3056	17353.1	16432.2
886.7237	1458.13	17284.2	16371.5
886.8671	1459.9536	17223.2	16310
887.0105	1461.7766	17067.3	16152.85
887.1539	1463.5987	16837.3	15919.8
887.2972	1465.4202	16636.3	15721.25
887.4406	1467.2409	16431.85	15517.3
887.584	1469.0608	16277.1	15364.15
887.7273	1470.88	16108.05	15195.1
887.8706	1472.6984	16007	15094.9
888.0139	1474.5161	15823.9	14907.4
888.1572	1476.3331	15703	14789.4
888.3005	1478.1493	15614.35	14701.95
888.4438	1479.9648	15580.95	14667.85
888.5871	1481.7795	15490.15	14574.85
888.7303	1483.5935	15488.05	14575.05
888.8736	1485.4067	15433.65	14517.55
889.0168	1487.2192	15349.75	14436.65
889.16	1489.031	15340.9	14422.15
889.3032	1490.842	15315.75	14403.1
889.4464	1492.6522	15278.25	14365.8
889.5896	1494.4618	15213.95	14297.85
889.7327	1496.2705	15165.1	14251.9
889.8759	1498.0785	15111.25	14198.3
890.019	1499.8858	15064.75	14153.8
890.1622	1501.6924	15002	14088.2
890.3053	1503.4981	14947.8	14033
890.4484	1505.3032	14926.25	14013.3
890.5914	1507.1075	14874.3	13961.85
890.7345	1508.911	14839.8	13925.25
890.8776	1510.7138	14778.15	13865.2
891.0206	1512.5159	14709.25	13796.65
891.1637	1514.3172	14674.05	13764.5
891.3067	1516.1178	14596.2	13684.45
891.4497	1517.9176	14571.85	13657.25
891.5927	1519.7166	14484.5	13575.3
891.7357	1521.515	14468.15	13551.55
891.8786	1523.3126	14474.15	13564.85
892.0216	1525.1094	14395.5	13479.55
892.1645	1526.9055	14303.2	13393.45
892.3074	1528.7008	14266.7	13356.15
892.4503	1530.4954	14214.7	13296.4
892.5932	1532.2893	14168.4	13259.2
892.7361	1534.0824	14096.25	13182.5
892.879	1535.8747	14109.25	13200
893.0218	1537.6663	14048.65	13138.45
893.1647	1539.4572	14009.6	13099.35
893.3075	1541.2473	13959.6	13052.65
893.4503	1543.0367	13944.3	13036.8
893.5931	1544.8253	13888.55	12975.05
893.7359	1546.6132	13918.85	13006.05
893.8787	1548.4003	13845.45	12925.1
894.0214	1550.1867	13901.85	12986
894.1642	1551.9723	13867	12952.35
894.3069	1553.7572	13877.75	12968
894.4496	1555.5414	13906.2	12998.55
894.5923	1557.3247	13949.25	13039.7
894.735	1559.1074	13986.45	13084
894.8777	1560.8893	14052.35	13149.05
895.0204	1562.6705	14102.5	13199.8
895.163	1564.4509	14153.7	13250.65
895.3056	1566.2305	14154.2	13253.25
895.4482	1568.0094	14158.95	13256.25
895.5908	1569.7876	14185.9	13283.65
895.7334	1571.565	14143.5	13239
895.876	1573.3417	14140.05	13234.3
896.0186	1575.1176	14075.1	13170.1
896.1611	1576.8928	14046.4	13144.95
896.3036	1578.6672	14004.1	13105.05
896.4461	1580.4409	14033.85	13135.3
896.5886	1582.2138	13981.25	13079.5
896.7311	1583.986	13988.15	13084.7
896.8736	1585.7575	14018.4	13118
897.0161	1587.5282	14012.75	13114.05
897.1585	1589.2981	14093.25	13193.7
897.3009	1591.0673	14087.85	13189.2
897.4433	1592.8358	14133.2	13235.65
897.5857	1594.6035	14161.85	13256.65
897.7281	1596.3704	14170.1	13266.65
897.8705	1598.1366	14156.15	13254.55
898.0128	1599.9021	14161.15	13261.8
898.1551	1601.6668	14141.35	13241
898.2975	1603.4308	14179.55	13277.85
898.4398	1605.194	14237.8	13331.25
898.5821	1606.9564	14322.85	13424.6
898.7243	1608.7182	14445.9	13547.6
898.8666	1610.4791	14545.3	13652.05
899.0088	1612.2394	14667.8	13775.1
899.1511	1613.9988	14827.65	13930.65
899.2933	1615.7576	14974.15	14077.45
899.4355	1617.5156	15115.1	14207.2
899.5776	1619.2728	15147.95	14245.7
899.7198	1621.0293	15049.85	14148.5
899.862	1622.785	14947	14048.6
900.0041	1624.54	14702.8	13805.7
900.1462	1626.2942	14497.75	13601.25
900.2883	1628.0477	14193.25	13294.55
900.4304	1629.8005	13960.3	13059.65
900.5725	1631.5525	13747.65	12849.5
900.7145	1633.3037	13529.85	12633.85
900.8566	1635.0542	13407.45	12511.15
900.9986	1636.804	13246.3	12347.6
901.1406	1638.553	13227.3	12260.9
901.2826	1640.3013	13058.35	12161.1
901.4245	1642.0488	13015.45	12116.9
901.5665	1643.7955	12993.3	12099.85
901.7085	1645.5416	12996.75	12098.85
901.8504	1647.2868	12982.7	12087.5
901.9923	1649.0313	13000.4	12102.75
902.1342	1650.7751	13035.3	12135.4
902.2761	1652.5181	13068.35	12172.85
902.4179	1654.2604	13122.05	12227.9
902.5598	1656.0019	13181.85	12287.4
902.7016	1657.7427	13285.5	12389.75
902.8434	1659.4828	13423.4	12526.9
902.9852	1661.222	13478.45	12581.15
903.127	1662.9606	13438.55	12542.15
903.2687	1664.6984	13346.05	12447.2
903.4105	1666.4354	13157.6	12258.05
903.5522	1668.1717	12884.4	11985.2
903.6939	1669.9072	12563.55	11663.95
903.8356	1671.642	12277.05	11376.4
903.9773	1673.3761	12049.55	11150.5
904.119	1675.1094	11877.3	10980.8
904.2606	1676.8419	11711.35	10815
904.4022	1678.5737	11593.45	10696.55
904.5439	1680.3048	11462.2	10564.75
904.6855	1682.0351	11373.75	10477.75
904.827	1683.7646	11269.5	10368.7
904.9686	1685.4934	11194.75	10297.85
905.1101	1687.2215	11149.8	10253.5
905.2517	1688.9488	11086.9	10193.05
905.3932	1690.6754	11002.55	10104.35
905.5347	1692.4012	10985.95	10088.9
905.6761	1694.1263	10938.65	10041.7
905.8176	1695.8506	10907.35	10010.75
905.9591	1697.5742	10869.2	9974.4
906.1005	1699.297	10791.85	9896.95
906.2419	1701.0191	10741.2	9849.95
906.3833	1702.7404	10707	9812.05
906.5246	1704.461	10621.35	9724.75
906.666	1706.1808	10592.6	9697.6
906.8073	1707.8999	10556.7	9661.05
906.9487	1709.6182	10503.9	9611.6
907.09	1711.3358	10448.1	9555.45
907.2313	1713.0527	10436.9	9547.7
907.3725	1714.7688	10418.6	9520.8
907.5138	1716.4841	10337.65	9441.2
907.655	1718.1987	10317.95	9418.75
907.7962	1719.9126	10288.75	9395.9
907.9374	1721.6257	10258.15	9364.85
908.0786	1723.338	10258.1	9364.75
908.2198	1725.0496	10170.6	9277.4
908.3609	1726.7605	10171.4	9275.8
908.502	1728.4706	10143.6	9251.15
908.6431	1730.18	10094.35	9199.2
908.7842	1731.8886	10049.45	9157.65
908.9253	1733.5964	10025.15	9127.55
909.0664	1735.3036	10012.8	9116.65
909.2074	1737.0099	9983.05	9091.85
909.3484	1738.7156	9968	9077.8
909.4894	1740.4204	9915.3	9020.45
909.6304	1742.1246	9895.7	9000.9
909.7714	1743.8279	9871.65	8980.3
909.9123	1745.5306	9826.1	8934.4
910.0532	1747.2325	9777.85	8886.5
910.1941	1748.9336	9771.85	8878.45
910.335	1750.634	9746.75	8852.1
910.4759	1752.3336	9707.3	8815.8
910.6168	1754.0325	9681.55	8792
910.7576	1755.7307	9680.25	8788.4
910.8984	1757.4281	9663.8	8771.55
911.0392	1759.1247	9665.9	8764.5
911.18	1760.8206	9647.9	8749.4
911.3208	1762.5158	9646.8	8748.3
911.4615	1764.2102	9572.7	8678.9
911.6022	1765.9039	9568.45	8675.45
911.7429	1767.5968	9538.75	8647.1
911.8836	1769.289	9493.95	8602.15
912.0243	1770.9804	9491.35	8597.15
912.1649	1772.6711	9473.3	8575.95
912.3056	1774.361	9452.45	8556.9
912.4462	1776.0502	9446.3	8552.1
912.5868	1777.7386	9420.8	8527.1
912.7274	1779.4263	9384.25	8492.85
912.8679	1781.1132	9395.45	8505.3
913.0084	1782.7994	9354.3	8462.6
913.149	1784.4849	9310	8418.05
913.2895	1786.1696	9289.35	8390.75
913.4299	1787.8535	9262.4	8372.2
913.5704	1789.5367	9225.1	8334.5
913.7108	1791.2192	9230.2	8339.75
913.8513	1792.9009	9197.85	8280.85
913.9917	1794.5818	9185.35	8291.75
914.132	1796.2621	9155	8265.15
914.2724	1797.9415	9131.3	8237.2
914.4128	1799.6202	9108.1	8214.05
914.5531	1801.2982	9104.65	8212.75
914.6934	1802.9755	9061.1	8165.1
914.8337	1804.6519	9072.4	8179.45
914.9739	1806.3277	9037.45	8145.4
915.1142	1808.0027	8979.45	8092.25
915.2544	1809.6769	8983.75	8092.9
915.3946	1811.3504	8961	8070.25
915.5348	1813.0231	8929.8	8038.7
915.675	1814.6951	8925.2	8034.5
915.8151	1816.3664	8922	8028
915.9553	1818.0369	8924.75	8032.05
916.0954	1819.7067	8894.95	8003.35
916.2355	1821.3757	8872.1	7978.9
916.3755	1823.044	8866	7972.9
916.5156	1824.7115	8830.45	7936.7
916.6556	1826.3783	8792.8	7902.55
916.7956	1828.0443	8777.6	7887.5
916.9356	1829.7096	8762.15	7869.2
917.0756	1831.3741	8735.45	7841.75
917.2155	1833.0379	8728.8	7839.5
917.3555	1834.701	8687.45	7795
917.4954	1836.3633	8679.1	7788.75
917.6353	1838.0248	8687.3	7795.5
917.7751	1839.6856	8643	7750.85
917.915	1841.3457	8634.85	7743.9
918.0548	1843.005	8612.55	7720.75
918.1946	1844.6636	8604.3	7714.3
918.3344	1846.3214	8603.7	7710.4
918.4742	1847.9785	8588.5	7699.5
918.6139	1849.6349	8551.15	7658.55
918.7537	1851.2904	8544.3	7643.65
918.8934	1852.9453	8499.75	7605.95
919.0331	1854.5994	8496.3	7603.05
919.1727	1856.2528	8510.25	7614.8
919.3124	1857.9054	8470.45	7576.55
919.452	1859.5572	8465.35	7574.4
919.5916	1861.2083	8444.55	7551.55
919.7312	1862.8587	8443.9	7552.85
919.8708	1864.5084	8404.65	7509.85
920.0103	1866.1572	8400.4	7507.4
920.1498	1867.8054	8340.4	7447.85
920.2893	1869.4528	8355.25	7461.4
920.4288	1871.0994	8314.25	7424.4
920.5683	1872.7453	8304.45	7412.45
920.7077	1874.3905	8288.1	7389.55
920.8471	1876.0349	8280.35	7387.65
920.9865	1877.6786	8270.25	7377.1
921.1259	1879.3215	8254.85	7364.2
921.2653	1880.9637	8222.45	7330
921.4046	1882.6051	8214.6	7322.25
921.5439	1884.2458	8176.65	7284.55
921.6832	1885.8858	8168.75	7277.05
921.8225	1887.525	8158.75	7265.9
921.9617	1889.1634	8125.15	7234.8
922.101	1890.8011	8093.35	7200.9
922.2402	1892.4381	8080.7	7188.7
922.3794	1894.0743	8086.4	7194.9
922.5185	1895.7098	8055.4	7164.85
922.6577	1897.3446	8057.5	7166.45
922.7968	1898.9786	8015.55	7118.35
922.9359	1900.6118	8016	7126.7
923.075	1902.2443	7977.9	7086
923.214	1903.8761	7963.55	7072.05
923.3531	1905.5071	7914.95	7022.35
923.4921	1907.1374	7896.3	7003.15
923.6311	1908.7669	7883.3	6993.7
923.77	1910.3957	7895.65	7005.15
923.909	1912.0237	7822.8	6932.9
924.0479	1913.651	7829.1	6937.3
924.1868	1915.2776	7820.3	6932
924.3257	1916.9034	7759.8	6869.9
924.4646	1918.5285	7736.75	6847.45
924.6034	1920.1528	7737.6	6847.7
924.7422	1921.7764	7699.3	6810
924.881	1923.3992	7691.5	6801.1
925.0198	1925.0213	7616.55	6724.55
925.1586	1926.6427	7607.65	6718.1
925.2973	1928.2633	7670.4	6713.15
925.436	1929.8832	7595.35	6704.5
925.5747	1931.5023	7524.7	6631.95
925.7134	1933.1207	7520.25	6629.15
925.852	1934.7383	7515.3	6624.75
925.9906	1936.3552	7488.4	6597.2
926.1292	1937.9714	7501.95	6611.4
926.2678	1939.5868	7440.75	6546.55
926.4064	1941.2015	7423.15	6531.2
926.5449	1942.8154	7380.6	6488.7
926.6834	1944.4286	7368.55	6477.7
926.8219	1946.041	7360	6446.25
926.9604	1947.6528	7309.55	6411.9
927.0988	1949.2637	7296.7	6403.95
927.2372	1950.8739	7277.85	6386.45
927.3756	1952.4834	7264.55	6373.85
927.514	1954.0921	7249.85	6359.85
927.6523	1955.7001	7224.1	6328.45
927.7907	1957.3074	7206.7	6318.9
927.929	1958.9139	7186	6297.1
928.0673	1960.5197	7151.3	6260.7
928.2055	1962.1247	7121.45	6231.95
928.3438	1963.729	7099.15	6208.85
928.482	1965.3325	7098.6	6185.35
928.6202	1966.9353	7066.3	6178.3
928.7584	1968.5374	7026.05	6136.05
928.8965	1970.1387	7023.85	6136.65
929.0346	1971.7393	6992.9	6103.8
929.1727	1973.3392	6984.6	6094.7
929.3108	1974.9383	6954.85	6067.5
929.4489	1976.5366	6910.35	6021.95
929.5869	1978.1342	6919.2	6030
929.7249	1979.7311	6906.4	6014.95
929.8629	1981.3273	6884	5994.9
930.0009	1982.9227	6863.45	5974.7
930.1388	1984.5173	6832.85	5944.2
930.2767	1986.1112	6814.4	5926
930.4146	1987.7044	6804.65	5918.25
930.5525	1989.2968	6776.3	5886.05
930.6904	1990.8885	6782.85	5889
930.8282	1992.4795	6770.55	5880.85
930.966	1994.0697	6749.4	5861.15
931.1038	1995.6592	6725.9	5838.5
931.2415	1997.2479	6700.65	5814.15
931.3793	1998.8359	6687.8	5800.2
931.517	2000.4232	6660.7	5775.5
931.6547	2002.0097	6638.6	5755.05
931.7923	2003.5955	6611.1	5724.15
931.93	2005.1805	6615.15	5727.4
932.0676	2006.7648	6594.05	5708.25
932.2052	2008.3484	6587.8	5700.65
932.3427	2009.9312	6583	5696.85
932.4803	2011.5133	6526.45	5642.85
932.6178	2013.0946	6524.8	5639.2
932.7553	2014.6752	6524.55	5639.95
932.8928	2016.2551	6502.05	5614.35
933.0302	2017.8342	6477.4	5590.75
933.1676	2019.4126	6445.2	5559.75
933.305	2020.9902	6424.9	5538.8
933.4424	2022.5672	6421.05	5535.45
933.5798	2024.1433	6426.05	5535.25
933.7171	2025.7188	6393.85	5508.8
933.8544	2027.2935	6394.35	5507.5
933.9917	2028.8674	6353.1	5467.55
934.129	2030.4406	6328.9	5446.55
934.2662	2032.0131	6314.8	5430.5
934.4034	2033.5849	6289.65	5401.25
934.5406	2035.1559	6279.3	5393.75
934.6778	2036.7261	6270.3	5386
934.8149	2038.2957	6240.85	5352.9
934.952	2039.8645	6220.15	5332.75
935.0891	2041.4325	6235.1	5344.2
935.2262	2042.9998	6211.85	5328.35
935.3632	2044.5664	6184.4	5295.7
935.5002	2046.1323	6189.5	5303.85
935.6372	2047.6974	6162.9	5277
935.7742	2049.2617	6151.7	5267.15
935.9111	2050.8254	6164.45	5274.55
936.048	2052.3883	6159.15	5271.35
936.1849	2053.9504	6115.95	5228.1
936.3218	2055.5118	6108.4	5220.25
936.4586	2057.0725	6072.3	5181.1
936.5955	2058.6325	6061.55	5175.55
936.7323	2060.1917	6059.05	5173.3
936.869	2061.7502	6048.6	5158.7
937.0058	2063.3079	6017.35	5133.35
937.1425	2064.8649	6006.4	5118.05
937.2792	2066.4212	5987.55	5101
937.4159	2067.9767	5966.85	5080.85
937.5525	2069.5315	5939.05	5052.4
937.6891	2071.0856	5928.75	5042.8
937.8257	2072.6389	5917	5031.2
937.9623	2074.1915	5884	5002
938.0989	2075.7433	5833.35	4945.3
938.2354	2077.2945	5842.2	4956.3
938.3719	2078.8448	5831.05	4944.5
938.5084	2080.3945	5823.6	4935.65
938.6448	2081.9434	5804.65	4920.2
938.7812	2083.4916	5789.1	4899.05
938.9176	2085.039	5785.7	4895.75
939.054	2086.5857	5766.55	4875.15
939.1903	2088.1317	5772.7	4882
939.3267	2089.677	5757.7	4867.35
939.463	2091.2215	5753.9	4863.7
939.5992	2092.7652	5713.4	4822.05
939.7355	2094.3083	5704.15	4813.25
939.8717	2095.8506	5702.4	4815.7
940.0079	2097.3921	5680.65	4795.85
940.1441	2098.933	5677.8	4790.4
940.2802	2100.4731	5655.9	4767.9
940.4163	2102.0124	5664.1	4768.7
940.5524	2103.5511	5644.85	4756.4
940.6885	2105.089	5641	4752.8
940.8245	2106.6261	5627.9	4740.8
940.9606	2108.1626	5614.25	4726.3
941.0965	2109.6983	5612.3	4698.05
941.2325	2111.2332	5578.2	4688.15
941.3684	2112.7675	5559.15	4670.85
941.5044	2114.301	5548.5	4657.2
941.6403	2115.8337	5544	4654.55
941.7761	2117.3657	5527.95	4639.6
941.912	2118.897	5528.7	4640.6
942.0478	2120.4276	5516.85	4622
942.1835	2121.9575	5493.15	4603.1
942.3193	2123.4866	5483	4591.75
942.455	2125.0149	5482.05	4590.9
942.5907	2126.5426	5451.15	4565.1
942.7264	2128.0695	5436.45	4544.65
942.8621	2129.5956	5425.55	4540.2
942.9977	2131.1211	5415.3	4524.15
943.1333	2132.6458	5400.5	4512.8
943.2689	2134.1698	5385.65	4497.1
943.4044	2135.693	5377.85	4483.75
943.54	2137.2155	5363.95	4470.5
943.6755	2138.7373	5376.65	4488.4
943.8109	2140.2584	5326.05	4439.5
943.9464	2141.7787	5311.95	4422.1
944.0818	2143.2983	5294.85	4409.2
944.2172	2144.8171	5261.75	4378.55
944.3526	2146.3353	5281.55	4391.1
944.4879	2147.8527	5258.2	4373.1
944.6232	2149.3693	5267.55	4377.5
944.7585	2150.8853	5238.9	4347.6
944.8938	2152.4005	5206.35	4316.85
945.029	2153.9149	5215.25	4325.85
945.1642	2155.4287	5285.1	4289.65
945.2994	2156.9417	5201.15	4311.95
945.4346	2158.454	5162.9	4274.45
945.5697	2159.9655	5162	4275.25
945.7048	2161.4764	5157.7	4270.3
945.8399	2162.9865	5141.4	4251.9
945.9749	2164.4958	5126	4237.45
946.1099	2166.0045	5104.4	4214.2
946.2449	2167.5124	5095.7	4208.15
946.3799	2169.0195	5094.95	4206.9
946.5148	2170.526	5084.7	4193.65
946.6498	2172.0317	5062.35	4171.5
946.7846	2173.5367	5071.95	4183.3
946.9195	2175.0409	5045.4	4158.95
947.0543	2176.5445	5041.95	4153.9
947.1891	2178.0473	5034.7	4145.05
947.3239	2179.5494	5008.4	4114.55
947.4587	2181.0507	4979.1	4088.65
947.5934	2182.5513	4964.75	4074.05
947.7281	2184.0512	4948.95	4060.1
947.8628	2185.5504	4936.95	4049.45
947.9974	2187.0488	4935.4	4048.45
948.132	2188.5465	4920.8	4034.15
948.2666	2190.0435	4889.8	4002.45
948.4012	2191.5397	4890	4000.45
948.5357	2193.0353	4891.6	4003.6
948.6702	2194.5301	4852.45	3961.3
948.8047	2196.0241	4844	3951.7
948.9392	2197.5175	4830.6	3938.45
949.0736	2199.0101	4814.7	3921.2
949.208	2200.502	4795.6	3907
949.3424	2201.9931	4773.2	3886.55
949.4767	2203.4835	4776.9	3889.6
949.611	2204.9733	4772.2	3868.6
949.7453	2206.4622	4741	3853.95
949.8796	2207.9505	4731.15	3844.4
950.0138	2209.438	4711.25	3828.4
950.148	2210.9248	4709.7	3821.95
950.2822	2212.4109	4684.3	3795.8
950.4164	2213.8962	4677.95	3784.95
950.5505	2215.3809	4660.1	3765.65
950.6846	2216.8648	4658.5	3765.65
950.8186	2218.3479	4646.75	3749.85
950.9527	2219.8304	4638.6	3743.55
951.0867	2221.3121	4626	3732.65
951.2207	2222.7931	4599.05	3708.2
951.3546	2224.2733	4594.45	3706.35
951.4886	2225.7529	4559.85	3670.2
951.6225	2227.2317	4578.15	3687.1
951.7563	2228.7098	4547.4	3661.7
951.8902	2230.1872	4537	3649.15
952.024	2231.6638	4538	3652.6
952.1578	2233.1397	4534.8	3643.5
952.2916	2234.6149	4499.45	3611.65
952.4253	2236.0894	4488.8	3601.9
952.559	2237.5632	4476.35	3587
952.6927	2239.0362	4451.4	3562.7
952.8263	2240.5085	4442.4	3553.8
952.9599	2241.9801	4431.9	3542.2
953.0935	2243.4509	4440.45	3551.65
953.2271	2244.921	4423.15	3533.9
953.3606	2246.3904	4402.3	3508.85
953.4941	2247.8591	4388.7	3498.7
953.6276	2249.3271	4385.45	3497.45
953.7611	2250.7943	4365.4	3475.35
953.8945	2252.2608	4362.7	3475.3
954.0279	2253.7266	4345.25	3454.2
954.1612	2255.1917	4341	3451.7
954.2946	2256.656	4331.3	3441.15
954.4279	2258.1197	4310.85	3424.1
954.5612	2259.5826	4302.25	3410.45
954.6944	2261.0447	4293.35	3405.65
954.8276	2262.5062	4273.75	3384.05
954.9608	2263.9669	4265.75	3372.7
955.094	2265.4269	4260.7	3373.1
955.2271	2266.8862	4253.45	3365
955.3602	2268.3448	4251.6	3363.5
955.4933	2269.8026	4239.1	3348.95
955.6264	2271.2598	4232.35	3343.15
955.7594	2272.7162	4223.8	3336.7
955.8924	2274.1719	4204.4	3312.65
956.0253	2275.6268	4198.25	3308.3
956.1583	2277.0811	4185.95	3296.55
956.2912	2278.5346	4201.4	3312.25
956.4241	2279.9874	4166.2	3278.75
956.5569	2281.4395	4167.85	3279.35
956.6897	2282.8908	4164.55	3272.45
956.8225	2284.3414	4145.4	3255.35
956.9553	2285.7914	4134.8	3246.85
957.088	2287.2406	4114.75	3223.95
957.2207	2288.689	4118.5	3227.05
957.3534	2290.1368	4123.95	3230.7
957.486	2291.5838	4090.25	3196.7
957.6186	2293.0302	4106.25	3210.15
957.7512	2294.4758	4084.3	3192.4
957.8838	2295.9206	4065.1	3172.85
958.0163	2297.3648	4049.2	3158.9
958.1488	2298.8082	4044.8	3154.9
958.2813	2300.251	4037.35	3148.4
958.4137	2301.693	4025.7	3131.65
958.5461	2303.1343	4018.15	3126.1
958.6785	2304.5748	4001.9	3112.3
958.8108	2306.0147	3999.95	3111
958.9432	2307.4538	3974.45	3083.55
959.0754	2308.8922	3975.2	3089.45
959.2077	2310.3299	3967.2	3079.8
959.3399	2311.7669	3956.45	3069.2
959.4721	2313.2031	3946.75	3058.45
959.6043	2314.6387	3923.8	3033.85
959.7365	2316.0735	3907.25	3017.8
959.8686	2317.5076	3909.85	3019.1
960.0006	2318.941	3908.75	3016.95
960.1327	2320.3737	3889.25	2999.15
960.2647	2321.8056	3887.05	2994.05
960.3967	2323.2369	3863.35	2972.2
960.5287	2324.6674	3877.25	2988.15
960.6606	2326.0972	3860.15	2970.1
960.7925	2327.5263	3854.35	2963.25
960.9244	2328.9547	3825.55	2936.45
961.0562	2330.3823	3826.3	2933.8
961.1881	2331.8092	3818.85	2923.45
961.3198	2333.2355	3813.05	2919.8
961.4516	2334.661	3798.1	2906.1
961.5833	2336.0858	3796.6	2903.8
961.715	2337.5098	3784.55	2894.15
961.8467	2338.9332	3774.8	2886.7
961.9783	2340.3558	3755.6	2860.75
962.1099	2341.7778	3748.15	2861.05
962.2415	2343.199	3744.95	2852.85
962.373	2344.6195	3738.5	2849.45
962.5045	2346.0393	3724.85	2836.2
962.636	2347.4583	3723.3	2833.05
962.7675	2348.8767	3713.9	2821.2
962.8989	2350.2943	3706.6	2813.9
963.0303	2351.7113	3704.25	2810.2
963.1617	2353.1275	3672.8	2779.6
963.293	2354.543	3704.65	2788.7
963.4243	2355.9578	3681.9	2791.15
963.5556	2357.3718	3642.95	2754.2
963.6868	2358.7852	3650	2760
963.818	2360.1978	3634.15	2743.3
963.9492	2361.6098	3621.7	2734.3
964.0803	2363.021	3615.65	2722.05
964.2114	2364.4315	3619.05	2728.65
964.3425	2365.8413	3615.7	2719.3
964.4736	2367.2504	3597.4	2711
964.6046	2368.6587	3578.7	2688.2
964.7356	2370.0664	3568.1	2678.15
964.8666	2371.4733	3557	2668.15
964.9975	2372.8795	3558.05	2667.95
965.1284	2374.285	3553.9	2664.7
965.2593	2375.6899	3517.5	2628.6
965.3901	2377.0939	3503.15	2612.45
965.5209	2378.4973	3498.25	2609.5
965.6517	2379.9	3490.3	2598.95
965.7825	2381.3019	3486.3	2596.85
965.9132	2382.7032	3473.15	2586.45
966.0439	2384.1037	3480.35	2594.55
966.1745	2385.5035	3453.95	2564.45
966.3051	2386.9027	3431.85	2544.55
966.4357	2388.3011	3445.05	2554.95
966.5663	2389.6987	3436.8	2549.4
966.6968	2391.0957	3423.3	2533.85
966.8273	2392.492	3411.85	2526.6
966.9578	2393.8876	3410.55	2519.65
967.0882	2395.2824	3398.95	2510.5
967.2186	2396.6765	3383.25	2495.6
967.349	2398.07	3363.25	2474.8
967.4793	2399.4627	3361.2	2468.45
967.6097	2400.8547	3359.6	2469.2
967.7399	2402.246	3342.1	2446.1
967.8702	2403.6366	3316.3	2425.9
968.0004	2405.0265	3319.65	2431.4
968.1306	2406.4156	3318.45	2427.25
968.2607	2407.8041	3318.7	2424
968.3909	2409.1918	3289.4	2397
968.521	2410.5789	3286.25	2395.6
968.651	2411.9652	3287.6	2394.95
968.781	2413.3508	3259.3	2369.15
968.911	2414.7358	3261.55	2370.65
969.041	2416.12	3254.15	2366.55
969.1709	2417.5035	3241.5	2351.7
969.3008	2418.8863	3238.25	2346.45
969.4307	2420.2684	3224.65	2334.8
969.5606	2421.6497	3225.45	2333.95
969.6904	2423.0304	3201.25	2310.85
969.8201	2424.4104	3178.45	2287.65
969.9499	2425.7896	3178.25	2286.7
970.0796	2427.1682	3178.75	2289.6
970.2093	2428.546	3180.85	2289.85
970.3389	2429.9232	3165.6	2274.45
970.4685	2431.2996	3166.15	2274.25
970.5981	2432.6753	3150.8	2261.3
970.7277	2434.0503	3155.6	2267.8
970.8572	2435.4246	3126.5	2236.8
970.9867	2436.7982	3138.65	2245.45
971.1161	2438.1711	3119.1	2230.2
971.2456	2439.5433	3111.2	2218.55
971.375	2440.9148	3106	2209.5
971.5043	2442.2856	3088.5	2200.3
971.6336	2443.6557	3088.8	2195.65
971.7629	2445.025	3079.25	2189.2
971.8922	2446.3937	3068.9	2178.8
972.0214	2447.7617	3072.9	2184.3
972.1506	2449.1289	3050	2160.75
972.2798	2450.4955	3071.8	2179.4
972.4089	2451.8613	3036.95	2148.55
972.538	2453.2265	3045.05	2156.05
972.6671	2454.5909	3025.75	2136.15
972.7961	2455.9546	3024.6	2135.5
972.9251	2457.3177	3004.75	2114.9
973.0541	2458.68	3015.45	2125.4
973.1831	2460.0416	3028.2	2137.65
973.312	2461.4025	3009.45	2118.55
973.4408	2462.7627	3001	2101.25
973.5697	2464.1222	2982.8	2095.35
973.6985	2465.4811	2976.2	2087
973.8273	2466.8392	2977.35	2088.1
973.956	2468.1966	2970.1	2077.4
974.0847	2469.5533	2963.2	2070.7
974.2134	2470.9093	2958.5	2067.6
974.3421	2472.2645	2954.65	2064.85
974.4707	2473.6191	2951.25	2062.2
974.5993	2474.973	2945	2055.45
974.7278	2476.3262	2940.45	2049.4
974.8563	2477.6787	2923.8	2035.95
974.9848	2479.0305	2905.8	2018.25
975.1132	2480.3816	2894.15	2002.45
975.2417	2481.7319	2905.35	2017.85
975.37	2483.0816	2896.95	2006.4
975.4984	2484.4306	2884.4	1994.25
975.6267	2485.7789	2874.45	1986
975.755	2487.1264	2866.3	1974.5
975.8833	2488.4733	2847.8	1961.65
976.0115	2489.8195	2862.25	1956.15
976.1397	2491.165	2842.9	1950.3
976.2678	2492.5097	2841.75	1951.3
976.3959	2493.8538	2838.35	1949.15
976.524	2495.1972	2823.95	1932.95
976.6521	2496.5398	2808.45	1918.35
976.7801	2497.8818	2818	1925.1
976.9081	2499.2231	2795.9	1906.4
977.036	2500.5637	2793.35	1901.7
977.164	2501.9035	2798.7	1907.2
977.2918	2503.2427	2779.05	1886.85
977.4197	2504.5812	2767.4	1876.7
977.5475	2505.919	2778.1	1887.55
977.6753	2507.256	2753.55	1862.35
977.8031	2508.5924	2748.8	1860.1
977.9308	2509.9281	2749.45	1853
978.0585	2511.2631	2741.95	1853.1
978.1861	2512.5974	2739.05	1851.2
978.3137	2513.9309	2728.45	1839.55
978.4413	2515.2638	2748.2	1833.3
978.5689	2516.596	2731.8	1842.4
978.6964	2517.9275	2713.1	1821.1
978.8239	2519.2583	2704.3	1813.8
978.9513	2520.5884	2691.6	1800.95
979.0788	2521.9178	2690.8	1801.6
979.2062	2523.2465	2687.7	1799.9
979.3335	2524.5745	2672.1	1781.8
979.4608	2525.9018	2664.7	1775.5
979.5881	2527.2284	2658.3	1770.55
979.7154	2528.5543	2653	1765.55
979.8426	2529.8796	2656.2	1766.5
979.9698	2531.2041	2649.3	1759.75
980.0969	2532.5279	2645.95	1757.2
980.224	2533.851	2648.1	1758.6
980.3511	2535.1735	2632.2	1742.6
980.4781	2536.4952	2621.75	1732.4
980.6052	2537.8163	2626.25	1735.05
980.7321	2539.1366	2622.4	1732.85
980.8591	2540.4562	2614.95	1724.2
980.986	2541.7752	2613.95	1723.45
981.1129	2543.0935	2605.05	1716.2
981.2397	2544.411	2618.25	1726
981.3665	2545.7279	2614.55	1724.5
981.4933	2547.0441	2609.8	1719.45
981.62	2548.3596	2606.2	1713.05
981.7467	2549.6744	2587.85	1698.85
981.8734	2550.9885	2588.35	1696.95
982.0001	2552.3019	2571.45	1682.95
982.1267	2553.6146	2572.9	1683.2
982.2532	2554.9266	2547.9	1657.95
982.3798	2556.2379	2564.6	1672.55
982.5063	2557.5485	2559.05	1668.25
982.6327	2558.8585	2568.15	1672.15
982.7592	2560.1677	2565.7	1672.2
982.8856	2561.4762	2549.3	1659.15
983.0119	2562.7841	2543.3	1652.25
983.1383	2564.0913	2537.6	1646.6
983.2646	2565.3977	2532.95	1642.75
983.3908	2566.7035	2526.35	1636.55
983.517	2568.0086	2521.25	1631.8
983.6432	2569.313	2516.45	1624.45
983.7694	2570.6167	2519.5	1624.15
983.8955	2571.9197	2512.35	1624
984.0216	2573.222	2517.85	1624.7
984.1476	2574.5236	2496.45	1604.65
984.2737	2575.8246	2507.5	1615.85
984.3996	2577.1248	2497.65	1606.95
984.5256	2578.4244	2504.4	1615.3
984.6515	2579.7232	2494.7	1605.7
984.7774	2581.0214	2522.65	1601.35
984.9032	2582.3189	2491.25	1600.65
985.029	2583.6157	2481	1586.6
985.1548	2584.9118	2474	1584.15
985.2806	2586.2072	2471.8	1583.35
985.4063	2587.5019	2472.4	1583.25
985.5319	2588.7959	2454.85	1564.65
985.6576	2590.0893	2459.6	1568
985.7832	2591.3819	2461.45	1573.8
985.9087	2592.6739	2444.25	1555.3
986.0343	2593.9652	2453.85	1563.15
986.1597	2595.2557	2442.05	1552.2
986.2852	2596.5456	2428.2	1537.65
986.4106	2597.8348	2435	1546.25
986.536	2599.1234	2419.5	1531.2
986.6614	2600.4112	2422.85	1533.7
986.7867	2601.6983	2415.15	1522.15
986.912	2602.9848	2400.9	1513
987.0372	2604.2705	2413.4	1518
987.1624	2605.5556	2403.6	1513.65
987.2876	2606.84	2387.65	1499.4
987.4128	2608.1237	2378.8	1489.85
987.5379	2609.4067	2378.15	1488.15
987.6629	2610.689	2370.95	1471.3
987.788	2611.9707	2363.9	1471.85
987.913	2613.2516	2364.85	1470.65
988.0379	2614.5319	2358.7	1470.4
988.1629	2615.8115	2350.15	1463.05
988.2878	2617.0903	2351.3	1460.95
988.4126	2618.3685	2332.6	1444.1
988.5375	2619.6461	2329.1	1441.2
988.6622	2620.9229	2317.05	1428.2
988.787	2622.199	2325.65	1438.2
988.9117	2623.4745	2313	1421.8
989.0364	2624.7493	2304.25	1414.1
989.161	2626.0234	2310.75	1424.35
989.2857	2627.2968	2298.75	1409.75
989.4102	2628.5695	2293.95	1405.2
989.5348	2629.8415	2290	1400.85
989.6593	2631.1128	2283.1	1392.35
989.7837	2632.3835	2269.45	1381.2
989.9082	2633.6535	2261.4	1372.45
990.0326	2634.9228	2278.25	1391.4
990.1569	2636.1914	2265.8	1377.2
990.2812	2637.4593	2261.5	1372.3
990.4055	2638.7265	2246.6	1357.2
990.5298	2639.9931	2248.2	1359.45
990.654	2641.259	2248.8	1357.65
990.7782	2642.5242	2249.85	1360.2
990.9023	2643.7887	2231.95	1343.4
991.0264	2645.0525	2231.5	1342.8
991.1505	2646.3156	2233.95	1331.4
991.2745	2647.5781	2216.55	1329.4
991.3985	2648.8398	2208.8	1321.95
991.5225	2650.1009	2235.2	1324.4
991.6464	2651.3613	2204	1314.6
991.7703	2652.6211	2195.3	1306.1
991.8942	2653.8801	2189.1	1301.65
992.018	2655.1385	2196.75	1306.8
992.1418	2656.3961	2197.65	1309.35
992.2655	2657.6531	2183.55	1295.9
992.3892	2658.9094	2189.55	1301.1
992.5129	2660.1651	2187.7	1300.5
992.6366	2661.42	2177.55	1290
992.7602	2662.6743	2179	1289.5
992.8837	2663.9279	2166.25	1277.5
993.0073	2665.1808	2164.15	1276.7
993.1307	2666.433	2163.75	1274.65
993.2542	2667.6846	2163.45	1277.4
993.3776	2668.9354	2172.35	1280.35
993.501	2670.1856	2150.65	1261.75
993.6244	2671.4351	2157.7	1270.8
993.7477	2672.6839	2158.35	1268.7
993.8709	2673.9321	2155.05	1266.15
993.9942	2675.1795	2151.9	1262.55
994.1174	2676.4263	2148.75	1262.4
994.2405	2677.6724	2131.25	1243.15
994.3637	2678.9179	2128.95	1241.95
994.4868	2680.1626	2134.85	1248.95
994.6098	2681.4067	2137.2	1248.7
994.7328	2682.6501	2121.4	1233.65
994.8558	2683.8928	2127.5	1241.25
994.9788	2685.1348	2106.8	1217.3
995.1017	2686.3761	2103.55	1214.9
995.2245	2687.6168	2103.35	1215.55
995.3474	2688.8568	2095.85	1209.65
995.4702	2690.0961	2098.35	1212.65
995.5929	2691.3348	2089.9	1202.65
995.7156	2692.5727	2094.4	1204.65
995.8383	2693.81	2086.45	1197.8
995.961	2695.0466	2071.15	1183.85
996.0836	2696.2826	2080.5	1192.35
996.2062	2697.5178	2082.3	1191.6
996.3287	2698.7524	2063.55	1175.45
996.4512	2699.9863	2072.65	1182.4
996.5737	2701.2195	2067.7	1179.55
996.6961	2702.452	2070.35	1180
996.8185	2703.6839	2056.4	1167.6
996.9408	2704.9151	2054.05	1167.2
997.0631	2706.1456	2060.55	1172.25
997.1854	2707.3755	2052.2	1162.05
997.3077	2708.6046	2057.35	1165.65
997.4299	2709.8331	2056.75	1169.6
997.552	2711.0609	2064.2	1176.85
997.6742	2712.2881	2055.75	1167.1
997.7963	2713.5145	2055.6	1166.8
997.9183	2714.7403	2057.9	1171.8
998.0403	2715.9654	2047.2	1158.4
998.1623	2717.1899	2062.7	1160.75
998.2842	2718.4136	2056.75	1167.15
998.4062	2719.6367	2057.35	1168.3
998.528	2720.8591	2066.55	1172
998.6498	2722.0809	2062.05	1174.15
998.7716	2723.3019	2071.4	1181
998.8934	2724.5223	2068.25	1179.6
999.0151	2725.7421	2064.85	1175.25
999.1368	2726.9611	2060.9	1171.8
999.2584	2728.1795	2064.5	1171.1
999.38	2729.3972	2046.95	1160.1
999.5016	2730.6142	2035.95	1142.65
999.6231	2731.8306	2014.95	1124.95
999.7446	2733.0462	2020.8	1131.15
999.8661	2734.2612	2010.75	1117.5
999.9875	2735.4756	2000.1	1109.7
1000.1089	2736.6892	1978.8	1092.3
1000.2302	2737.9022	1979.25	1094
1000.3515	2739.1145	1954.7	1068.7
1000.4728	2740.3262	1958.4	1063.35
1000.594	2741.5372	1949.95	1061.2
1000.7152	2742.7475	1935.2	1047.45
1000.8363	2743.9571	1933.15	1043.95
1000.9575	2745.1661	1932.25	1038.4
1001.0785	2746.3744	1915.05	1026.1
1001.1996	2747.582	1917.8	1030.5
1001.3206	2748.7889	1910.05	1020.25
1001.4415	2749.9952	1892.6	1006.8
1001.5625	2751.2008	1889.9	1001.95
1001.6833	2752.4057	1886.15	997.05
1001.8042	2753.61	1882.9	995.6
1001.925	2754.8136	1875.1	985.8
1002.0458	2756.0165	1880.5	992.1
1002.1665	2757.2188	1865.45	979
1002.2872	2758.4204	1868.1	982.1
1002.4078	2759.6213	1867.45	978.85
1002.5285	2760.8215	1861.3	967.95
1002.649	2762.0211	1862.5	971.9
1002.7696	2763.22	1852.7	962.5
1002.8901	2764.4182	1849.3	963.05
1003.0106	2765.6158	1853.55	966
1003.131	2766.8127	1850.35	963.05
1003.2514	2768.009	1839	951
1003.3717	2769.2045	1838.95	951.9
1003.492	2770.3994	1840.7	951.85
1003.6123	2771.5936	1822.15	933.4
1003.7325	2772.7872	1823.4	937.4
1003.8527	2773.9801	1809.45	921.4
1003.9729	2775.1723	1828.3	924.05
1004.093	2776.3639	1806.2	921.4
1004.2131	2777.5548	1808.05	917.75
1004.3331	2778.745	1798.9	910.4
1004.4531	2779.9346	1803.3	918.65
1004.5731	2781.1235	1797.05	909.5
1004.693	2782.3117	1800.2	915.7
1004.8129	2783.4992	1798.3	911.65
1004.9328	2784.6861	1798.7	910.25
1005.0526	2785.8723	1790	903.9
1005.1723	2787.0579	1791.65	903.15
1005.2921	2788.2428	1788.4	902.6
1005.4118	2789.427	1788.55	902.6
1005.5314	2790.6106	1790.65	904.45
1005.651	2791.7935	1780.9	893.3
1005.7706	2792.9757	1785	898.6
1005.8902	2794.1573	1793	904.55
1006.0097	2795.3382	1789.9	901.8
1006.1291	2796.5184	1789.15	902.65
1006.2485	2797.698	1789.25	899.55
1006.3679	2798.8769	1793.35	907.45
1006.4873	2800.0551	1791.45	903.75
1006.6066	2801.2327	1797.35	907.25
1006.7258	2802.4096	1809.45	922.9
1006.8451	2803.5859	1808.1	921.9
1006.9642	2804.7615	1809.7	921.35
1007.0834	2805.9364	1821.45	935.5
1007.2025	2807.1106	1829.55	943.85
1007.3216	2808.2842	1840.65	953.15
1007.4406	2809.4572	1846.65	960.5
1007.5596	2810.6294	1861	976.55
1007.6785	2811.801	1867.75	983.55
1007.7975	2812.972	1887.85	1004.1
1007.9163	2814.1423	1900.35	1013.05
1008.0352	2815.3119	1931.9	1046.15
1008.154	2816.4808	1943.2	1059.4
1008.2727	2817.6491	1962.2	1074.3
1008.3914	2818.8167	1985.4	1099.55
1008.5101	2819.9837	2018.05	1126
1008.6288	2821.15	2037.35	1151.15
1008.7474	2822.3157	2073.7	1188.9
1008.8659	2823.4807	2098.4	1212.65
1008.9844	2824.645	2124.9	1238.3
1009.1029	2825.8086	2144.75	1257.4
1009.2214	2826.9716	2169.9	1285.9
1009.3398	2828.134	2203.45	1318.2
1009.4581	2829.2957	2218.25	1330.45
1009.5764	2830.4567	2227.3	1342.35
1009.6947	2831.617	2245.05	1356.75
1009.813	2832.7767	2251.1	1362.55
1009.9312	2833.9358	2249.55	1363.9
1010.0493	2835.0941	2238.05	1348
1010.1675	2836.2519	2241.05	1355.1
1010.2855	2837.4089	2220.7	1334.15
1010.4036	2838.5653	2219.6	1335.05
1010.5216	2839.7211	2200.3	1315.85
1010.6396	2840.8761	2200.25	1311.55
1010.7575	2842.0306	2199.85	1314.6
1010.8754	2843.1843	2199.6	1314.85
1010.9932	2844.3374	2235.35	1348.7
1011.111	2845.4899	2237.5	1350.05
1011.2288	2846.6417	2262.6	1375.95
1011.3465	2847.7928	2288.55	1403.05
1011.4642	2848.9433	2321.5	1435.65
1011.5818	2850.0931	2352.25	1467.35
1011.6995	2851.2422	2374.8	1488.05
1011.817	2852.3907	2404.6	1515.25
1011.9345	2853.5385	2428.5	1542
1012.052	2854.6857	2450.05	1555.95
1012.1695	2855.8323	2460.55	1577
1012.2869	2856.9781	2478.35	1593.9
1012.4042	2858.1233	2512.65	1626.65
1012.5216	2859.2679	2533.4	1648.8
1012.6389	2860.4118	2565.2	1679.4
1012.7561	2861.555	2577.75	1686.85
1012.8733	2862.6976	2599.45	1710.45
1012.9905	2863.8395	2610.2	1724.5
1013.1076	2864.9808	2622.1	1737.5
1013.2247	2866.1214	2635.85	1750.1
1013.3417	2867.2614	2649.2	1763.9
1013.4587	2868.4007	2659.75	1772.95
1013.5757	2869.5393	2658.3	1770.45
1013.6926	2870.6773	2656.75	1768.1
1013.8095	2871.8146	2660.9	1772.25
1013.9263	2872.9513	2657.2	1768.45
1014.0431	2874.0874	2645.6	1760.25
1014.1599	2875.2227	2648.7	1761.75
1014.2766	2876.3574	2631.6	1745.7
1014.3933	2877.4915	2618.55	1733.7
1014.51	2878.6249	2595.85	1710.5
1014.6266	2879.7577	2586.95	1701.4
1014.7431	2880.8898	2585.4	1686.7
1014.8596	2882.0212	2570	1685.1
1014.9761	2883.152	2559.25	1674.15
1015.0925	2884.2821	2547.9	1661.1
1015.2089	2885.4116	2547.25	1664.15
1015.3253	2886.5405	2546.55	1660.05
1015.4416	2887.6686	2557.4	1670.6
1015.5579	2888.7962	2545.7	1662.05
1015.6741	2889.923	2549.25	1663.45
1015.7903	2891.0493	2551.7	1666.75
1015.9065	2892.1748	2562	1676.4
1016.0226	2893.2997	2559.85	1673.6
1016.1387	2894.424	2558.4	1674.1
1016.2547	2895.5476	2570.1	1684.4
1016.3707	2896.6706	2576.45	1694.25
1016.4866	2897.7929	2592.5	1708.4
1016.6025	2898.9145	2594.3	1710.05
1016.7184	2900.0355	2602	1717.1
1016.8342	2901.1559	2609.85	1723
1016.95	2902.2756	2632.85	1749.05
1017.0658	2903.3946	2647.3	1761.1
1017.1815	2904.513	2651.75	1762.45
1017.2971	2905.6308	2661.75	1777.65
1017.4127	2906.7479	2682.85	1795.4
1017.5283	2907.8643	2690.1	1803.75
1017.6439	2908.9801	2690.6	1806.1
1017.7594	2910.0953	2682.9	1796.2
1017.8748	2911.2098	2675.55	1786.55
1017.9902	2912.3236	2677.35	1785
1018.1056	2913.4368	2664.9	1774.95
1018.2209	2914.5494	2645.3	1761.05
1018.3362	2915.6613	2633.3	1742.4
1018.4515	2916.7725	2622.95	1734.8
1018.5667	2917.8831	2605.4	1717.5
1018.6819	2918.9931	2588.3	1702.15
1018.797	2920.1024	2563.65	1678.1
1018.9121	2921.211	2555.85	1671
1019.0271	2922.319	2546.35	1660.25
1019.1421	2923.4264	2532.75	1649
1019.2571	2924.5331	2536.25	1651.95
1019.372	2925.6391	2520.85	1636.1
1019.4869	2926.7445	2521.7	1637.5
1019.6017	2927.8493	2520.9	1635.1
1019.7165	2928.9534	2526.55	1639.05
1019.8313	2930.0569	2527.8	1639.45
1019.946	2931.1597	2529.2	1643.25
1020.0606	2932.2619	2519.1	1636
1020.1753	2933.3634	2530.35	1645.5
1020.2899	2934.4643	2536.2	1642.5
1020.4044	2935.5645	2532.2	1638.75
1020.5189	2936.6641	2522.15	1631.15
1020.6334	2937.763	2506.2	1621.45
1020.7478	2938.8613	2483.35	1598.35
1020.8622	2939.959	2465.25	1576.05
1020.9765	2941.056	2431.9	1547.9
1021.0908	2942.1523	2385.6	1498.55
1021.2051	2943.248	2346.65	1461.25
1021.3193	2944.3431	2310.8	1426.9
1021.4334	2945.4375	2256.45	1370
1021.5476	2946.5313	2212.45	1327.15
1021.6617	2947.6244	2162.55	1277.35
1021.7757	2948.7169	2108.3	1221.45
1021.8897	2949.8087	2069.9	1185.65
1022.0037	2950.8999	2025.2	1139.6
1022.1176	2951.9904	1984.15	1098.65
1022.2315	2953.0803	1952.2	1066
1022.3453	2954.1696	1914.6	1030.2
1022.4591	2955.2582	1886	1004.65
1022.5728	2956.3462	1862.75	978.25
1022.6865	2957.4335	1841.9	956.6
1022.8002	2958.5202	1826.1	937.7
1022.9138	2959.6062	1819.1	933.35
1023.0274	2960.6916	1800.05	917
1023.141	2961.7764	1775.6	890.2
1023.2545	2962.8605	1769.75	882.35
1023.3679	2963.9439	1776.25	891.1
1023.4813	2965.0267	1765.8	880.7
1023.5947	2966.1089	1781.4	874.2
1023.708	2967.1905	1755.95	871.65
1023.8213	2968.2714	1742.05	857.75
1023.9346	2969.3516	1747.1	863.75
1024.0478	2970.4312	1757.85	864.5
1024.1609	2971.5102	1754.95	870.25
1024.274	2972.5885	1747.45	862.45
1024.3871	2973.6662	1759.6	869.45
1024.5002	2974.7432	1743.85	857.9
1024.6132	2975.8196	1750.15	864.8
1024.7261	2976.8954	1741.1	855.6
1024.839	2977.9705	1737.8	854.35
1024.9519	2979.045	1727.25	842.2
1025.0647	2980.1188	1728.95	844.85
1025.1775	2981.192	1709.05	826.75
1025.2902	2982.2645	1701.7	817.1
1025.4029	2983.3364	1695	809.6
1025.5156	2984.4077	1672.4	789.55
1025.6282	2985.4783	1674.45	783.8
1025.7407	2986.5483	1645.6	761.45
1025.8532	2987.6177	1630.3	746.6
1025.9657	2988.6864	1619.5	734.1
1026.0782	2989.7545	1599.6	712.9
1026.1906	2990.8219	1585.55	700.55
1026.3029	2991.8887	1565.25	678.55
1026.4152	2992.9548	1545.75	660.4
1026.5275	2994.0204	1523.5	639.15
1026.6397	2995.0852	1510	626.4
1026.7519	2996.1495	1492.8	607.95
1026.864	2997.2131	1485.1	600.4
1026.9761	2998.276	1470.1	585.4
1027.0882	2999.3383	1465.25	580.6
1027.2002	3000.4	1450.4	565.25
1027.3122	3001.4611	1436.6	553.05
1027.4241	3002.5215	1424.7	540.5
1027.536	3003.5812	1421.7	535.05
1027.6478	3004.6404	1406.85	521.35
1027.7596	3005.6989	1400.15	512.35
1027.8714	3006.7567	1385.05	500.9
1027.9831	3007.8139	1410.6	505.7
1028.0947	3008.8705	1379.3	492.75
1028.2064	3009.9264	1393.1	492.75
1028.3179	3010.9818	1372.15	488.25
1028.4295	3012.0364	1369.85	484.25
1028.541	3013.0905	1364.15	478.7
1028.6524	3014.1439	1350.4	465.45
1028.7638	3015.1966	1353.35	469.9
1028.8752	3016.2487	1348.65	462.9
1028.9865	3017.3002	1350.5	461.9
1029.0978	3018.3511	1347.7	464.3
1029.209	3019.4013	1338.15	452.35
1029.3202	3020.4509	1338.65	453.35
1029.4314	3021.4998	1342.15	458.25
1029.5425	3022.5481	1338.45	455.65
1029.6535	3023.5958	1332.55	448.9
1029.7645	3024.6428	1330.1	445.15
1029.8755	3025.6892	1326.15	442.15
1029.9864	3026.735	1329.85	445.8
1030.0973	3027.7802	1329.1	445.65
1030.2082	3028.8247	1332.95	448.7
1030.319	3029.8685	1325.65	441.45
1030.4297	3030.9118	1325	441.2
1030.5404	3031.9544	1319.5	437.45
1030.6511	3032.9963	1331.25	445.45
1030.7617	3034.0376	1327.25	444.4
1030.8723	3035.0783	1320.9	432
1030.9829	3036.1184	1327.45	441.4
1031.0934	3037.1578	1318.1	436.3
1031.2038	3038.1966	1319.05	433.25
1031.3142	3039.2348	1327.2	443.9
1031.4246	3040.2723	1335.15	441.4
1031.5349	3041.3092	1322.7	439.55
1031.6452	3042.3455	1325.55	441.05
1031.7554	3043.3811	1319	433.5
1031.8656	3044.4161	1313.2	428.35
1031.9758	3045.4505	1312.75	429.2
1032.0859	3046.4842	1317.85	432.95
1032.1959	3047.5173	1312.15	427.2
1032.3059	3048.5498	1308.35	423.05
1032.4159	3049.5816	1307.65	425.5
1032.5258	3050.6128	1303.85	418.85
1032.6357	3051.6434	1302.55	417.35
1032.7455	3052.6734	1305.55	420.4
1032.8553	3053.7027	1298	413.1
1032.9651	3054.7314	1291.95	408.85
1033.0748	3055.7594	1289.35	405.2
1033.1845	3056.7868	1289.6	401.85
1033.2941	3057.8136	1286.9	405.3
1033.4037	3058.8398	1283.1	399.65
1033.5132	3059.8653	1284.1	400.45
1033.6227	3060.8902	1278.55	394.25
1033.7321	3061.9145	1279.5	395.75
1033.8415	3062.9381	1276.1	391.9
1033.9509	3063.9612	1294.15	393.65
1034.0602	3064.9835	1276.25	392.05
1034.1694	3066.0053	1275.55	391.7
1034.2787	3067.0264	1264.4	379.9
1034.3878	3068.0469	1259.3	373.8
1034.497	3069.0668	1262.45	373.1
1034.6061	3070.086	1261.8	378.9
1034.7151	3071.1046	1259.25	373.1
1034.8241	3072.1226	1250.9	365.65
1034.9331	3073.1399	1253.15	369.65
1035.042	3074.1567	1247.1	362.25
1035.1508	3075.1727	1234.15	348.3
1035.2597	3076.1882	1230.95	347.15
1035.3684	3077.203	1239.35	354.95
1035.4772	3078.2173	1227.75	341.55
1035.5859	3079.2308	1224.55	337.15
1035.6945	3080.2438	1219.5	333.3
1035.8031	3081.2561	1221.4	337.7
1035.9117	3082.2678	1208.9	326.5
1036.0202	3083.2789	1209.5	325.65
1036.1286	3084.2893	1205.65	321
1036.2371	3085.2991	1203.6	316.8
1036.3454	3086.3083	1198.95	309.7
1036.4538	3087.3169	1193.1	307.65
1036.562	3088.3248	1194.9	310.05
1036.6703	3089.3321	1191.65	306.35
1036.7785	3090.3388	1183.4	299.05
1036.8866	3091.3449	1180.8	297.35
1036.9948	3092.3503	1183	296.1
1037.1028	3093.3551	1179.95	299.6
1037.2108	3094.3593	1178.25	294.65
1037.3188	3095.3629	1171.7	287.3
1037.4267	3096.3658	1174.8	288.6
1037.5346	3097.3681	1173.9	290.95
1037.6425	3098.3698	1168.8	284.5
1037.7503	3099.3708	1174.9	286
1037.858	3100.3713	1162.9	278.45
1037.9657	3101.3711	1157.4	271.75
1038.0734	3102.3702	1297.5	275.65
1038.181	3103.3688	1156.35	272.9
1038.2886	3104.3667	1155.95	273.4
1038.3961	3105.364	1154.05	270.8
1038.5036	3106.3607	1154.3	269.95
1038.611	3107.3568	1153.55	266.2
1038.7184	3108.3522	1142	260.3
1038.8257	3109.347	1148.65	262.85
1038.933	3110.3412	1149.85	262.55
1039.0403	3111.3348	1141.7	257.35
1039.1475	3112.3277	1142.3	258.6
1039.2547	3113.32	1137.15	256.1
1039.3618	3114.3117	1133.65	249.3
1039.4689	3115.3028	1136.05	251.95
1039.5759	3116.2932	1130.2	244.3
1039.6829	3117.2831	1139.5	246
1039.7898	3118.2723	1130.8	247.65
1039.8967	3119.2608	1126.4	242.7
1040.0035	3120.2488	1125.3	241.4
1040.1103	3121.2361	1120.95	235.8
1040.2171	3122.2229	1123.7	240.25
1040.3238	3123.209	1121.2	235.1
1040.4305	3124.1944	1118.5	235.65
1040.5371	3125.1793	1113.45	225.55
1040.6437	3126.1635	1111.55	228.4
1040.7502	3127.1471	1112.55	228.05
1040.8567	3128.1301	1109.35	226.55
1040.9631	3129.1125	1111.75	230.7
1041.0695	3130.0942	1111.1	226.6
1041.1759	3131.0753	1116.9	224.65
1041.2822	3132.0558	1111.9	225.4
1041.3884	3133.0357	1108.95	222.55
1041.4946	3134.015	1099.5	215
1041.6008	3134.9936	1107.75	223.55
1041.7069	3135.9716	1118.75	215.5
1041.813	3136.949	1098.35	214.05
1041.919	3137.9258	1120.1	216.6
1042.025	3138.902	1102.95	214.8
1042.1309	3139.8775	1095.75	211.5
1042.2368	3140.8524	1095.1	211.75
1042.3427	3141.8267	1098.05	212.3
1042.4485	3142.8004	1094.4	209.4
1042.5542	3143.7735	1095.15	204.05
1042.6599	3144.7459	1094.8	208.3
1042.7656	3145.7178	1089.1	201.85
1042.8712	3146.689	1086.25	204.55
1042.9768	3147.6596	1094.55	208.7
1043.0823	3148.6295	1085.05	202.75
1043.1878	3149.5989	1083.8	197.75
1043.2932	3150.5676	1085.8	202.25
1043.3986	3151.5357	1083.35	202.55
1043.5039	3152.5032	1080.25	197.1
1043.6092	3153.4701	1082.75	198.15
1043.7145	3154.4364	1085.45	199.6
1043.8197	3155.402	1078.8	197.85
1043.9248	3156.367	1078.75	194.6
1044.03	3157.3315	1103.05	193.3
1044.135	3158.2952	1072.7	189.4
1044.24	3159.2584	1073.1	189.95
1044.345	3160.221	1075.65	190.7
1044.4499	3161.1829	1066.5	183.75
1044.5548	3162.1442	1070	184.8
1044.6596	3163.105	1070	185.85
1044.7644	3164.065	1067.9	182.2
1044.8692	3165.0245	1065.6	177.9
1044.9739	3165.9834	1061.9	181.4
1045.0785	3166.9416	1062.3	177.95
1045.1831	3167.8993	1061.3	178
1045.2877	3168.8563	1063.85	179.25
1045.3922	3169.8127	1060.8	178.4
1045.4966	3170.7684	1061.1	177.1
1045.6011	3171.7236	1062.85	178.6
1045.7054	3172.6782	1061.35	179.35
1045.8098	3173.6321	1058.25	174.75
1045.914	3174.5854	1057.75	170.25
1046.0183	3175.5381	1058.55	175.9
1046.1224	3176.4902	1056.25	172.25
1046.2266	3177.4417	1051.75	168.75
1046.3307	3178.3926	1050.35	170.1
1046.4347	3179.3428	1050.05	166.75
1046.5387	3180.2924	1050	165.75
1046.6427	3181.2415	1052.6	166.45
1046.7466	3182.1899	1052.3	166.2
1046.8504	3183.1377	1049.05	166.4
1046.9542	3184.0848	1048.45	160.5
1047.058	3185.0314	1045.55	160.9
1047.1617	3185.9773	1044	159.95
1047.2654	3186.9227	1049.1	163.7
1047.369	3187.8674	1045.4	160.95
1047.4726	3188.8115	1047.05	158.35
1047.5761	3189.755	1042.7	159.45
1047.6796	3190.6979	1043.15	161
1047.783	3191.6402	1037.75	156.5
1047.8864	3192.5818	1040.45	156.4
1047.9898	3193.5229	1044.45	153.45
1048.0931	3194.4633	1040.1	157.45
1048.1963	3195.4031	1037.95	153.75
1048.2995	3196.3423	1038.55	155.8
1048.4027	3197.2809	1031.3	148.5
1048.5058	3198.2189	1036.6	151.35
1048.6089	3199.1563	1046.1	156.95
1048.7119	3200.0931	1031.45	147.6
1048.8148	3201.0292	1035.3	153.15
1048.9178	3201.9648	1032.2	149.2
1049.0206	3202.8997	1035.1	149.4
1049.1235	3203.834	1025.95	143.95
1049.2262	3204.7677	1026.65	144.25
1049.329	3205.7008	1028.75	141.95
1049.4317	3206.6333	1024.95	142.8
1049.5343	3207.5652	1028.95	143.9
1049.6369	3208.4964	1024.75	141.5
1049.7394	3209.4271	1030.15	148.05
1049.8419	3210.3571	1024.95	142.2
1049.9444	3211.2865	1026.8	142.7
1050.0468	3212.2154	1024	139.15
1050.1491	3213.1436	1026.55	140.8
1050.2514	3214.0712	1027.55	138.05
1050.3537	3214.9982	1020	137
1050.4559	3215.9246	1020.45	138
1050.5581	3216.8503	1018.85	136.9
1050.6602	3217.7755	1020.95	137.5
1050.7623	3218.7001	1021.1	139.95
1050.8643	3219.624	1020.65	137.25
1050.9663	3220.5473	1013.95	129.4
1051.0682	3221.4701	1015.8	129.85
1051.1701	3222.3922	1019.1	133.1
1051.2719	3223.3137	1013.9	131.4
1051.3737	3224.2346	1017.4	133.35
1051.4754	3225.1549	1012.7	130.75
1051.5771	3226.0746	1012.4	131.55
1051.6788	3226.9937	1012.45	128.3
1051.7804	3227.9121	1010.7	128.1
1051.8819	3228.83	1008.65	123.9
1051.9834	3229.7473	1012.55	130.4
1052.0849	3230.6639	1007.2	122.9
1052.1863	3231.5799	1008.5	126.3
1052.2876	3232.4954	1008.55	125.4
1052.3889	3233.4102	1009.2	124.9
1052.4902	3234.3244	1006.1	121.75
1052.5914	3235.238	1006.05	123.6
1052.6926	3236.151	1031.5	123.3
1052.7937	3237.0634	1004.95	122
1052.8948	3237.9752	1000.7	116.75
1052.9958	3238.8864	1002.2	119.7
1053.0968	3239.797	1002.1	118.45
1053.1977	3240.7069	1004	119
1053.2986	3241.6163	1001.1	117.9
1053.3994	3242.5251	1002.7	121.9
1053.5002	3243.4332	995.75	112.95
1053.6009	3244.3408	997.55	114.45
1053.7016	3245.2477	996.6	112.7
1053.8022	3246.154	1000.2	117.45
1053.9028	3247.0598	995.25	109.5
1054.0034	3247.9649	993.3	110.05
1054.1039	3248.8694	993.95	110.05
1054.2043	3249.7733	995	111.25
1054.3047	3250.6766	992.95	109.6
1054.4051	3251.5793	994	107.95
1054.5054	3252.4814	990.05	109.55
1054.6056	3253.3829	992.5	109.6
1054.7058	3254.2838	988.65	107.05
1054.806	3255.1841	988.35	106.05
1054.9061	3256.0838	988.15	103.95
1055.0061	3256.9829	987.75	103.25
1055.1062	3257.8814	988.95	104.65
1055.2061	3258.7792	989.45	104.8
1055.306	3259.6765	984.95	100.65
1055.4059	3260.5731	986.1	102.3
1055.5057	3261.4692	982.85	99.8
1055.6055	3262.3647	977.6	95.45
1055.7052	3263.2595	981.6	97.75
1055.8049	3264.1538	977.9	93.8
1055.9045	3265.0474	973.75	90.55
1056.0041	3265.9404	975.45	93.25
1056.1036	3266.8329	974.25	91.7
1056.2031	3267.7247	984.8	90.65
1056.3025	3268.616	967.2	84.75
1056.4019	3269.5066	969	85.3
1056.5013	3270.3966	968.35	84.5
1056.6005	3271.286	960.65	77.85
