Software Version:	3.9.2.0
Unit SN:	10000200
Spectrometer SN:	6960
Date:	3/26/2024 1:27:35 PM
Data Line Index:	25
Spectral Points:	2048
Integration time (ms):	125
Averages:	20
Delay (ms):	30000
Sequence Number:	1
Processing:	dark subtract
Laser Power (mW):	300
Laser Current (mA):	822
Laser Diode Temp (C):	25
Laser Case Temp (C):	26.8
System Temp (C):	26.8
Spectrometer Temp (C):	24.5
CCD Temp (C):	0
Secondary Temp (C):	20.006
Heatsink Temp (C):	22.311
CCDPCB Temp (C):	36.474
SecondaryPCB Temp (C):	33.961

Wavelength	RamanShift	Raw Counts	Dark Subtracted
787.061	30.1047	486.05	77.6
787.2016	32.3739	489.45	82.5
787.3422	34.6426	499.3	89
787.4828	36.9109	502.6	88.1
787.6235	39.1787	511.15	94.5
787.7642	41.4461	522.9	101.45
787.9049	43.7131	532.7	109.3
788.0456	45.9796	542.45	113.65
788.1863	48.2456	554.05	121.25
788.3271	50.5112	566.1	128.8
788.4679	52.7764	569.65	130.9
788.6087	55.0411	581	140
788.7496	57.3054	600.15	154.4
788.8904	59.5692	613.5	164.85
789.0313	61.8326	628.3	176.3
789.1722	64.0955	639	181.25
789.3132	66.3579	659	196.95
789.4541	68.6199	684.5	220.2
789.5951	70.8815	720.7	255.55
789.7361	73.1426	803.2	332.35
789.8771	75.4032	1012.6	537.6
790.0181	77.6634	1523.05	1043.45
790.1592	79.9231	2728.9	2240.25
790.3003	82.1824	5402.95	4903
790.4414	84.4412	10279.95	9762.95
790.5825	86.6995	17131.9	16588.35
790.7237	88.9574	24026.65	23464.1
790.8648	91.2148	29053.75	28472.65
791.006	93.4717	31734.45	31141.35
791.1472	95.7282	32806.25	32208
791.2885	97.9842	33264.35	32661.8
791.4297	100.2398	33295.45	32688.9
791.571	102.4949	33213.3	32603.05
791.7123	104.7495	33028.65	32416.1
791.8536	107.0036	32793.3	32181.05
791.9949	109.2573	32699	32083.85
792.1363	111.5105	32544.65	31929.7
792.2777	113.7632	32367.5	31753.15
792.4191	116.0154	32293.9	31668.5
792.5605	118.2672	32335.9	31714.95
792.7019	120.5185	32280.3	31657.7
792.8434	122.7693	32250.1	31628.8
792.9849	125.0197	32312.3	31686.2
793.1264	127.2696	32255.85	31628.65
793.2679	129.519	32360.5	31725.05
793.4094	131.7679	32312.35	31675.85
793.551	134.0163	32316.65	31673.9
793.6926	136.2642	32254.85	31611.75
793.8342	138.5117	32193.1	31542.75
793.9758	140.7587	32134	31487.65
794.1175	143.0052	32112.85	31461.75
794.2591	145.2512	31990.6	31339.75
794.4008	147.4967	31878.85	31228.6
794.5425	149.7417	31809.15	31157.4
794.6842	151.9863	31780.65	31123
794.826	154.2304	31777.25	31117.5
794.9677	156.4739	31623.95	30958.9
795.1095	158.717	31595.45	30930.05
795.2513	160.9596	31539.1	30867.9
795.3931	163.2017	31477.5	30805.9
795.535	165.4433	31411.9	30737.9
795.6768	167.6844	31272.8	30598.6
795.8187	169.925	31240.95	30560.25
795.9606	172.1651	31020.75	30336.95
796.1025	174.4047	31025.25	30341.65
796.2445	176.6439	30992.15	30302.85
796.3864	178.8825	30924	30235.4
796.5284	181.1206	30924.2	30230.65
796.6704	183.3582	30858.75	30159.25
796.8124	185.5954	30844.75	30144.85
796.9544	187.832	30796.75	30089.8
797.0965	190.0681	30862.9	30156.3
797.2386	192.3037	30882.1	30172.5
797.3806	194.5388	30849.65	30135
797.5228	196.7734	30867.7	30151.75
797.6649	199.0075	30975.15	30256.95
797.807	201.2411	31143.9	30419.75
797.9492	203.4742	31090.35	30370.15
798.0914	205.7068	31246.15	30522.5
798.2336	207.9389	31199.3	30477
798.3758	210.1704	31284.9	30557.1
798.518	212.4015	31246.6	30514.65
798.6603	214.632	31307.25	30574.1
798.8025	216.862	31325.7	30602.9
798.9448	219.0915	31324.55	30612.15
799.0871	221.3205	31402.7	30688.5
799.2294	223.549	31514.15	30805.75
799.3718	225.777	31537.3	30830.4
799.5141	228.0044	31495.05	30784.2
799.6565	230.2314	31592.3	30885.15
799.7989	232.4578	31555.05	30846.3
799.9413	234.6837	31607.25	30895.85
800.0837	236.909	31637.8	30922.05
800.2262	239.1339	31678.95	30938.55
800.3687	241.3582	31699.2	30967.7
800.5111	243.582	31615.7	30859.2
800.6536	245.8053	31643.1	30898.2
800.7961	248.0281	31599.85	30854.65
800.9387	250.2503	31571.8	30822.2
801.0812	252.472	31619	30865.95
801.2238	254.6932	31709.1	30957.65
801.3664	256.9139	31596.7	30840.2
801.509	259.134	31702.05	30940.65
801.6516	261.3536	31673.95	30911.65
801.7942	263.5727	31822.05	31058.35
801.9369	265.7912	31791	31031.35
802.0795	268.0092	31886.1	31123.75
802.2222	270.2267	31880	31120
802.3649	272.4436	31869.8	31107.55
802.5076	274.6601	31866.3	31095.25
802.6504	276.8759	31821.45	31059.8
802.7931	279.0913	31870.05	31102.05
802.9359	281.3061	31813.2	31045.85
803.0787	283.5204	31865.85	31092.65
803.2215	285.7341	31847.75	31073.35
803.3643	287.9473	31903.1	31117.4
803.5071	290.16	31880.95	31101.7
803.6499	292.3721	31852.25	31072.5
803.7928	294.5837	31872.35	31095.65
803.9357	296.7947	31878.7	31098.95
804.0786	299.0052	31934.1	31157
804.2215	301.2152	31869.3	31087.4
804.3644	303.4246	31911.2	31131.5
804.5074	305.6334	31752.9	30974.85
804.6503	307.8418	31674.35	30892.6
804.7933	310.0495	31550.9	30768.8
804.9363	312.2568	31425.75	30645.8
805.0793	314.4635	31235.35	30450.5
805.2223	316.6696	31149.6	30361.6
805.3653	318.8752	31021.4	30225.55
805.5084	321.0802	30944.4	30156.95
805.6514	323.2847	30950.5	30163
805.7945	325.4887	30945.35	30158.5
805.9376	327.692	30806.75	30020.55
806.0807	329.8949	30925.1	30133.8
806.2238	332.0972	30830.1	30035.05
806.367	334.2989	30800.35	30002.55
806.5101	336.5001	30705.85	29913.85
806.6533	338.7007	30658.45	29860.75
806.7965	340.9008	30686.55	29883
806.9397	343.1003	30590.3	29788.9
807.0829	345.2992	30569.7	29764.8
807.2261	347.4976	30481.6	29676.2
807.3693	349.6955	30431.1	29621.45
807.5126	351.8927	30564	29755.8
807.6559	354.0895	30411.55	29592.45
807.7991	356.2856	30415.25	29604.3
807.9424	358.4812	30338	29530.85
808.0857	360.6763	30387.35	29576.45
808.2291	362.8707	30280.1	29466.7
808.3724	365.0646	30361.6	29548.15
808.5158	367.258	30346.8	29532.35
808.6591	369.4508	30232.4	29415.15
808.8025	371.643	30264.15	29445.8
808.9459	373.8346	30160.05	29337.75
809.0893	376.0257	30169.65	29344.05
809.2327	378.2162	30099.25	29276.25
809.3762	380.4062	30137.75	29311.9
809.5196	382.5956	30037.7	29209.45
809.6631	384.7844	29981.25	29154.35
809.8066	386.9726	29859.9	29031.8
809.9501	389.1603	29830.4	29001.3
810.0936	391.3474	29813.1	28953.85
810.2371	393.5339	29745.3	28917.7
810.3806	395.7199	29659.15	28837.75
810.5241	397.9052	29683.6	28862.95
810.6677	400.09	29599.2	28779.6
810.8113	402.2743	29616.45	28798.05
810.9548	404.4579	29599.1	28782.25
811.0984	406.641	29743.65	28922.35
811.2421	408.8235	29725.5	28908
811.3857	411.0054	29792.5	28975.25
811.5293	413.1868	29885.55	29058.85
811.673	415.3675	29824.55	29000.8
811.8166	417.5477	29813.1	28984.3
811.9603	419.7273	29784.05	28955.15
812.104	421.9064	29699.1	28863.85
812.2477	424.0848	29600.15	28768.1
812.3914	426.2627	29458.9	28625
812.5351	428.4399	29384.15	28546.25
812.6788	430.6166	29273.85	28434.5
812.8226	432.7928	29173.7	28332.8
812.9663	434.9683	29035.7	28196.4
813.1101	437.1432	28902.35	28065.3
813.2539	439.3176	28817.6	27982.75
813.3977	441.4914	28711.95	27872.4
813.5415	443.6645	28718.3	27876.2
813.6853	445.8371	28572.6	27728.65
813.8291	448.0091	28415.8	27573.45
813.973	450.1806	28382.8	27546.9
814.1168	452.3514	28238.35	27396.75
814.2607	454.5216	28288.75	27440.35
814.4046	456.6913	28202.3	27357.85
814.5485	458.8603	28152.05	27307.5
814.6924	461.0288	28185	27346.4
814.8363	463.1967	28113.4	27273.7
814.9802	465.3639	28155.85	27311.75
815.1241	467.5306	28082.85	27237.85
815.2681	469.6967	28021.6	27176.9
815.412	471.8622	27945.25	27102.55
815.556	474.0271	28006.4	27160.1
815.7	476.1914	27985	27134.15
815.844	478.3551	27944.55	27096.15
815.988	480.5182	27986.15	27140
816.132	482.6807	27972.5	27128.65
816.276	484.8426	28063.5	27221.2
816.4201	487.0039	28160.55	27316.95
816.5641	489.1647	28218	27369.7
816.7082	491.3248	28315.15	27465.7
816.8522	493.4843	28296.95	27450.8
816.9963	495.6432	28263.45	27415.95
817.1404	497.8015	28132.35	27278.2
817.2845	499.9592	28168	27312.45
817.4286	502.1163	28104.9	27246.8
817.5727	504.2728	27924.95	27072.3
817.7168	506.4287	27951.4	27102.35
817.861	508.5839	27804.4	26956.55
818.0051	510.7386	27691.1	26840.6
818.1493	512.8927	27676.15	26817.2
818.2935	515.0461	27690.15	26833.8
818.4377	517.199	27700.9	26846.7
818.5818	519.3512	27739.7	26881.9
818.726	521.5029	27725.75	26864.25
818.8703	523.6539	27807.55	26946.95
819.0145	525.8043	27789.8	26929.75
819.1587	527.9541	27747.95	26888.25
819.303	530.1033	27646.45	26788.65
819.4472	532.2519	27615.45	26755.75
819.5915	534.3999	27573.4	26713
819.7357	536.5472	27555.8	26695.65
819.88	538.694	27549	26691.9
820.0243	540.8401	27606.9	26746
820.1686	542.9856	27716.85	26848.15
820.3129	545.1305	27677.25	26808.1
820.4572	547.2748	27713.75	26841.7
820.6016	549.4185	27650.75	26777.6
820.7459	551.5615	27530.65	26657.95
820.8902	553.704	27530.45	26656.15
821.0346	555.8458	27472.65	26605.45
821.1789	557.987	27522.05	26653.5
821.3233	560.1276	27511.9	26641
821.4677	562.2675	27611.7	26741.35
821.6121	564.4069	27676.55	26808.8
821.7565	566.5456	27748.2	26878.75
821.9009	568.6837	27793.45	26925.5
822.0453	570.8212	27659.45	26793.8
822.1897	572.958	27410.95	26536.7
822.3342	575.0942	27221.45	26354.7
822.4786	577.2299	27074.7	26210.45
822.6231	579.3648	26992.25	26133.3
822.7675	581.4992	26811.15	25955.55
822.912	583.6329	26750.85	25894
823.0565	585.766	26752.4	25895.25
823.201	587.8985	26731.95	25873.05
823.3454	590.0304	26739.55	25862.85
823.4899	592.1616	26696.9	25822
823.6345	594.2922	26606.95	25733.65
823.779	596.4222	26534.1	25656.65
823.9235	598.5515	26451.6	25572.4
824.068	600.6802	26330.25	25454.35
824.2126	602.8083	26194.65	25315.25
824.3571	604.9358	26194.25	25319.05
824.5017	607.0626	26120.75	25241.15
824.6462	609.1888	26102.05	25222.65
824.7908	611.3144	26129.1	25251.35
824.9354	613.4393	26113.7	25235.75
825.08	615.5636	26120.95	25242.15
825.2246	617.6873	26108.85	25228.1
825.3692	619.8103	26135.05	25253.3
825.5138	621.9327	26027.95	25147
825.6584	624.0544	25959.55	25086.15
825.803	626.1756	25904.4	25025
825.9477	628.2961	25812.25	24930.6
826.0923	630.4159	25766.1	24885.85
826.237	632.5351	25734.65	24855.75
826.3816	634.6537	25688.95	24805.5
826.5263	636.7716	25725.05	24837
826.6709	638.8889	25693.85	24806.05
826.8156	641.0056	25755.15	24868.7
826.9603	643.1216	25700.9	24813.7
827.105	645.237	25737.15	24850.3
827.2497	647.3518	25616.05	24735.95
827.3944	649.4659	25626.35	24746.25
827.5391	651.5793	25545	24665.45
827.6838	653.6922	25494.8	24613.6
827.8285	655.8043	25465.8	24584.35
827.9733	657.9159	25413.65	24529.3
828.118	660.0268	25341.8	24458.65
828.2627	662.137	25287.5	24400.2
828.4075	664.2466	25320.8	24432.15
828.5522	666.3556	25275.3	24390.35
828.697	668.4639	25212.65	24324.65
828.8418	670.5716	25206.65	24325.5
828.9865	672.6786	25155.65	24272.35
829.1313	674.785	25077.7	24187.55
829.2761	676.8907	25019.9	24136.05
829.4209	678.9958	25034.5	24150.8
829.5657	681.1002	24918.85	24028.05
829.7105	683.204	24915.85	24023.55
829.8553	685.3072	24878.15	23986.8
830.0001	687.4097	24837.65	23947.85
830.1449	689.5115	24819.55	23927.55
830.2898	691.6127	24827.8	23940.7
830.4346	693.7132	24750.55	23863.75
830.5794	695.8131	24789.4	23888.7
830.7243	697.9123	24771.35	23876.65
830.8691	700.0109	24713.1	23815.7
831.014	702.1089	24662.7	23771.4
831.1588	704.2061	24662.5	23770.9
831.3037	706.3028	24695.2	23797.3
831.4486	708.3987	24676.35	23781.5
831.5935	710.4941	24644.1	23751.95
831.7383	712.5887	24587.8	23695.6
831.8832	714.6827	24609.85	23711.85
832.0281	716.7761	24618.15	23726.25
832.173	718.8688	24629.3	23735.85
832.3179	720.9608	24607.85	23711.15
832.4628	723.0522	24586.3	23687.35
832.6077	725.1429	24561.9	23664.7
832.7527	727.233	24562.5	23666.65
832.8976	729.3224	24622.7	23725.6
833.0425	731.4112	24510	23614.75
833.1874	733.4993	24441.35	23543.05
833.3324	735.5867	24284.8	23390.75
833.4773	737.6735	24214.95	23319.45
833.6222	739.7596	24184.3	23286.65
833.7672	741.845	24109.9	23211.9
833.9122	743.9298	24028.4	23134.35
834.0571	746.014	23988.75	23093.25
834.2021	748.0974	23962.45	23062.65
834.347	750.1802	23873.9	22974.65
834.492	752.2624	23777.95	22877.5
834.637	754.3439	23702.2	22799.95
834.782	756.4247	23647.55	22737.3
834.9269	758.5048	23627.85	22725.25
835.0719	760.5843	23661.55	22759.55
835.2169	762.6631	23668.2	22765.15
835.3619	764.7413	23739.3	22840.85
835.5069	766.8188	23847.3	22945.75
835.6519	768.8956	23875.8	22976.7
835.7969	770.9718	24007.95	23109.15
835.9419	773.0473	23960.2	23058.25
836.0869	775.1221	23834.35	22932.6
836.232	777.1962	23716.3	22811.95
836.377	779.2697	23640.9	22737.75
836.522	781.3426	23596.9	22676.15
836.667	783.4147	23560.1	22654.6
836.8121	785.4862	23581.5	22679.65
836.9571	787.557	23528.85	22626.85
837.1021	789.6271	23367.45	22464
837.2472	791.6966	23192.25	22288.45
837.3922	793.7654	22946.65	22041.15
837.5373	795.8335	22834.1	21932.35
837.6823	797.901	22661.95	21759.4
837.8274	799.9678	22639.75	21732.5
837.9724	802.0339	22568.35	21666.4
838.1175	804.0993	22530.35	21620.8
838.2626	806.1641	22436.3	21529.65
838.4076	808.2282	22371.95	21470
838.5527	810.2916	22344.35	21440.7
838.6978	812.3544	22272.7	21368.7
838.8428	814.4164	22208.9	21305.65
838.9879	816.4778	22229.6	21323.45
839.133	818.5385	22143.5	21236.35
839.2781	820.5986	22149.9	21244.05
839.4232	822.658	22202.25	21295.25
839.5682	824.7166	22197.5	21289.85
839.7133	826.7747	22342.6	21435.95
839.8584	828.832	22395.5	21486.75
840.0035	830.8886	22396.55	21486.9
840.1486	832.9446	22477.1	21570.05
840.2937	834.9999	22371	21464.4
840.4388	837.0545	22227.85	21317.65
840.5839	839.1085	22120.55	21212.8
840.729	841.1618	22020.8	21110.4
840.8741	843.2143	21915.6	21008.4
841.0192	845.2662	21805.3	20897.35
841.1643	847.3175	21744.25	20839.6
841.3095	849.368	21666.7	20758.05
841.4546	851.4179	21621.75	20715.35
841.5997	853.467	21512.3	20606.5
841.7448	855.5155	21430.35	20523.5
841.8899	857.5633	21373.55	20465.8
842.0351	859.6105	21300.2	20393
842.1802	861.6569	21259.3	20350.35
842.3253	863.7027	21218.2	20308.35
842.4704	865.7478	21192.95	20284.1
842.6156	867.7922	21141.8	20229.4
842.7607	869.8359	21070.15	20160.85
842.9058	871.8789	21028.4	20117.85
843.0509	873.9212	21077.3	20137.25
843.1961	875.9629	20969.85	20059.4
843.3412	878.0039	21025.05	20115.35
843.4863	880.0441	21009.1	20102.4
843.6315	882.0837	20986.35	20074.55
843.7766	884.1226	20938.7	20026.35
843.9218	886.1609	20940.35	20029.75
844.0669	888.1984	20919.3	20008.7
844.212	890.2352	20960.8	20050.1
844.3572	892.2714	20872.6	19957.55
844.5023	894.3069	20859.4	19945.3
844.6475	896.3416	20728.15	19815.7
844.7926	898.3757	20668.55	19758.9
844.9377	900.4091	20619.95	19707.9
845.0829	902.4418	20560.6	19643.5
845.228	904.4739	20463.1	19548.8
845.3732	906.5052	20507.9	19596.55
845.5183	908.5358	20430.65	19517.45
845.6635	910.5658	20411.35	19496.6
845.8086	912.595	20285.1	19373.4
845.9538	914.6236	20187.25	19276.8
846.0989	916.6515	20146.2	19232.85
846.2441	918.6786	20047.85	19133.1
846.3892	920.7051	20033.8	19117.85
846.5344	922.7309	20000.1	19086.75
846.6795	924.756	19896.65	18985.35
846.8246	926.7804	19913	18999.45
846.9698	928.8041	19740.75	18823.25
847.1149	930.8272	19752.9	18839.1
847.2601	932.8495	19665.3	18748.15
847.4052	934.8711	19640.4	18723.15
847.5504	936.892	19603.75	18689.9
847.6955	938.9123	19486.5	18569.7
847.8407	940.9318	19496.95	18582.1
847.9858	942.9506	19370.55	18455
848.131	944.9688	19337	18422.7
848.2761	946.9862	19291.35	18378.4
848.4213	949.003	19145.75	18231.15
848.5664	951.019	19071.35	18159.75
848.7115	953.0344	18986.55	18071.8
848.8567	955.0491	18928.05	18013.1
849.0018	957.063	18945.95	18030.4
849.147	959.0763	18988.8	18065.8
849.2921	961.0888	18920.4	18004.75
849.4373	963.1007	18905.55	17990.6
849.5824	965.1119	18855.1	17942.9
849.7275	967.1223	18812.1	17903.85
849.8727	969.1321	18743.55	17838.3
850.0178	971.1412	18734.25	17822.75
850.1629	973.1495	18638.45	17724.5
850.3081	975.1572	18624.25	17694.55
850.4532	977.1641	18570.9	17656.8
850.5983	979.1704	18487.95	17573.55
850.7435	981.1759	18447.35	17529.9
850.8886	983.1808	18426.6	17511.35
851.0337	985.1849	18373.8	17450.15
851.1788	987.1884	18331	17414.55
851.324	989.1911	18307.9	17392.5
851.4691	991.1932	18262.8	17346.45
851.6142	993.1945	18220.25	17304.85
851.7593	995.1951	18096.25	17182.4
851.9045	997.1951	18101.7	17181.5
852.0496	999.1943	18045	17129.65
852.1947	1001.1928	17940.3	17023.25
852.3398	1003.1906	17865.15	16950.35
852.4849	1005.1877	17877.4	16958.85
852.63	1007.1841	17811.5	16897.25
852.7751	1009.1798	17724.45	16809.6
852.9202	1011.1748	17653.85	16738.1
853.0653	1013.1691	17588.5	16672.75
853.2104	1015.1627	17489.1	16575.4
853.3555	1017.1556	17300.85	16387.7
853.5006	1019.1477	17218.65	16301.7
853.6457	1021.1392	17114.6	16202.45
853.7908	1023.1299	17043.55	16135.4
853.9359	1025.12	16977.7	16070.6
854.081	1027.1093	16904.65	16002.45
854.2261	1029.0979	16870.15	15971.1
854.3712	1031.0859	16846.4	15943.95
854.5163	1033.0731	16839.95	15931.4
854.6613	1035.0596	16755.15	15845.15
854.8064	1037.0454	16639.15	15727.45
854.9515	1039.0304	16589.3	15676.25
855.0965	1041.0148	16462.05	15548.4
855.2416	1042.9985	16409.95	15494.2
855.3867	1044.9814	16367.35	15452.8
855.5317	1046.9636	16272.95	15354.9
855.6768	1048.9452	16207.9	15296.45
855.8219	1050.926	16213.5	15301.55
855.9669	1052.9061	16141.5	15231.25
856.112	1054.8855	16127.45	15212.65
856.257	1056.8642	16083.2	15168.35
856.4021	1058.8421	16087.55	15167.15
856.5471	1060.8194	16031.35	15115.1
856.6921	1062.7959	15974.55	15059.9
856.8372	1064.7717	15949.3	15033.35
856.9822	1066.7469	15932.3	15016
857.1272	1068.7213	15915.15	14997.6
857.2723	1070.695	15916.55	15001.9
857.4173	1072.6679	15845.65	14931.35
857.5623	1074.6402	15872.1	14955.95
857.7073	1076.6117	15828.45	14906.05
857.8523	1078.5826	15749.5	14833.25
857.9973	1080.5527	15668	14751.95
858.1423	1082.5221	15569.95	14653.05
858.2873	1084.4908	15562.8	14647.05
858.4323	1086.4587	15472.65	14558.25
858.5773	1088.426	15435.5	14521.35
858.7223	1090.3925	15389.6	14467.5
858.8673	1092.3584	15380.3	14466
859.0123	1094.3235	15287	14377
859.1573	1096.2879	15232.45	14320
859.3022	1098.2515	15253.7	14337.05
859.4472	1100.2145	15307.1	14391.6
859.5922	1102.1767	15258.6	14343.05
859.7371	1104.1382	15307.7	14396.25
859.8821	1106.099	15344.05	14425.9
860.027	1108.0591	15354.7	14442.1
860.172	1110.0185	15349.8	14432.25
860.3169	1111.9771	15333.2	14418.85
860.4619	1113.9351	15279.5	14365.45
860.6068	1115.8923	15204.7	14288.1
860.7517	1117.8488	15125.45	14209.55
860.8967	1119.8045	14997.35	14082.85
861.0416	1121.7596	14925.1	14009.9
861.1865	1123.7139	14823.45	13912.45
861.3314	1125.6675	14792.95	13879.15
861.4763	1127.6204	14809.85	13894.9
861.6212	1129.5726	14740.65	13826
861.7661	1131.524	14694.05	13779.95
861.911	1133.4748	14671.1	13755.15
862.0559	1135.4248	14528.2	13612.85
862.2008	1137.3741	14466.8	13554
862.3457	1139.3226	14386.45	13468.9
862.4905	1141.2705	14361.65	13446.6
862.6354	1143.2176	14288.1	13368.95
862.7803	1145.164	14258.8	13340.25
862.9251	1147.1097	14178.75	13263.8
863.07	1149.0546	14131.3	13213.5
863.2148	1150.9989	14073.55	13161
863.3597	1152.9424	14054.65	13139.95
863.5045	1154.8852	13990.4	13076.35
863.6493	1156.8272	13964.5	13049.05
863.7942	1158.7686	13944.65	13020.85
863.939	1160.7092	13866.85	12949.35
864.0838	1162.6491	13830.4	12914.7
864.2286	1164.5883	13863.6	12949.25
864.3734	1166.5267	13845.45	12932.55
864.5182	1168.4644	13833.7	12920.45
864.663	1170.4014	13878.35	12959.75
864.8078	1172.3377	13922.9	13007.15
864.9526	1174.2732	13954.45	13038.65
865.0974	1176.2081	14050.4	13139.75
865.2421	1178.1421	14145.2	13226.6
865.3869	1180.0755	14256.65	13345.6
865.5317	1182.0082	14320.35	13406.1
865.6764	1183.9401	14324.4	13411.4
865.8212	1185.8713	14283.75	13371.75
865.9659	1187.8017	14116.1	13210.95
866.1106	1189.7315	13943.75	13039.9
866.2554	1191.6605	13781.85	12877.9
866.4001	1193.5888	13638	12732.5
866.5448	1195.5163	13601.55	12689.35
866.6895	1197.4432	13539.6	12628.15
866.8342	1199.3693	13444.25	12532.2
866.9789	1201.2947	13384.3	12469.65
867.1236	1203.2193	13321.8	12408.9
867.2683	1205.1432	13299.25	12387
867.413	1207.0664	13253.15	12344.1
867.5576	1208.9889	13217.4	12301.45
867.7023	1210.9106	13163.05	12250.7
867.847	1212.8316	13121.55	12208.25
867.9916	1214.7519	13098.65	12173.3
868.1363	1216.6715	13073.55	12162.6
868.2809	1218.5903	13047.3	12136.4
868.4255	1220.5084	13057.7	12145.9
868.5701	1222.4257	13062.9	12149.6
868.7148	1224.3424	12984.9	12074.35
868.8594	1226.2583	13015.8	12098.5
869.004	1228.1735	13030.55	12118.2
869.1486	1230.0879	12986.95	12075
869.2932	1232.0016	13014.05	12101.55
869.4377	1233.9146	13015.85	12103.6
869.5823	1235.8269	13010.85	12099.1
869.7269	1237.7384	12977.05	12064.15
869.8715	1239.6492	12909	11997.95
870.016	1241.5592	12889.4	11979.2
870.1606	1243.4686	12837.9	11925.35
870.3051	1245.3772	12894.05	11981.5
870.4496	1247.285	12901.6	11988.55
870.5941	1249.1922	12933.6	12021.3
870.7387	1251.0986	12976.15	12064.5
870.8832	1253.0042	12990.25	12076.85
871.0277	1254.9092	13003.6	12094.1
871.1722	1256.8134	12994.5	12083.9
871.3167	1258.7169	13026.95	12114.55
871.4611	1260.6196	13018.75	12108.5
871.6056	1262.5216	13060.5	12148.45
871.7501	1264.4229	13061.05	12150.4
871.8945	1266.3234	13083.05	12173.1
872.039	1268.2232	13077.05	12162.4
872.1834	1270.1223	13057.5	12144.75
872.3278	1272.0207	13016.5	12102.5
872.4723	1273.9183	12997.05	12078.65
872.6167	1275.8151	12970.4	12060.4
872.7611	1277.7113	12932.65	12020.2
872.9055	1279.6067	12909.1	11996.4
873.0499	1281.5014	12996.15	12080.95
873.1943	1283.3953	13074.2	12157.05
873.3386	1285.2885	13204.55	12291.55
873.483	1287.181	13378.25	12468.15
873.6274	1289.0727	13540.65	12631.85
873.7717	1290.9637	13634.15	12723.9
873.9161	1292.854	13680.35	12769.45
874.0604	1294.7435	13635.5	12724.4
874.2047	1296.6323	13573.15	12662
874.349	1298.5204	13484.1	12571.3
874.4933	1300.4077	13375.65	12464.25
874.6376	1302.2943	13252.75	12344.55
874.7819	1304.1802	13154.3	12242.6
874.9262	1306.0653	12989.8	12076.2
875.0705	1307.9497	12824.6	11913.9
875.2147	1309.8333	12683.8	11773.8
875.359	1311.7162	12575.2	11662.6
875.5032	1313.5984	12520.25	11605.7
875.6475	1315.4798	12451.65	11525.2
875.7917	1317.3605	12405.9	11484.8
875.9359	1319.2405	12332.4	11417.6
876.0801	1321.1197	12272.1	11357.65
876.2243	1322.9982	12144.85	11229.75
876.3685	1324.876	12085.35	11173.8
876.5127	1326.753	11963.5	11051.4
876.6569	1328.6293	11890.5	10977
876.801	1330.5048	11817.95	10904.85
876.9452	1332.3796	11695.2	10782.55
877.0893	1334.2537	11659.05	10721.35
877.2335	1336.127	11577.6	10664.9
877.3776	1337.9996	11535.2	10627.6
877.5217	1339.8714	11486.5	10575.9
877.6658	1341.7426	11518.35	10562.9
877.8099	1343.6129	11481.85	10565.9
877.954	1345.4826	11441.85	10529.75
878.0981	1347.3515	11407.4	10493.05
878.2422	1349.2196	11369.55	10454.35
878.3862	1351.087	11360.25	10449.55
878.5303	1352.9537	11329.75	10416.7
878.6743	1354.8197	11372.7	10460.55
878.8184	1356.6849	11422.35	10508.7
878.9624	1358.5493	11402	10488.45
879.1064	1360.4131	11433.55	10523.4
879.2504	1362.276	11446.85	10535.3
879.3944	1364.1383	11455.7	10544.5
879.5384	1365.9998	11403.45	10487.05
879.6823	1367.8606	11319.8	10408.15
879.8263	1369.7206	11191.1	10279.75
879.9702	1371.5799	11108.35	10194.3
880.1142	1373.4384	11023.3	10110.65
880.2581	1375.2962	10944.65	10031.95
880.402	1377.1533	10832.45	9923.35
880.5459	1379.0096	10693.65	9783.6
880.6898	1380.8652	10592.45	9680.55
880.8337	1382.7201	10521.75	9609.7
880.9776	1384.5742	10378.45	9467.75
881.1215	1386.4275	10296.25	9382.55
881.2653	1388.2802	10239.85	9330
881.4092	1390.132	10181.8	9271.05
881.553	1391.9832	10180.9	9269
881.6968	1393.8336	10095.45	9184.9
881.8406	1395.6832	10062.6	9148.35
881.9844	1397.5322	9999.8	9087.55
882.1282	1399.3803	9976.65	9059
882.272	1401.2278	9922.7	9013.2
882.4158	1403.0745	9872.35	8963.75
882.5595	1404.9204	9836.15	8927.35
882.7033	1406.7656	9824.2	8913.75
882.847	1408.6101	9773.5	8862.55
882.9908	1410.4538	9737.15	8827.4
883.1345	1412.2968	9723.05	8812.75
883.2782	1414.139	9729.55	8819.4
883.4219	1415.9805	9733.1	8823.2
883.5656	1417.8213	9714.85	8782.9
883.7092	1419.6613	9718.4	8809.25
883.8529	1421.5006	9719.65	8810
883.9965	1423.3391	9737.05	8826.3
884.1402	1425.1769	9780.7	8870.85
884.2838	1427.0139	9880.1	8967.95
884.4274	1428.8502	9983.35	9069.75
884.571	1430.6858	10085.95	9176.85
884.7146	1432.5206	10152.5	9239.9
884.8582	1434.3547	10204.05	9293.65
885.0018	1436.188	10179.2	9271.7
885.1453	1438.0206	10152.2	9242.05
885.2889	1439.8524	10081.55	9170.95
885.4324	1441.6835	10023.95	9114.3
885.5759	1443.5139	9992.1	9080.95
885.7194	1445.3435	9958.9	9050.25
885.8629	1447.1724	9960.35	9051.65
886.0064	1449.0005	9916.1	9005.6
886.1499	1450.8279	9907.75	8997
886.2933	1452.6545	9907.65	8997.45
886.4368	1454.4804	9885.95	8980
886.5802	1456.3056	9839.55	8922.15
886.7237	1458.13	9807.15	8900.15
886.8671	1459.9536	9779.45	8868.45
887.0105	1461.7766	9713.05	8805.25
887.1539	1463.5987	9600	8687.6
887.2972	1465.4202	9502.75	8593.45
887.4406	1467.2409	9372.95	8465.9
887.584	1469.0608	9309.8	8402.8
887.7273	1470.88	9222.4	8313.45
887.8706	1472.6984	9155.05	8248.45
888.0139	1474.5161	9083.5	8173.75
888.1572	1476.3331	9016.6	8106.15
888.3005	1478.1493	8984.7	8077.15
888.4438	1479.9648	8967.5	8057.75
888.5871	1481.7795	8921.75	8011.95
888.7303	1483.5935	8909.1	8001.55
888.8736	1485.4067	8882.05	7971.3
889.0168	1487.2192	8851.1	7941.75
889.16	1489.031	8824	7913.1
889.3032	1490.842	8816.7	7906.4
889.4464	1492.6522	8780.95	7872.95
889.5896	1494.4618	8760.55	7852.7
889.7327	1496.2705	8732.2	7824.55
889.8759	1498.0785	8714.75	7806.95
890.019	1499.8858	8671.8	7764.15
890.1622	1501.6924	8644.3	7735.55
890.3053	1503.4981	8655.5	7747.85
890.4484	1505.3032	8615.05	7705.05
890.5914	1507.1075	8581.4	7673.05
890.7345	1508.911	8541.55	7635.95
890.8776	1510.7138	8524.65	7615.5
891.0206	1512.5159	8480.4	7572.95
891.1637	1514.3172	8462.2	7553.5
891.3067	1516.1178	8429.2	7523.4
891.4497	1517.9176	8400.9	7487.85
891.5927	1519.7166	8362.2	7454.6
891.7357	1521.515	8351.1	7438.1
891.8786	1523.3126	8335.25	7427.55
892.0216	1525.1094	8314.3	7406.15
892.1645	1526.9055	8276.1	7370.55
892.3074	1528.7008	8248.45	7343.15
892.4503	1530.4954	8195.5	7287.4
892.5932	1532.2893	8186.8	7283.55
892.7361	1534.0824	8153.55	7246.95
892.879	1535.8747	8152	7249
893.0218	1537.6663	8115.35	7211.05
893.1647	1539.4572	8078.85	7174.6
893.3075	1541.2473	8071.15	7163.55
893.4503	1543.0367	8031.2	7125.95
893.5931	1544.8253	8023.7	7115.7
893.7359	1546.6132	8004.65	7098
893.8787	1548.4003	7985.35	7072.2
894.0214	1550.1867	8002.1	7091
894.1642	1551.9723	7984.55	7077.75
894.3069	1553.7572	7988.25	7083.8
894.4496	1555.5414	7990.05	7088.4
894.5923	1557.3247	8010.4	7107.35
894.735	1559.1074	8043.7	7142.5
894.8777	1560.8893	8046.4	7147.25
895.0204	1562.6705	8083.55	7183.6
895.163	1564.4509	8111.55	7209.95
895.3056	1566.2305	8092.55	7194.8
895.4482	1568.0094	8094.95	7194.2
895.5908	1569.7876	8117	7217.25
895.7334	1571.565	8083.3	7178
895.876	1573.3417	8073.4	7171.4
896.0186	1575.1176	8060	7159.15
896.1611	1576.8928	8046.9	7147.15
896.3036	1578.6672	8030.1	7134.2
896.4461	1580.4409	7999.9	7106.8
896.5886	1582.2138	7985.4	7085.25
896.7311	1583.986	8019.45	7120.15
896.8736	1585.7575	8028.45	7130.2
897.0161	1587.5282	8035.95	7139.25
897.1585	1589.2981	8064.1	7167.25
897.3009	1591.0673	8069.2	7171.95
897.4433	1592.8358	8082.4	7188.5
897.5857	1594.6035	8097.9	7198.8
897.7281	1596.3704	8050.25	7151.25
897.8705	1598.1366	8053.8	7157.6
898.0128	1599.9021	8067.1	7169.7
898.1551	1601.6668	8045.3	7144.75
898.2975	1603.4308	8027.4	7127.85
898.4398	1605.194	8076.8	7173.45
898.5821	1606.9564	8104.25	7208.8
898.7243	1608.7182	8155.25	7261.45
898.8666	1610.4791	8193.85	7302.75
899.0088	1612.2394	8276	7386.45
899.1511	1613.9988	8334.7	7443.3
899.2933	1615.7576	8425.65	7529.2
899.4355	1617.5156	8507.5	7601.55
899.5776	1619.2728	8508.05	7608.1
899.7198	1621.0293	8472.95	7574.25
899.862	1622.785	8372.65	7478.2
900.0041	1624.54	8256.05	7362.5
900.1462	1626.2942	8128.95	7232.5
900.2883	1628.0477	7967.15	7070.8
900.4304	1629.8005	7842.8	6944.95
900.5725	1631.5525	7736.9	6843.25
900.7145	1633.3037	7632.15	6738.2
900.8566	1635.0542	7552.75	6658.35
900.9986	1636.804	7474.35	6580.6
901.1406	1638.553	7478.15	6509.5
901.2826	1640.3013	7391	6496.15
901.4245	1642.0488	7345.6	6451.05
901.5665	1643.7955	7342.75	6449.6
901.7085	1645.5416	7309.45	6416.45
901.8504	1647.2868	7306.95	6414.45
901.9923	1649.0313	7312.95	6417.3
902.1342	1650.7751	7310.95	6414.35
902.2761	1652.5181	7301.55	6409.05
902.4179	1654.2604	7321.85	6427.9
902.5598	1656.0019	7343.8	6451.6
902.7016	1657.7427	7399.1	6505.95
902.8434	1659.4828	7439.5	6545.85
902.9852	1661.222	7473.5	6578.6
903.127	1662.9606	7460.3	6567.35
903.2687	1664.6984	7414.05	6519.8
903.4105	1666.4354	7357.05	6461.9
903.5522	1668.1717	7219.9	6324.95
903.6939	1669.9072	7062.35	6166.1
903.8356	1671.642	6955.25	6056.85
903.9773	1673.3761	6848.15	5956.15
904.119	1675.1094	6743.35	5850.6
904.2606	1676.8419	6678.3	5786
904.4022	1678.5737	6606.6	5711.95
904.5439	1680.3048	6562	5666.35
904.6855	1682.0351	6504.25	5612
904.827	1683.7646	6450.4	5550.6
904.9686	1685.4934	6413.35	5520.4
905.1101	1687.2215	6399.15	5505.5
905.2517	1688.9488	6362.7	5469.45
905.3932	1690.6754	6309.2	5416.5
905.5347	1692.4012	6307.85	5414.3
905.6761	1694.1263	6283.65	5388.25
905.8176	1695.8506	6268.35	5374.05
905.9591	1697.5742	6237.05	5344.35
906.1005	1699.297	6202.95	5311.75
906.2419	1701.0191	6166.8	5275.9
906.3833	1702.7404	6145.4	5254
906.5246	1704.461	6102.8	5209.1
906.666	1706.1808	6081	5186.6
906.8073	1707.8999	6078.6	5186.8
906.9487	1709.6182	6067.3	5177
907.09	1711.3358	6030.6	5140.7
907.2313	1713.0527	6027.1	5137.5
907.3725	1714.7688	6004.95	5108.05
907.5138	1716.4841	5973.45	5077.95
907.655	1718.1987	5954.9	5057.3
907.7962	1719.9126	5936.75	5047.65
907.9374	1721.6257	5906.35	5012.25
908.0786	1723.338	5900.95	5010.55
908.2198	1725.0496	5874	4982.35
908.3609	1726.7605	5861.25	4969.75
908.502	1728.4706	5853.7	4961.9
908.6431	1730.18	5827.9	4935.9
908.7842	1731.8886	5804.35	4913.6
908.9253	1733.5964	5793.55	4897.65
909.0664	1735.3036	5783.45	4887.45
909.2074	1737.0099	5781.55	4891.2
909.3484	1738.7156	5760.4	4871.65
909.4894	1740.4204	5729.55	4836.7
909.6304	1742.1246	5727.75	4836.9
909.7714	1743.8279	5707	4818.45
909.9123	1745.5306	5715.05	4824.95
910.0532	1747.2325	5684.45	4794.25
910.1941	1748.9336	5667.6	4779.2
910.335	1750.634	5651.85	4757.6
910.4759	1752.3336	5610.95	4721.2
910.6168	1754.0325	5599.1	4711.45
910.7576	1755.7307	5602.65	4711.9
910.8984	1757.4281	5602.4	4714
911.0392	1759.1247	5609.1	4709.45
911.18	1760.8206	5599.35	4701.35
911.3208	1762.5158	5567.8	4672.55
911.4615	1764.2102	5550.35	4660.65
911.6022	1765.9039	5543.2	4656.85
911.7429	1767.5968	5530.3	4640.55
911.8836	1769.289	5518.25	4627.85
912.0243	1770.9804	5496.45	4604.6
912.1649	1772.6711	5505.45	4615.7
912.3056	1774.361	5497.55	4606.2
912.4462	1776.0502	5477	4585.7
912.5868	1777.7386	5456.3	4562.35
912.7274	1779.4263	5430.2	4539.1
912.8679	1781.1132	5434.35	4544.4
913.0084	1782.7994	5414.9	4525.05
913.149	1784.4849	5402.85	4513.7
913.2895	1786.1696	5395	4498.35
913.4299	1787.8535	5380.8	4490.85
913.5704	1789.5367	5365.65	4476.7
913.7108	1791.2192	5359.25	4468.65
913.8513	1792.9009	5352.4	4438.2
913.9917	1794.5818	5328	4437.15
914.132	1796.2621	5323.1	4432.85
914.2724	1797.9415	5311	4421.6
914.4128	1799.6202	5292.7	4402.2
914.5531	1801.2982	5289.15	4397.4
914.6934	1802.9755	5265	4372.85
914.8337	1804.6519	5273.75	4382.15
914.9739	1806.3277	5243.1	4352.45
915.1142	1808.0027	5215.2	4326.35
915.2544	1809.6769	5234.65	4343.85
915.3946	1811.3504	5201.55	4312.05
915.5348	1813.0231	5204.3	4314.95
915.675	1814.6951	5193.25	4305
915.8151	1816.3664	5169.8	4279
915.9553	1818.0369	5181.55	4290.75
916.0954	1819.7067	5169.05	4279.3
916.2355	1821.3757	5147.9	4254.1
916.3755	1823.044	5157.85	4264.05
916.5156	1824.7115	5123.15	4234.45
916.6556	1826.3783	5110.85	4222.1
916.7956	1828.0443	5093.2	4205.55
916.9356	1829.7096	5074.45	4183.7
917.0756	1831.3741	5075.6	4181.65
917.2155	1833.0379	5076.3	4188.95
917.3555	1834.701	5065.4	4176.7
917.4954	1836.3633	5063.25	4175.1
917.6353	1838.0248	5042.85	4154.1
917.7751	1839.6856	5035.05	4145.4
917.915	1841.3457	5019.3	4130.5
918.0548	1843.005	5011.75	4121.8
918.1946	1844.6636	5015.75	4125.9
918.3344	1846.3214	4999.25	4107.9
918.4742	1847.9785	4995.9	4104.95
918.6139	1849.6349	4968.95	4076.7
918.7537	1851.2904	4964.1	4063.2
918.8934	1852.9453	4944.05	4050.85
919.0331	1854.5994	4930.75	4038.3
919.1727	1856.2528	4952.9	4056.8
919.3124	1857.9054	4924.2	4032.65
919.452	1859.5572	4920.65	4032.8
919.5916	1861.2083	4926.2	4036.25
919.7312	1862.8587	4926.25	4036.65
919.8708	1864.5084	4902.25	4010.25
920.0103	1866.1572	4868.55	3978.45
920.1498	1867.8054	4864	3972.8
920.2893	1869.4528	4865.85	3975.05
920.4288	1871.0994	4833.75	3943
920.5683	1872.7453	4852.65	3960.9
920.7077	1874.3905	4831.2	3936.45
920.8471	1876.0349	4818.2	3928.8
920.9865	1877.6786	4807.35	3915.65
921.1259	1879.3215	4800.1	3911.25
921.2653	1880.9637	4797.3	3906.8
921.4046	1882.6051	4791.1	3902.35
921.5439	1884.2458	4782.9	3892.05
921.6832	1885.8858	4755.15	3865.25
921.8225	1887.525	4768.25	3878.25
921.9617	1889.1634	4740.5	3851.15
922.101	1890.8011	4728.4	3836.2
922.2402	1892.4381	4727.1	3838.05
922.3794	1894.0743	4714.45	3823.3
922.5185	1895.7098	4713.85	3823.7
922.6577	1897.3446	4687.5	3797.05
922.7968	1898.9786	4674.05	3779.8
922.9359	1900.6118	4674.55	3787.1
923.075	1902.2443	4660.8	3770.2
923.214	1903.8761	4652.65	3763.35
923.3531	1905.5071	4632.05	3741.45
923.4921	1907.1374	4604.05	3713
923.6311	1908.7669	4603.85	3714.75
923.77	1910.3957	4604.8	3715.35
923.909	1912.0237	4576.45	3685.55
924.0479	1913.651	4590.25	3701.6
924.1868	1915.2776	4563.25	3675.1
924.3257	1916.9034	4562.9	3675.05
924.4646	1918.5285	4530.5	3642.2
924.6034	1920.1528	4513.45	3624.5
924.7422	1921.7764	4503.55	3615.2
924.881	1923.3992	4488.6	3599.1
925.0198	1925.0213	4454.55	3563.4
925.1586	1926.6427	4463.3	3575.4
925.2973	1928.2633	4502.95	3544.85
925.436	1929.8832	4456.95	3564.45
925.5747	1931.5023	4424.35	3536.6
925.7134	1933.1207	4408.6	3520.65
925.852	1934.7383	4403.7	3514.2
925.9906	1936.3552	4390.5	3503.1
926.1292	1937.9714	4395.85	3508.05
926.2678	1939.5868	4365.65	3474.75
926.4064	1941.2015	4357.5	3467.95
926.5449	1942.8154	4332.7	3443.2
926.6834	1944.4286	4334.6	3444.25
926.8219	1946.041	4320.6	3405.35
926.9604	1947.6528	4296.1	3401.3
927.0988	1949.2637	4284.85	3394.05
927.2372	1950.8739	4267.5	3380.55
927.3756	1952.4834	4272.35	3383.95
927.514	1954.0921	4258.9	3371.6
927.6523	1955.7001	4253.45	3361.15
927.7907	1957.3074	4247.6	3360.6
927.929	1958.9139	4216.6	3327.2
928.0673	1960.5197	4222.85	3334.15
928.2055	1962.1247	4195.6	3307.1
928.3438	1963.729	4176.45	3289.25
928.482	1965.3325	4182.5	3273.75
928.6202	1966.9353	4169.55	3281.05
928.7584	1968.5374	4155.7	3266.9
928.8965	1970.1387	4140.25	3252.5
929.0346	1971.7393	4131.25	3242.8
929.1727	1973.3392	4125.2	3236.3
929.3108	1974.9383	4099.3	3211.8
929.4489	1976.5366	4092.3	3206.05
929.5869	1978.1342	4085.35	3198.15
929.7249	1979.7311	4074.05	3184.8
929.8629	1981.3273	4070.35	3181.5
930.0009	1982.9227	4051.1	3160.95
930.1388	1984.5173	4037.65	3150.45
930.2767	1986.1112	4017.45	3131.05
930.4146	1987.7044	4018.95	3131.65
930.5525	1989.2968	4021.2	3135
930.6904	1990.8885	4010.05	3118.6
930.8282	1992.4795	4009.55	3123.3
930.966	1994.0697	3979.75	3094.05
931.1038	1995.6592	3984.35	3098.95
931.2415	1997.2479	3972.2	3083.9
931.3793	1998.8359	3946	3059
931.517	2000.4232	3956.3	3071.3
931.6547	2002.0097	3934.15	3049.1
931.7923	2003.5955	3911.6	3023.75
931.93	2005.1805	3914.55	3027.2
932.0676	2006.7648	3898.15	3014.2
932.2052	2008.3484	3912.75	3024.35
932.3427	2009.9312	3908.15	3022.4
932.4803	2011.5133	3873.7	2990.1
932.6178	2013.0946	3864.75	2981.1
932.7553	2014.6752	3864.15	2978.45
932.8928	2016.2551	3858.4	2973.4
933.0302	2017.8342	3839	2954.35
933.1676	2019.4126	3829.45	2944.95
933.305	2020.9902	3820.3	2935.55
933.4424	2022.5672	3815.55	2930
933.5798	2024.1433	3806.95	2915.55
933.7171	2025.7188	3793.95	2910.95
933.8544	2027.2935	3784.3	2898.8
933.9917	2028.8674	3781.05	2896.65
934.129	2030.4406	3769.5	2886.6
934.2662	2032.0131	3738.7	2854.05
934.4034	2033.5849	3742.65	2854.9
934.5406	2035.1559	3723.55	2840.15
934.6778	2036.7261	3732.9	2847.55
934.8149	2038.2957	3726.45	2841.1
934.952	2039.8645	3704.4	2818.05
935.0891	2041.4325	3717.3	2829.1
935.2262	2042.9998	3713	2826.95
935.3632	2044.5664	3680.1	2793.1
935.5002	2046.1323	3680.95	2797.2
935.6372	2047.6974	3681.15	2796.65
935.7742	2049.2617	3658	2774.45
935.9111	2050.8254	3673.8	2784.2
936.048	2052.3883	3663.95	2777.55
936.1849	2053.9504	3651.75	2765.7
936.3218	2055.5118	3634.6	2748.55
936.4586	2057.0725	3613.95	2724.3
936.5955	2058.6325	3626.55	2741.05
936.7323	2060.1917	3615.85	2730.55
936.869	2061.7502	3613.65	2726.8
937.0058	2063.3079	3595.4	2710.9
937.1425	2064.8649	3587.1	2699.3
937.2792	2066.4212	3579.8	2693.45
937.4159	2067.9767	3588.4	2705.05
937.5525	2069.5315	3562.2	2678.05
937.6891	2071.0856	3553.4	2668.55
937.8257	2072.6389	3530	2645.15
937.9623	2074.1915	3536.05	2653.75
938.0989	2075.7433	3511.75	2624.75
938.2354	2077.2945	3508.1	2625.9
938.3719	2078.8448	3507.1	2621.35
938.5084	2080.3945	3498.85	2613.5
938.6448	2081.9434	3495.25	2608.1
938.7812	2083.4916	3488.35	2602.2
938.9176	2085.039	3478.7	2590.7
939.054	2086.5857	3480.5	2590.85
939.1903	2088.1317	3459.65	2572.4
939.3267	2089.677	3437.85	2548.45
939.463	2091.2215	3443	2555.15
939.5992	2092.7652	3437.65	2549.9
939.7355	2094.3083	3435.55	2547.1
939.8717	2095.8506	3433.9	2546.9
940.0079	2097.3921	3415.2	2529.6
940.1441	2098.933	3397.85	2511.75
940.2802	2100.4731	3402.7	2517.55
940.4163	2102.0124	3407.9	2513.7
940.5524	2103.5511	3395.9	2508.25
940.6885	2105.089	3384.35	2495.3
940.8245	2106.6261	3371.75	2485.35
940.9606	2108.1626	3379.4	2491.7
941.0965	2109.6983	3402.2	2487.35
941.2325	2111.2332	3365.95	2476.55
941.3684	2112.7675	3369.15	2479.8
941.5044	2114.301	3348.45	2458.6
941.6403	2115.8337	3335.75	2449
941.7761	2117.3657	3332.3	2444.75
941.912	2118.897	3333.45	2444.85
942.0478	2120.4276	3333.95	2440.75
942.1835	2121.9575	3321.55	2432
942.3193	2123.4866	3308.1	2418.65
942.455	2125.0149	3303.85	2414.5
942.5907	2126.5426	3285.8	2397.75
942.7264	2128.0695	3296.5	2407.15
942.8621	2129.5956	3286.45	2401.1
942.9977	2131.1211	3275.25	2385.1
943.1333	2132.6458	3268.3	2383.15
943.2689	2134.1698	3249.2	2362.3
943.4044	2135.693	3248.5	2359.55
943.54	2137.2155	3248.95	2359.3
943.6755	2138.7373	3232.65	2344.05
943.8109	2140.2584	3243.15	2357.95
943.9464	2141.7787	3235.4	2343.2
944.0818	2143.2983	3219.05	2334.85
944.2172	2144.8171	3190.15	2307.5
944.3526	2146.3353	3191.55	2303.8
944.4879	2147.8527	3184.85	2299.7
944.6232	2149.3693	3189.75	2300.2
944.7585	2150.8853	3179.65	2289.9
944.8938	2152.4005	3162.25	2273.05
945.029	2153.9149	3160.4	2270.2
945.1642	2155.4287	3251.95	2252.6
945.2994	2156.9417	3184.45	2292.15
945.4346	2158.454	3142.95	2254.85
945.5697	2159.9655	3141.6	2255.85
945.7048	2161.4764	3142.55	2257.85
945.8399	2162.9865	3131.45	2244.35
945.9749	2164.4958	3124.35	2235.5
946.1099	2166.0045	3108.1	2218
946.2449	2167.5124	3094.45	2206.25
946.3799	2169.0195	3098.9	2209.7
946.5148	2170.526	3105.3	2217.3
946.6498	2172.0317	3085.45	2196.4
946.7846	2173.5367	3079.3	2192.8
946.9195	2175.0409	3075.35	2189.15
947.0543	2176.5445	3062.95	2177.4
947.1891	2178.0473	3063.7	2174.25
947.3239	2179.5494	3047.15	2155.45
947.4587	2181.0507	3039.6	2152.3
947.5934	2182.5513	3036.05	2150.8
947.7281	2184.0512	3036.05	2148.05
947.8628	2185.5504	3027.7	2141.05
947.9974	2187.0488	3009.15	2122.15
948.132	2188.5465	2996.35	2108.8
948.2666	2190.0435	3003.35	2113.6
948.4012	2191.5397	2987.75	2101.5
948.5357	2193.0353	2999.75	2112.1
948.6702	2194.5301	2966.9	2075.6
948.8047	2196.0241	2971.65	2082.7
948.9392	2197.5175	2958.1	2067.3
949.0736	2199.0101	2948.9	2056
949.208	2200.502	2931.85	2043.3
949.3424	2201.9931	2929.55	2041.7
949.4767	2203.4835	2928	2040.3
949.611	2204.9733	2937.8	2034.6
949.7453	2206.4622	2926.1	2041
949.8796	2207.9505	2910.85	2022
950.0138	2209.438	2899.75	2014.15
950.148	2210.9248	2894.65	2006.45
950.2822	2212.4109	2883.1	1997.1
950.4164	2213.8962	2880.3	1990.2
950.5505	2215.3809	2883.25	1992.5
950.6846	2216.8648	2870.85	1980.45
950.8186	2218.3479	2869.15	1974.65
950.9527	2219.8304	2866.3	1974.35
951.0867	2221.3121	2857.3	1967.3
951.2207	2222.7931	2838.8	1950.1
951.3546	2224.2733	2828.6	1940.25
951.4886	2225.7529	2824.95	1936.95
951.6225	2227.2317	2832.6	1942.1
951.7563	2228.7098	2824	1938.6
951.8902	2230.1872	2797.8	1912.1
952.024	2231.6638	2804.9	1918.05
952.1578	2233.1397	2798.05	1905.65
952.2916	2234.6149	2780.75	1892.9
952.4253	2236.0894	2778.4	1888.2
952.559	2237.5632	2781.35	1891.5
952.6927	2239.0362	2766.85	1879.95
952.8263	2240.5085	2768.55	1880.25
952.9599	2241.9801	2752.1	1862.65
953.0935	2243.4509	2745.85	1857.35
953.2271	2244.921	2742.6	1854.8
953.3606	2246.3904	2732.6	1842.8
953.4941	2247.8591	2734	1844.55
953.6276	2249.3271	2728.5	1839.4
953.7611	2250.7943	2722.1	1831.35
953.8945	2252.2608	2717	1828
954.0279	2253.7266	2704.7	1817.5
954.1612	2255.1917	2698.9	1810.45
954.2946	2256.656	2695.3	1805.55
954.4279	2258.1197	2682.5	1796.25
954.5612	2259.5826	2685.5	1797.45
954.6944	2261.0447	2684.65	1796.05
954.8276	2262.5062	2681.35	1789.5
954.9608	2263.9669	2671.4	1779.4
955.094	2265.4269	2658.5	1769.65
955.2271	2266.8862	2652.5	1764.25
955.3602	2268.3448	2657.75	1770.15
955.4933	2269.8026	2654.65	1766
955.6264	2271.2598	2648.65	1761.8
955.7594	2272.7162	2632.85	1746.45
955.8924	2274.1719	2635.8	1744.25
956.0253	2275.6268	2626.85	1736.3
956.1583	2277.0811	2636.85	1747.4
956.2912	2278.5346	2626.4	1737.7
956.4241	2279.9874	2614.2	1728.15
956.5569	2281.4395	2606.55	1721.65
956.6897	2282.8908	2606.4	1712.7
956.8225	2284.3414	2594.5	1705.6
956.9553	2285.7914	2596	1706.35
957.088	2287.2406	2585.55	1694.4
957.2207	2288.689	2585.35	1693.85
957.3534	2290.1368	2568.65	1675.5
957.486	2291.5838	2569.65	1675.25
957.6186	2293.0302	2568.45	1676.6
957.7512	2294.4758	2562.5	1674.95
957.8838	2295.9206	2548.35	1657.2
958.0163	2297.3648	2548.45	1658.8
958.1488	2298.8082	2542.25	1652.3
958.2813	2300.251	2523.8	1636.15
958.4137	2301.693	2536.5	1644.9
958.5461	2303.1343	2526.35	1637.75
958.6785	2304.5748	2512.5	1624.95
958.8108	2306.0147	2519.35	1632.85
958.9432	2307.4538	2507.35	1617.65
959.0754	2308.8922	2500.25	1614.15
959.2077	2310.3299	2508.05	1619.05
959.3399	2311.7669	2495.2	1608.4
959.4721	2313.2031	2484.9	1597.5
959.6043	2314.6387	2483.8	1593.9
959.7365	2316.0735	2476.1	1587.85
959.8686	2317.5076	2449.7	1561.3
960.0006	2318.941	2461.05	1571.5
960.1327	2320.3737	2467.7	1577.15
960.2647	2321.8056	2457.7	1565.85
960.3967	2323.2369	2438.5	1550.6
960.5287	2324.6674	2454.45	1563.1
960.6606	2326.0972	2456.75	1567.05
960.7925	2327.5263	2438.6	1548.95
960.9244	2328.9547	2431.5	1542
961.0562	2330.3823	2426.45	1536.3
961.1881	2331.8092	2439.55	1545.4
961.3198	2333.2355	2414.4	1523.8
961.4516	2334.661	2416.75	1527.6
961.5833	2336.0858	2407	1517.25
961.715	2337.5098	2399.55	1510.85
961.8467	2338.9332	2399.5	1509.25
961.9783	2340.3558	2401.8	1511.3
962.1099	2341.7778	2385.9	1497.85
962.2415	2343.199	2390.05	1499.35
962.373	2344.6195	2376.3	1488.3
962.5045	2346.0393	2366.3	1475.9
962.636	2347.4583	2372.35	1482.75
962.7675	2348.8767	2368	1479.05
962.8989	2350.2943	2369.9	1479.8
963.0303	2351.7113	2364.85	1472.55
963.1617	2353.1275	2348.6	1458.5
963.293	2354.543	2357.7	1442.5
963.4243	2355.9578	2345	1453.8
963.5556	2357.3718	2328.1	1441.95
963.6868	2358.7852	2315	1423.05
963.818	2360.1978	2310.05	1420.1
963.9492	2361.6098	2309.85	1420.05
964.0803	2363.021	2315.5	1420.9
964.2114	2364.4315	2308.05	1417.35
964.3425	2365.8413	2309.7	1414.85
964.4736	2367.2504	2289.45	1401.75
964.6046	2368.6587	2289.8	1402.65
964.7356	2370.0664	2285.9	1395.75
964.8666	2371.4733	2287	1396.4
964.9975	2372.8795	2274.9	1386.5
965.1284	2374.285	2274.15	1382.65
965.2593	2375.6899	2262.8	1374.05
965.3901	2377.0939	2261.45	1374.05
965.5209	2378.4973	2246.2	1359.6
965.6517	2379.9	2243.75	1354.9
965.7825	2381.3019	2238.7	1350.7
965.9132	2382.7032	2226.8	1338.9
966.0439	2384.1037	2227.85	1341.6
966.1745	2385.5035	2214.2	1328.55
966.3051	2386.9027	2210.65	1324.1
966.4357	2388.3011	2204.3	1311.7
966.5663	2389.6987	2208.85	1319.85
966.6968	2391.0957	2215.7	1329.5
966.8273	2392.492	2202	1314.6
966.9578	2393.8876	2197.45	1309.05
967.0882	2395.2824	2181.85	1295.05
967.2186	2396.6765	2188.35	1300.1
967.349	2398.07	2177.85	1289.65
967.4793	2399.4627	2178.25	1288.2
967.6097	2400.8547	2175	1285.8
967.7399	2402.246	2171.9	1276.8
967.8702	2403.6366	2155.5	1263.4
968.0004	2405.0265	2153.6	1267.3
968.1306	2406.4156	2149.5	1259.45
968.2607	2407.8041	2152.25	1261.7
968.3909	2409.1918	2136.15	1246.1
968.521	2410.5789	2133	1243
968.651	2411.9652	2134.7	1242.95
968.781	2413.3508	2115.3	1226.9
968.911	2414.7358	2116.75	1225.9
969.041	2416.12	2115.45	1228.2
969.1709	2417.5035	2106.2	1217.65
969.3008	2418.8863	2101.15	1211.55
969.4307	2420.2684	2096.85	1205.85
969.5606	2421.6497	2084.7	1196.1
969.6904	2423.0304	2071.4	1184.4
969.8201	2424.4104	2086.9	1198.9
969.9499	2425.7896	2081.85	1189.7
970.0796	2427.1682	2077.9	1189.25
970.2093	2428.546	2077.35	1186.9
970.3389	2429.9232	2070.85	1180.15
970.4685	2431.2996	2068.75	1180.2
970.5981	2432.6753	2064.4	1177.85
970.7277	2434.0503	2068.45	1180.25
970.8572	2435.4246	2043.9	1154.6
970.9867	2436.7982	2052.9	1162.1
971.1161	2438.1711	2046.45	1159.8
971.2456	2439.5433	2040.45	1150.65
971.375	2440.9148	2030.7	1136.4
971.5043	2442.2856	2026.6	1137.15
971.6336	2443.6557	2031.15	1139.75
971.7629	2445.025	2029.35	1139.25
971.8922	2446.3937	2023.15	1133.05
972.0214	2447.7617	2025.1	1136.55
972.1506	2449.1289	2023.95	1133.35
972.2798	2450.4955	2008.65	1116.4
972.4089	2451.8613	2001.9	1111.45
972.538	2453.2265	2005.85	1117.6
972.6671	2454.5909	1997.05	1106.8
972.7961	2455.9546	1990.5	1101.1
972.9251	2457.3177	1984.25	1097.45
973.0541	2458.68	1988.05	1096.55
973.1831	2460.0416	1987.35	1099.15
973.312	2461.4025	1989.7	1099
973.4408	2462.7627	1982.1	1081.45
973.5697	2464.1222	1971.05	1084.6
973.6985	2465.4811	1975	1087.3
973.8273	2466.8392	1961.55	1072.25
973.956	2468.1966	1971.7	1081.15
974.0847	2469.5533	1962	1071.45
974.2134	2470.9093	1959.7	1069.8
974.3421	2472.2645	1955.75	1067.7
974.4707	2473.6191	1955.55	1065.85
974.5993	2474.973	1951.85	1063.85
974.7278	2476.3262	1941.95	1053.25
974.8563	2477.6787	1945.4	1057.55
974.9848	2479.0305	1932.8	1043.55
975.1132	2480.3816	1934.55	1043.3
975.2417	2481.7319	1926.25	1038.05
975.37	2483.0816	1918	1027.05
975.4984	2484.4306	1915.8	1025.75
975.6267	2485.7789	1908.35	1020.75
975.755	2487.1264	1913.7	1023.1
975.8833	2488.4733	1908.6	1018.3
976.0115	2489.8195	1909.5	1004.5
976.1397	2491.165	1906.6	1012.4
976.2678	2492.5097	1899.6	1008.85
976.3959	2493.8538	1886.15	998.3
976.524	2495.1972	1885.7	997.15
976.6521	2496.5398	1883.05	994.65
976.7801	2497.8818	1878.8	987.95
976.9081	2499.2231	1880.2	991.5
977.036	2500.5637	1874.2	982.4
977.164	2501.9035	1871.15	980.8
977.2918	2503.2427	1864.75	970.2
977.4197	2504.5812	1859.1	969.05
977.5475	2505.919	1872.8	983.15
977.6753	2507.256	1860.35	972
977.8031	2508.5924	1859.3	971.9
977.9308	2509.9281	1857.7	963.15
978.0585	2511.2631	1845.65	954.85
978.1861	2512.5974	1837.35	949.25
978.3137	2513.9309	1838.7	950.55
978.4413	2515.2638	1856.3	939.9
978.5689	2516.596	1834.55	945.55
978.6964	2517.9275	1835.95	946.3
978.8239	2519.2583	1836	946.95
978.9513	2520.5884	1817.5	927.45
979.0788	2521.9178	1820.25	932.15
979.2062	2523.2465	1814.45	927.65
979.3335	2524.5745	1817.55	931.45
979.4608	2525.9018	1804.9	913.95
979.5881	2527.2284	1801.4	913
979.7154	2528.5543	1807.15	918.5
979.8426	2529.8796	1796.9	907.45
979.9698	2531.2041	1796.6	906.85
980.0969	2532.5279	1790.35	904.8
980.224	2533.851	1796.55	909.25
980.3511	2535.1735	1788.1	898.45
980.4781	2536.4952	1784.5	893.95
980.6052	2537.8163	1787.65	898.85
980.7321	2539.1366	1782.9	896
980.8591	2540.4562	1776.9	887.5
980.986	2541.7752	1776.2	888.55
981.1129	2543.0935	1775.65	887.55
981.2397	2544.411	1774.95	887.05
981.3665	2545.7279	1770.8	883.75
981.4933	2547.0441	1774.75	886.9
981.62	2548.3596	1770.35	876.65
981.7467	2549.6744	1767.35	878
981.8734	2550.9885	1764.4	872.45
982.0001	2552.3019	1747.7	859.95
982.1267	2553.6146	1755	866.4
982.2532	2554.9266	1753.05	862.9
982.3798	2556.2379	1748.6	859.3
982.5063	2557.5485	1742.9	854.8
982.6327	2558.8585	1748.45	852.8
982.7592	2560.1677	1745.65	850.45
982.8856	2561.4762	1743.7	853.85
983.0119	2562.7841	1743.95	853.15
983.1383	2564.0913	1739.1	849.75
983.2646	2565.3977	1735.45	848.55
983.3908	2566.7035	1736.7	848.2
983.517	2568.0086	1726.75	836.1
983.6432	2569.313	1732.8	842.6
983.7694	2570.6167	1730.55	838
983.8955	2571.9197	1722.5	833.25
984.0216	2573.222	1724.75	833.95
984.1476	2574.5236	1721.3	831.9
984.2737	2575.8246	1719.25	828.5
984.3996	2577.1248	1718.75	829.6
984.5256	2578.4244	1707.95	819.2
984.6515	2579.7232	1709.25	821.5
984.7774	2581.0214	1738	818.1
984.9032	2582.3189	1707.2	819.7
985.029	2583.6157	1703.5	810.1
985.1548	2584.9118	1697.3	807.75
985.2806	2586.2072	1692.9	804.6
985.4063	2587.5019	1693.4	805.95
985.5319	2588.7959	1695.4	806.9
985.6576	2590.0893	1689.8	800.05
985.7832	2591.3819	1683.7	795.3
985.9087	2592.6739	1684.25	795.25
986.0343	2593.9652	1688.55	798.9
986.1597	2595.2557	1683.7	794.3
986.2852	2596.5456	1680.85	789.45
986.4106	2597.8348	1677.45	791.15
986.536	2599.1234	1673.2	786.8
986.6614	2600.4112	1668.15	779.9
986.7867	2601.6983	1675.7	785.45
986.912	2602.9848	1668.6	779.2
987.0372	2604.2705	1674.85	779.85
987.1624	2605.5556	1666.15	777.55
987.2876	2606.84	1663.35	774.45
987.4128	2608.1237	1661.5	771
987.5379	2609.4067	1649.1	761.25
987.6629	2610.689	1652	755.05
987.788	2611.9707	1646.1	752.7
987.913	2613.2516	1640.35	749.6
988.0379	2614.5319	1628.35	740.2
988.1629	2615.8115	1638.55	750.4
988.2878	2617.0903	1627.85	737.25
988.4126	2618.3685	1623.55	738.25
988.5375	2619.6461	1625.55	738.6
988.6622	2620.9229	1622.2	734.8
988.787	2622.199	1623.9	736.45
988.9117	2623.4745	1610.35	720.3
989.0364	2624.7493	1618.75	732.75
989.161	2626.0234	1611.85	726.15
989.2857	2627.2968	1613.95	728.6
989.4102	2628.5695	1601.45	711.4
989.5348	2629.8415	1606.05	719.6
989.6593	2631.1128	1595.1	706.5
989.7837	2632.3835	1599.45	711.85
989.9082	2633.6535	1593.5	704.95
990.0326	2634.9228	1588.75	701.05
990.1569	2636.1914	1584.2	697.85
990.2812	2637.4593	1594.05	705.35
990.4055	2638.7265	1585.2	696.05
990.5298	2639.9931	1586.55	698.85
990.654	2641.259	1577.75	688.8
990.7782	2642.5242	1581.85	693.8
990.9023	2643.7887	1577.7	689.7
991.0264	2645.0525	1569.35	683.05
991.1505	2646.3156	1585	683.75
991.2745	2647.5781	1566.35	679.55
991.3985	2648.8398	1563.95	676.45
991.5225	2650.1009	1580.6	669.7
991.6464	2651.3613	1563.65	675.85
991.7703	2652.6211	1552.4	665.7
991.8942	2653.8801	1560.95	676.1
992.018	2655.1385	1551.5	661.95
992.1418	2656.3961	1554.5	668.55
992.2655	2657.6531	1550.6	662.45
992.3892	2658.9094	1549.2	662.3
992.5129	2660.1651	1546.8	661.7
992.6366	2661.42	1548.05	661.05
992.7602	2662.6743	1534.3	644.95
992.8837	2663.9279	1540.4	653.65
993.0073	2665.1808	1544.45	656.2
993.1307	2666.433	1546.85	658.55
993.2542	2667.6846	1535.1	646.1
993.3776	2668.9354	1534.45	644.95
993.501	2670.1856	1536.15	648.2
993.6244	2671.4351	1535.45	649
993.7477	2672.6839	1528.5	641.25
993.8709	2673.9321	1530	643.85
993.9942	2675.1795	1521.9	634.7
994.1174	2676.4263	1529.05	640.65
994.2405	2677.6724	1525.7	640.75
994.3637	2678.9179	1521.6	634.35
994.4868	2680.1626	1527.45	640.65
994.6098	2681.4067	1527.8	641.15
994.7328	2682.6501	1519.95	631.95
994.8558	2683.8928	1517.3	628.7
994.9788	2685.1348	1509.7	623.9
995.1017	2686.3761	1503.25	617.2
995.2245	2687.6168	1502.75	616.6
995.3474	2688.8568	1498.6	611.2
995.4702	2690.0961	1495.05	608.35
995.5929	2691.3348	1499.6	613
995.7156	2692.5727	1495.9	607.2
995.8383	2693.81	1493.75	607.25
995.961	2695.0466	1494.4	607.9
996.0836	2696.2826	1491.7	603
996.2062	2697.5178	1486.65	596.05
996.3287	2698.7524	1486.9	598.45
996.4512	2699.9863	1487.95	599.7
996.5737	2701.2195	1480.7	594.6
996.6961	2702.452	1481.9	596.3
996.8185	2703.6839	1476.6	586.6
996.9408	2704.9151	1477.1	591.8
997.0631	2706.1456	1476.25	588.85
997.1854	2707.3755	1482.35	596.3
997.3077	2708.6046	1483.4	593.4
997.4299	2709.8331	1475.7	587.9
997.552	2711.0609	1473.45	585.6
997.6742	2712.2881	1478.1	591.9
997.7963	2713.5145	1473.4	584.55
997.9183	2714.7403	1467.1	581.25
998.0403	2715.9654	1469.95	582.95
998.1623	2717.1899	1493.4	591.9
998.2842	2718.4136	1477.45	590.7
998.4062	2719.6367	1471.25	586.55
998.528	2720.8591	1476.85	582.2
998.6498	2722.0809	1478.55	591.6
998.7716	2723.3019	1480.15	591.6
998.8934	2724.5223	1477.95	587.75
999.0151	2725.7421	1478.5	592.55
999.1368	2726.9611	1478.1	590.1
999.2584	2728.1795	1477.4	586.65
999.38	2729.3972	1467.9	582.05
999.5016	2730.6142	1474.75	585
999.6231	2731.8306	1460.75	569.95
999.7446	2733.0462	1454.7	567.25
999.8661	2734.2612	1450.2	557.25
999.9875	2735.4756	1438.6	550.05
1000.1089	2736.6892	1441.3	553.65
1000.2302	2737.9022	1433.55	549.45
1000.3515	2739.1145	1433.8	547.8
1000.4728	2740.3262	1435.7	540.4
1000.594	2741.5372	1422.7	537.15
1000.7152	2742.7475	1419.75	531.6
1000.8363	2743.9571	1418.4	531.15
1000.9575	2745.1661	1414.45	522.15
1001.0785	2746.3744	1407.85	519.2
1001.1996	2747.582	1402.7	516.55
1001.3206	2748.7889	1395.2	508.35
1001.4415	2749.9952	1400.85	514.95
1001.5625	2751.2008	1390.45	501.35
1001.6833	2752.4057	1394.95	503.05
1001.8042	2753.61	1392.75	505.75
1001.925	2754.8136	1387.2	498.65
1002.0458	2756.0165	1384.65	499.5
1002.1665	2757.2188	1385.25	498.3
1002.2872	2758.4204	1373.55	486.95
1002.4078	2759.6213	1374.65	486.15
1002.5285	2760.8215	1382.05	491.9
1002.649	2762.0211	1377.85	489.05
1002.7696	2763.22	1378.1	489.7
1002.8901	2764.4182	1378.25	490.1
1003.0106	2765.6158	1367.1	480.6
1003.131	2766.8127	1360.1	472.05
1003.2514	2768.009	1367.95	479.65
1003.3717	2769.2045	1361.05	474.7
1003.492	2770.3994	1367.8	478.9
1003.6123	2771.5936	1363.3	476.1
1003.7325	2772.7872	1360.4	474.6
1003.8527	2773.9801	1356.75	469.4
1003.9729	2775.1723	1369.4	466.5
1004.093	2776.3639	1351.15	465.65
1004.2131	2777.5548	1346.35	458.7
1004.3331	2778.745	1346.8	459.05
1004.4531	2779.9346	1348.8	463.55
1004.5731	2781.1235	1351.6	465.2
1004.693	2782.3117	1350	463.85
1004.8129	2783.4992	1342.65	456.4
1004.9328	2784.6861	1346.05	459.85
1005.0526	2785.8723	1344.6	458.15
1005.1723	2787.0579	1342.35	454.65
1005.2921	2788.2428	1341.3	456
1005.4118	2789.427	1334.85	449.05
1005.5314	2790.6106	1339.45	452.55
1005.651	2791.7935	1338.25	450.05
1005.7706	2792.9757	1341.5	457.5
1005.8902	2794.1573	1343.45	455.45
1006.0097	2795.3382	1335.85	449.55
1006.1291	2796.5184	1338.2	452.5
1006.2485	2797.698	1336.6	449.8
1006.3679	2798.8769	1339.35	454.15
1006.4873	2800.0551	1341.25	453.05
1006.6066	2801.2327	1347.45	457.3
1006.7258	2802.4096	1340.55	456.3
1006.8451	2803.5859	1343.5	456.65
1006.9642	2804.7615	1349.55	463.6
1007.0834	2805.9364	1352.05	468.8
1007.2025	2807.1106	1349.65	465.15
1007.3216	2808.2842	1354.2	468.1
1007.4406	2809.4572	1358	472.2
1007.5596	2810.6294	1362.45	474.15
1007.6785	2811.801	1370.05	484.65
1007.7975	2812.972	1374.6	488.45
1007.9163	2814.1423	1383.2	498.05
1008.0352	2815.3119	1391.75	506.7
1008.154	2816.4808	1404.8	522.3
1008.2727	2817.6491	1415.25	526.3
1008.3914	2818.8167	1418.65	536.25
1008.5101	2819.9837	1434.4	544.4
1008.6288	2821.15	1445.35	558.9
1008.7474	2822.3157	1451.45	567.15
1008.8659	2823.4807	1459.8	573.7
1008.9844	2824.645	1482.1	593.1
1009.1029	2825.8086	1480.1	596.1
1009.2214	2826.9716	1502.1	617.15
1009.3398	2828.134	1516.55	631.75
1009.4581	2829.2957	1522.5	636.35
1009.5764	2830.4567	1526.55	640.65
1009.6947	2831.617	1530.1	643.45
1009.813	2832.7767	1541.9	655.4
1009.9312	2833.9358	1537.5	651.2
1010.0493	2835.0941	1535.9	648.4
1010.1675	2836.2519	1526.2	641.15
1010.2855	2837.4089	1528.85	641.95
1010.4036	2838.5653	1519.65	634.75
1010.5216	2839.7211	1513.6	630.75
1010.6396	2840.8761	1510.6	623.55
1010.7575	2842.0306	1508.65	623.85
1010.8754	2843.1843	1519.75	634.75
1010.9932	2844.3374	1524.45	638.75
1011.111	2845.4899	1527.85	642.4
1011.2288	2846.6417	1542.05	656.9
1011.3465	2847.7928	1555.75	668.35
1011.4642	2848.9433	1565.1	679.65
1011.5818	2850.0931	1574.65	690
1011.6995	2851.2422	1579.8	692.15
1011.817	2852.3907	1598.45	708.75
1011.9345	2853.5385	1616.9	729.85
1012.052	2854.6857	1626.7	732.25
1012.1695	2855.8323	1632.25	747.7
1012.2869	2856.9781	1634.7	750.45
1012.4042	2858.1233	1646.65	762.05
1012.5216	2859.2679	1654.4	768.55
1012.6389	2860.4118	1658.55	772.45
1012.7561	2861.555	1677.85	787.4
1012.8733	2862.6976	1684.05	797.3
1012.9905	2863.8395	1688.05	803.8
1013.1076	2864.9808	1691.4	807.05
1013.2247	2866.1214	1692.15	809.25
1013.3417	2867.2614	1706.6	822.75
1013.4587	2868.4007	1702.7	816.4
1013.5757	2869.5393	1708.55	820.6
1013.6926	2870.6773	1707.15	819.65
1013.8095	2871.8146	1717.4	828.8
1013.9263	2872.9513	1709	818.3
1014.0431	2874.0874	1701.85	816.85
1014.1599	2875.2227	1701.05	816.5
1014.2766	2876.3574	1692.7	807.3
1014.3933	2877.4915	1687.2	800.75
1014.51	2878.6249	1678	794.5
1014.6266	2879.7577	1680.05	793.35
1014.7431	2880.8898	1685.6	789
1014.8596	2882.0212	1674.75	788.3
1014.9761	2883.152	1671.65	784.75
1015.0925	2884.2821	1660.7	774.8
1015.2089	2885.4116	1662.1	779.7
1015.3253	2886.5405	1666.8	782.9
1015.4416	2887.6686	1671.85	782.7
1015.5579	2888.7962	1663.95	779.9
1015.6741	2889.923	1664.15	780.25
1015.7903	2891.0493	1664.1	780.3
1015.9065	2892.1748	1663.9	780.35
1016.0226	2893.2997	1672.3	785.5
1016.1387	2894.424	1672.25	789.95
1016.2547	2895.5476	1675.15	789.2
1016.3707	2896.6706	1678.85	795.95
1016.4866	2897.7929	1686.7	800.05
1016.6025	2898.9145	1687.05	802.7
1016.7184	2900.0355	1688	802.1
1016.8342	2901.1559	1694.7	809.15
1016.95	2902.2756	1689.8	805.25
1017.0658	2903.3946	1700.9	814.15
1017.1815	2904.513	1710.75	824.3
1017.2971	2905.6308	1701.35	816.3
1017.4127	2906.7479	1712.2	826.2
1017.5283	2907.8643	1716.5	831.75
1017.6439	2908.9801	1713.25	827.45
1017.7594	2910.0953	1711.8	829.9
1017.8748	2911.2098	1716.75	829
1017.9902	2912.3236	1717.65	824.85
1018.1056	2913.4368	1718.85	830.6
1018.2209	2914.5494	1698.05	813.5
1018.3362	2915.6613	1698.75	808
1018.4515	2916.7725	1687.8	801.05
1018.5667	2917.8831	1680.7	794.9
1018.6819	2918.9931	1671.85	786.25
1018.797	2920.1024	1654.05	767.85
1018.9121	2921.211	1652.8	767.95
1019.0271	2922.319	1658.5	773.2
1019.1421	2923.4264	1647.7	763.25
1019.2571	2924.5331	1641.2	758.05
1019.372	2925.6391	1641.2	757.3
1019.4869	2926.7445	1644.2	761.9
1019.6017	2927.8493	1645.5	760.2
1019.7165	2928.9534	1641.7	756.15
1019.8313	2930.0569	1640.5	753
1019.946	2931.1597	1639.75	754.8
1020.0606	2932.2619	1633.1	747.5
1020.1753	2933.3634	1633.95	751.4
1020.2899	2934.4643	1647.2	755.9
1020.4044	2935.5645	1640.2	750.2
1020.5189	2936.6641	1641.3	751.95
1020.6334	2937.763	1624.9	740.55
1020.7478	2938.8613	1620.5	734.45
1020.8622	2939.959	1612.75	723.45
1020.9765	2941.056	1601.05	718.45
1021.0908	2942.1523	1579.15	693.15
1021.2051	2943.248	1571.95	686.3
1021.3193	2944.3431	1541	656.35
1021.4334	2945.4375	1527.2	642.15
1021.5476	2946.5313	1492.7	609.35
1021.6617	2947.6244	1475.6	589.45
1021.7757	2948.7169	1458.55	573.15
1021.8897	2949.8087	1438.3	553.5
1022.0037	2950.8999	1417.85	533.75
1022.1176	2951.9904	1401.8	517.65
1022.2315	2953.0803	1380.9	495.55
1022.3453	2954.1696	1369.1	484.7
1022.4591	2955.2582	1358.25	475.85
1022.5728	2956.3462	1349.5	465.2
1022.6865	2957.4335	1336.3	449.5
1022.8002	2958.5202	1331.75	446.7
1022.9138	2959.6062	1329.05	443.8
1023.0274	2960.6916	1318.05	434.2
1023.141	2961.7764	1319.3	433.95
1023.2545	2962.8605	1319.05	433
1023.3679	2963.9439	1305.6	422.1
1023.4813	2965.0267	1303.05	416.6
1023.5947	2966.1089	1323.75	418.05
1023.708	2967.1905	1294.85	408.95
1023.8213	2968.2714	1296.7	411.9
1023.9346	2969.3516	1297.15	414
1024.0478	2970.4312	1305.95	414.2
1024.1609	2971.5102	1299.15	413.55
1024.274	2972.5885	1297.8	413.85
1024.3871	2973.6662	1307.1	417.1
1024.5002	2974.7432	1297.45	413.7
1024.6132	2975.8196	1293.9	411.55
1024.7261	2976.8954	1299.4	416.8
1024.839	2977.9705	1293.7	409.6
1024.9519	2979.045	1291.4	409.3
1025.0647	2980.1188	1284.35	402.6
1025.1775	2981.192	1283.1	399.95
1025.2902	2982.2645	1279.35	393.15
1025.4029	2983.3364	1270.2	386.05
1025.5156	2984.4077	1264.55	379.4
1025.6282	2985.4783	1265.85	374.8
1025.7407	2986.5483	1251.25	366.15
1025.8532	2987.6177	1246.95	362.25
1025.9657	2988.6864	1234.7	351.5
1026.0782	2989.7545	1230.8	346.55
1026.1906	2990.8219	1218.4	334.75
1026.3029	2991.8887	1210.9	326.5
1026.4152	2992.9548	1202.45	316.35
1026.5275	2994.0204	1193.65	309.35
1026.6397	2995.0852	1188	303.65
1026.7519	2996.1495	1180.25	295.85
1026.864	2997.2131	1177.25	292
1026.9761	2998.276	1174.3	287.85
1027.0882	2999.3383	1160.45	277.4
1027.2002	3000.4	1156.35	271.35
1027.3122	3001.4611	1151.9	266.7
1027.4241	3002.5215	1149.95	264.7
1027.536	3003.5812	1149.55	265.4
1027.6478	3004.6404	1140.8	256.75
1027.7596	3005.6989	1138.2	251.3
1027.8714	3006.7567	1133.5	250
1027.9831	3007.8139	1148.9	246.1
1028.0947	3008.8705	1124.5	239.1
1028.2064	3009.9264	1142.15	241.65
1028.3179	3010.9818	1122.85	239.25
1028.4295	3012.0364	1117.8	234.3
1028.541	3013.0905	1122.3	239.05
1028.6524	3014.1439	1114.45	229.85
1028.7638	3015.1966	1113.3	231.35
1028.8752	3016.2487	1114.7	228.7
1028.9865	3017.3002	1116.8	228.75
1029.0978	3018.3511	1111.2	227.5
1029.209	3019.4013	1110.7	225.85
1029.3202	3020.4509	1108.2	225.4
1029.4314	3021.4998	1102.6	216.7
1029.5425	3022.5481	1107	222.65
1029.6535	3023.5958	1106.05	222
1029.7645	3024.6428	1104.15	215.8
1029.8755	3025.6892	1103.65	220.2
1029.9864	3026.735	1103.05	217.3
1030.0973	3027.7802	1101.65	217.2
1030.2082	3028.8247	1099.45	215.55
1030.319	3029.8685	1098.2	215.7
1030.4297	3030.9118	1100.05	216.75
1030.5404	3031.9544	1098.75	215.15
1030.6511	3032.9963	1093.75	209.65
1030.7617	3034.0376	1095.4	212.55
1030.8723	3035.0783	1102.75	214.7
1030.9829	3036.1184	1098.3	215.5
1031.0934	3037.1578	1094.15	209.5
1031.2038	3038.1966	1098.75	213.75
1031.3142	3039.2348	1098.05	214.15
1031.4246	3040.2723	1104.45	213.05
1031.5349	3041.3092	1096.6	214.55
1031.6452	3042.3455	1096.45	212.2
1031.7554	3043.3811	1099.75	215.7
1031.8656	3044.4161	1096.85	210.35
1031.9758	3045.4505	1091.8	207.45
1032.0859	3046.4842	1093.75	209.45
1032.1959	3047.5173	1093.55	210.95
1032.3059	3048.5498	1091.35	207.9
1032.4159	3049.5816	1090.95	208.05
1032.5258	3050.6128	1088.65	202.4
1032.6357	3051.6434	1086.95	202.4
1032.7455	3052.6734	1088.5	204.1
1032.8553	3053.7027	1084.65	200.9
1032.9651	3054.7314	1080.5	197.55
1033.0748	3055.7594	1081.9	197.4
1033.1845	3056.7868	1087.95	202.55
1033.2941	3057.8136	1082.35	199.75
1033.4037	3058.8398	1079.55	195.05
1033.5132	3059.8653	1070.15	187.65
1033.6227	3060.8902	1077.55	193.95
1033.7321	3061.9145	1077.2	192.85
1033.8415	3062.9381	1076.5	193.25
1033.9509	3063.9612	1096.05	197.2
1034.0602	3064.9835	1077.6	193.65
1034.1694	3066.0053	1075.4	188.65
1034.2787	3067.0264	1073	188.45
1034.3878	3068.0469	1076.25	190.45
1034.497	3069.0668	1071	185.7
1034.6061	3070.086	1066.9	184
1034.7151	3071.1046	1074.35	189.75
1034.8241	3072.1226	1067.95	185.3
1034.9331	3073.1399	1065.45	183.4
1035.042	3074.1567	1063	177.1
1035.1508	3075.1727	1059.65	175.6
1035.2597	3076.1882	1056.25	172
1035.3684	3077.203	1054.9	170.65
1035.4772	3078.2173	1052.4	167.3
1035.5859	3079.2308	1057.55	168.95
1035.6945	3080.2438	1049.05	163.2
1035.8031	3081.2561	1047.7	163.6
1035.9117	3082.2678	1048.65	164.35
1036.0202	3083.2789	1047.2	164.2
1036.1286	3084.2893	1041.25	156
1036.2371	3085.2991	1045.05	161.75
1036.3454	3086.3083	1048.65	159.65
1036.4538	3087.3169	1042.9	157.45
1036.562	3088.3248	1038.95	154.55
1036.6703	3089.3321	1034.6	149.95
1036.7785	3090.3388	1033	153.15
1036.8866	3091.3449	1031.65	146.95
1036.9948	3092.3503	1035.75	150.65
1037.1028	3093.3551	1027.8	146.3
1037.2108	3094.3593	1031.15	148
1037.3188	3095.3629	1027.6	144.8
1037.4267	3096.3658	1028.85	145.25
1037.5346	3097.3681	1028.3	145.65
1037.6425	3098.3698	1027.6	142.6
1037.7503	3099.3708	1029.6	139.2
1037.858	3100.3713	1020.55	137.45
1037.9657	3101.3711	1022.45	137.1
1038.0734	3102.3702	1163	138.05
1038.181	3103.3688	1023.35	137.7
1038.2886	3104.3667	1017.25	134.55
1038.3961	3105.364	1016.7	134.1
1038.5036	3106.3607	1015.15	127.6
1038.611	3107.3568	1018.05	133.7
1038.7184	3108.3522	1015	132.85
1038.8257	3109.347	1016.85	132.2
1038.933	3110.3412	1015.65	129.05
1039.0403	3111.3348	1013.35	131.35
1039.1475	3112.3277	1007.05	125.15
1039.2547	3113.32	1010.8	129.6
1039.3618	3114.3117	1013	128.25
1039.4689	3115.3028	1008.5	125.35
1039.5759	3116.2932	1008.95	124.45
1039.6829	3117.2831	1010.7	121.8
1039.7898	3118.2723	1005.55	121.65
1039.8967	3119.2608	1003.65	119.75
1040.0035	3120.2488	1002.75	118.2
1040.1103	3121.2361	1000.95	116.75
1040.2171	3122.2229	1001.4	118.05
1040.3238	3123.209	1001.85	119.55
1040.4305	3124.1944	1001.9	120.15
1040.5371	3125.1793	1002.85	119.5
1040.6437	3126.1635	999.75	117.65
1040.7502	3127.1471	998.2	115.3
1040.8567	3128.1301	997.8	115
1040.9631	3129.1125	996.9	113.95
1041.0695	3130.0942	992.95	107.5
1041.1759	3131.0753	1003.65	114.05
1041.2822	3132.0558	999.9	109.65
1041.3884	3133.0357	997.85	111.55
1041.4946	3134.015	997.65	114.65
1041.6008	3134.9936	991.7	106.8
1041.7069	3135.9716	1014.75	111.9
1041.813	3136.949	992.4	107.85
1041.919	3137.9258	1013.2	112.15
1042.025	3138.902	998.7	110.7
1042.1309	3139.8775	992.15	110
1042.2368	3140.8524	988.35	106.55
1042.3427	3141.8267	992.95	106.5
1042.4485	3142.8004	992.3	108.55
1042.5542	3143.7735	996.2	105.2
1042.6599	3144.7459	985.4	97.95
1042.7656	3145.7178	988.85	105.4
1042.8712	3146.689	985.1	102.95
1042.9768	3147.6596	984.65	100.4
1043.0823	3148.6295	987.25	103.1
1043.1878	3149.5989	985.25	102.05
1043.2932	3150.5676	985.1	104.45
1043.3986	3151.5357	983.5	100.6
1043.5039	3152.5032	983.85	101.3
1043.6092	3153.4701	982.25	99.55
1043.7145	3154.4364	985.2	99.8
1043.8197	3155.402	980.75	98.55
1043.9248	3156.367	982.6	95.7
1044.03	3157.3315	1008.5	101.4
1044.135	3158.2952	977.75	96.1
1044.24	3159.2584	980.35	96.5
1044.345	3160.221	978.6	93.35
1044.4499	3161.1829	978.25	93.85
1044.5548	3162.1442	974.55	90.3
1044.6596	3163.105	977.95	93.3
1044.7644	3164.065	980.85	96.25
1044.8692	3165.0245	975.45	90.6
1044.9739	3165.9834	973.4	90.1
1045.0785	3166.9416	976	92.75
1045.1831	3167.8993	972.5	89.6
1045.2877	3168.8563	975.65	91.65
1045.3922	3169.8127	973	91.4
1045.4966	3170.7684	972.2	90.05
1045.6011	3171.7236	976.5	90.7
1045.7054	3172.6782	971.85	88.15
1045.8098	3173.6321	972.8	88
1045.914	3174.5854	971	84.8
1046.0183	3175.5381	969.55	86.15
1046.1224	3176.4902	970	87.15
1046.2266	3177.4417	968.65	87.25
1046.3307	3178.3926	969.4	86.3
1046.4347	3179.3428	964.65	83
1046.5387	3180.2924	972.1	89.95
1046.6427	3181.2415	969.6	87.35
1046.7466	3182.1899	970.05	84.6
1046.8504	3183.1377	964.6	80
1046.9542	3184.0848	969.4	82.4
1047.058	3185.0314	964	77.15
1047.1617	3185.9773	967.4	81.85
1047.2654	3186.9227	967.25	80.5
1047.369	3187.8674	965.95	80.75
1047.4726	3188.8115	967.85	81.15
1047.5761	3189.755	964.5	81.15
1047.6796	3190.6979	963.75	79.3
1047.783	3191.6402	966.25	86.8
1047.8864	3192.5818	963.25	80.35
1047.9898	3193.5229	966.9	78.4
1048.0931	3194.4633	958.95	76.95
1048.1963	3195.4031	960.8	77.3
1048.2995	3196.3423	960.65	78.35
1048.4027	3197.2809	963.8	78.55
1048.5058	3198.2189	960	75.9
1048.6089	3199.1563	966.1	76.6
1048.7119	3200.0931	957	75.4
1048.8148	3201.0292	956.95	74.85
1048.9178	3201.9648	958	74.85
1049.0206	3202.8997	963.5	77.9
1049.1235	3203.834	956.5	70.9
1049.2262	3204.7677	957.65	73.35
1049.329	3205.7008	957.8	73.6
1049.4317	3206.6333	954.45	72.35
1049.5343	3207.5652	958.85	70.9
1049.6369	3208.4964	955.25	74.5
1049.7394	3209.4271	953.35	69.4
1049.8419	3210.3571	952.15	69
1049.9444	3211.2865	956.85	70.8
1050.0468	3212.2154	954	70.2
1050.1491	3213.1436	955.95	71.75
1050.2514	3214.0712	960.7	70.25
1050.3537	3214.9982	953.7	72.45
1050.4559	3215.9246	950.8	67.6
1050.5581	3216.8503	953.1	70.35
1050.6602	3217.7755	954.15	70.2
1050.7623	3218.7001	955.35	70.95
1050.8643	3219.624	952.75	67.85
1050.9663	3220.5473	953.25	70.05
1051.0682	3221.4701	951.6	68.4
1051.1701	3222.3922	951.25	67.3
1051.2719	3223.3137	950.4	67.95
1051.3737	3224.2346	948.95	65.45
1051.4754	3225.1549	948.15	64.6
1051.5771	3226.0746	945	62.3
1051.6788	3226.9937	949.65	64.8
1051.7804	3227.9121	945.25	62.65
1051.8819	3228.83	947.5	64.3
1051.9834	3229.7473	948.9	66.3
1052.0849	3230.6639	946.2	64.45
1052.1863	3231.5799	946.55	63.45
1052.2876	3232.4954	948.95	63.8
1052.3889	3233.4102	946.8	63.95
1052.4902	3234.3244	947.7	64.6
1052.5914	3235.238	943	59.35
1052.6926	3236.151	968.65	58.9
1052.7937	3237.0634	944.9	62
1052.8948	3237.9752	943.15	60.85
1052.9958	3238.8864	944.05	62.6
1053.0968	3239.797	940.95	58.4
1053.1977	3240.7069	942.3	59.8
1053.2986	3241.6163	939.3	55.05
1053.3994	3242.5251	940.5	59
1053.5002	3243.4332	941.15	56.9
1053.6009	3244.3408	942.5	57.45
1053.7016	3245.2477	937.8	55
1053.8022	3246.154	941.05	56.7
1053.9028	3247.0598	940.9	56.25
1054.0034	3247.9649	938.4	56.35
1054.1039	3248.8694	938.8	56.1
1054.2043	3249.7733	940.4	55.75
1054.3047	3250.6766	938.1	55.25
1054.4051	3251.5793	938.95	53.55
1054.5054	3252.4814	937.1	54.8
1054.6056	3253.3829	937.5	54.45
1054.7058	3254.2838	936.75	53.7
1054.806	3255.1841	936.9	53.3
1054.9061	3256.0838	935.7	54.05
1055.0061	3256.9829	934.25	52.7
1055.1062	3257.8814	937.85	51.3
1055.2061	3258.7792	939.65	55.25
1055.306	3259.6765	932.85	51.15
1055.4059	3260.5731	931.8	48.85
1055.5057	3261.4692	936.75	54.65
1055.6055	3262.3647	933.7	52.15
1055.7052	3263.2595	933.5	50.85
1055.8049	3264.1538	928.3	45.65
1055.9045	3265.0474	933.1	48.15
1056.0041	3265.9404	927.2	43.05
1056.1036	3266.8329	929.3	45.5
1056.2031	3267.7247	938.3	46.55
1056.3025	3268.616	924.7	42.25
1056.4019	3269.5066	928.1	45.2
1056.5013	3270.3966	927.6	43.85
1056.6005	3271.286	923.2	42.4
