Software Version:	3.9.2.0
Unit SN:	10000200
Spectrometer SN:	6960
Date:	3/26/2024 2:37:16 PM
Data Line Index:	25
Spectral Points:	2048
Integration time (ms):	125
Averages:	20
Delay (ms):	30000
Sequence Number:	1
Processing:	dark subtract
Laser Power (mW):	300
Laser Current (mA):	821
Laser Diode Temp (C):	25
Laser Case Temp (C):	27.9
System Temp (C):	27.9
Spectrometer Temp (C):	25.9
CCD Temp (C):	0
Secondary Temp (C):	20.01
Heatsink Temp (C):	23.685
CCDPCB Temp (C):	37.285
SecondaryPCB Temp (C):	34.717

Wavelength	RamanShift	Raw Counts	Dark Subtracted
787.061	30.1047	656.85	244.5
787.2016	32.3739	664.4	253.05
787.3422	34.6426	680.05	267.65
787.4828	36.9109	699.3	284.75
787.6235	39.1787	721.55	303.95
787.7642	41.4461	747.95	327.1
787.9049	43.7131	769.85	345.55
788.0456	45.9796	795.5	367.2
788.1863	48.2456	824.7	392.6
788.3271	50.5112	853.2	416.25
788.4679	52.7764	881.3	444.45
788.6087	55.0411	905.75	464.45
788.7496	57.3054	947.45	501.55
788.8904	59.5692	978.9	531.85
789.0313	61.8326	1018.7	565.7
789.1722	64.0955	1050.65	593.35
789.3132	66.3579	1108.55	646.1
789.4541	68.6199	1169.95	704.7
789.5951	70.8815	1267.15	800.05
789.7361	73.1426	1476.15	1003
789.8771	75.4032	2017.55	1538.35
790.0181	77.6634	3326.05	2841.65
790.1592	79.9231	6620.1	6128
790.3003	82.1824	14299.45	13791.2
790.4414	84.4412	32648.6	32104.9
790.5825	86.6995	60708.75	60121.5
790.7237	88.9574	65535	64906.9
790.8648	91.2148	65535	64876
791.006	93.4717	65535	64857.15
791.1472	95.7282	65535	64843.9
791.2885	97.9842	65535	64842.1
791.4297	100.2398	65535	64835.35
791.571	102.4949	65535	64834.65
791.7123	104.7495	65535	64835.45
791.8536	107.0036	65535	64831.3
791.9949	109.2573	65535	64830.75
792.1363	111.5105	65535	64828.15
792.2777	113.7632	65535	64825.75
792.4191	116.0154	65535	64817.2
792.5605	118.2672	65535	64827.15
792.7019	120.5185	65535	64825.65
792.8434	122.7693	65535	64822.55
792.9849	125.0197	65535	64821.8
793.1264	127.2696	65535	64816.65
793.2679	129.519	65535	64812.3
793.4094	131.7679	65535	64806.6
793.551	134.0163	65535	64803.2
793.6926	136.2642	65535	64801.8
793.8342	138.5117	65535	64792.8
793.9758	140.7587	65535	64793.55
794.1175	143.0052	65535	64789.5
794.2591	145.2512	65535	64792.3
794.4008	147.4967	65535	64792.3
794.5425	149.7417	65535	64798.35
794.6842	151.9863	65535	64787.7
794.826	154.2304	65535	64782.15
794.9677	156.4739	65535	64778.2
795.1095	158.717	65535	64776.3
795.2513	160.9596	65535	64772.65
795.3931	163.2017	65535	64776
795.535	165.4433	65535	64765.8
795.6768	167.6844	65535	64769.55
795.8187	169.925	65535	64773.45
795.9606	172.1651	65535	64766.3
796.1025	174.4047	65535	64760.95
796.2445	176.6439	65535	64764.8
796.3864	178.8825	65535	64761.5
796.5284	181.1206	65535	64755.9
796.6704	183.3582	65535	64746.95
796.8124	185.5954	65535	64749.55
796.9544	187.832	65535	64744.8
797.0965	190.0681	65535	64741.55
797.2386	192.3037	65535	64740.85
797.3806	194.5388	65535	64734.9
797.5228	196.7734	65535	64735.3
797.6649	199.0075	65535	64726.65
797.807	201.2411	65535	64722
797.9492	203.4742	65535	64726.85
798.0914	205.7068	65535	64727.6
798.2336	207.9389	65535	64727.2
798.3758	210.1704	65535	64722.9
798.518	212.4015	65535	64715.75
798.6603	214.632	65535	64718.8
798.8025	216.862	65535	64730.1
798.9448	219.0915	65535	64740
799.0871	221.3205	65535	64738.75
799.2294	223.549	65535	64741.9
799.3718	225.777	65535	64743.85
799.5141	228.0044	65535	64737.4
799.6565	230.2314	65535	64747.05
799.7989	232.4578	65535	64736.45
799.9413	234.6837	65535	64738.2
800.0837	236.909	65535	64728.3
800.2262	239.1339	65535	64703.4
800.3687	241.3582	65535	64721.35
800.5111	243.582	65535	64695.5
800.6536	245.8053	65535	64701.25
800.7961	248.0281	65535	64707.45
800.9387	250.2503	65535	64699.95
801.0812	252.472	65535	64697.5
801.2238	254.6932	65535	64699.5
801.3664	256.9139	65535	64695.4
801.509	259.134	65535	64695.7
801.6516	261.3536	65535	64693.1
801.7942	263.5727	65535	64689.1
801.9369	265.7912	65535	64695.95
802.0795	268.0092	65535	64693.7
802.2222	270.2267	65535	64693.85
802.3649	272.4436	65535	64693.65
802.5076	274.6601	65535	64682.85
802.6504	276.8759	65535	64690.65
802.7931	279.0913	65535	64686.45
802.9359	281.3061	65535	64683.15
803.0787	283.5204	65535	64681.8
803.2215	285.7341	65535	64675.55
803.3643	287.9473	65535	64667.8
803.5071	290.16	65535	64674.85
803.6499	292.3721	65535	64680.5
803.7928	294.5837	65535	64672.65
803.9357	296.7947	65535	64677
804.0786	299.0052	65535	64673.95
804.2215	301.2152	65535	64674.75
804.3644	303.4246	65535	64680.65
804.5074	305.6334	65535	64684.6
804.6503	307.8418	65535	64677.35
804.7933	310.0495	65535	64676.15
804.9363	312.2568	65535	64676
805.0793	314.4635	65535	64669.35
805.2223	316.6696	65535	64674.75
805.3653	318.8752	65535	64660.7
805.5084	321.0802	65535	64671.25
805.6514	323.2847	65535	64664.7
805.7945	325.4887	65535	64668.75
805.9376	327.692	65535	64667.85
806.0807	329.8949	65535	64666.5
806.2238	332.0972	65535	64665.8
806.367	334.2989	65535	64658.75
806.5101	336.5001	65535	64662.8
806.6533	338.7007	65535	64661.8
806.7965	340.9008	65535	64659.85
806.9397	343.1003	65535	64660.3
807.0829	345.2992	65535	64659.85
807.2261	347.4976	65535	64655.4
807.3693	349.6955	65535	64650.05
807.5126	351.8927	65535	64648.2
807.6559	354.0895	65535	64643.05
807.7991	356.2856	65535	64646
807.9424	358.4812	65535	64652
808.0857	360.6763	65535	64653.55
808.2291	362.8707	65535	64648.75
808.3724	365.0646	65535	64649.3
808.5158	367.258	65535	64646.8
808.6591	369.4508	65535	64643.05
808.8025	371.643	65535	64643.9
808.9459	373.8346	65535	64639.45
809.0893	376.0257	65535	64637.75
809.2327	378.2162	65535	64641.65
809.3762	380.4062	65535	64639.3
809.5196	382.5956	65535	64636.2
809.6631	384.7844	65535	64639.85
809.8066	386.9726	65535	64639.15
809.9501	389.1603	65535	64640.5
810.0936	391.3474	65535	64598.05
810.2371	393.5339	65535	64634.75
810.3806	395.7199	65535	64641.3
810.5241	397.9052	65535	64642.55
810.6677	400.09	65535	64645.2
810.8113	402.2743	65535	64646.7
810.9548	404.4579	65535	64650.5
811.0984	406.641	65535	64644.25
811.2421	408.8235	65535	64645.9
811.3857	411.0054	65535	64647.45
811.5293	413.1868	65535	64642.1
811.673	415.3675	65535	64642.35
811.8166	417.5477	65535	64637.85
811.9603	419.7273	65535	64638.6
812.104	421.9064	65535	64630.6
812.2477	424.0848	65535	64634.25
812.3914	426.2627	65535	64631.2
812.5351	428.4399	65535	64634.8
812.6788	430.6166	65535	64629.45
812.8226	432.7928	65535	64630.4
812.9663	434.9683	65535	64627
813.1101	437.1432	65535	64625.2
813.2539	439.3176	65535	64636.25
813.3977	441.4914	65535	64637.8
813.5415	443.6645	65535	64626.4
813.6853	445.8371	65535	64630.3
813.8291	448.0091	65535	64629.1
813.973	450.1806	65535	64636.5
814.1168	452.3514	65535	64630.55
814.2607	454.5216	65535	64624.1
814.4046	456.6913	65535	64629.15
814.5485	458.8603	65535	64631.65
814.6924	461.0288	65535	64634.85
814.8363	463.1967	65535	64636.25
814.9802	465.3639	65535	64633.65
815.1241	467.5306	65535	64634.9
815.2681	469.6967	65535	64632.6
815.412	471.8622	65535	64632.9
815.556	474.0271	65535	64630.35
815.7	476.1914	65535	64627.25
815.844	478.3551	65535	64625.9
815.988	480.5182	65535	64631.9
816.132	482.6807	65535	64635.2
816.276	484.8426	65535	64642.55
816.4201	487.0039	65535	64637.85
816.5641	489.1647	65535	64629.75
816.7082	491.3248	65535	64626.4
816.8522	493.4843	65535	64632.45
816.9963	495.6432	65535	64636.1
817.1404	497.8015	65535	64619.4
817.2845	499.9592	65535	64624.6
817.4286	502.1163	65535	64622.85
817.5727	504.2728	65535	64626.55
817.7168	506.4287	65535	64637.65
817.861	508.5839	65535	64632.9
818.0051	510.7386	65535	64629.7
818.1493	512.8927	65535	64621
818.2935	515.0461	65535	64622.8
818.4377	517.199	65535	64624.9
818.5818	519.3512	65535	64622.8
818.726	521.5029	65535	64617.1
818.8703	523.6539	65535	64622.1
819.0145	525.8043	65535	64617
819.1587	527.9541	65535	64618.55
819.303	530.1033	65535	64621.15
819.4472	532.2519	65535	64622.1
819.5915	534.3999	65535	64618.55
819.7357	536.5472	65535	64618.6
819.88	538.694	65535	64624.1
820.0243	540.8401	65535	64618.55
820.1686	542.9856	65535	64610.6
820.3129	545.1305	65535	64603.85
820.4572	547.2748	65535	64601.15
820.6016	549.4185	65535	64599.2
820.7459	551.5615	65535	64605.85
820.8902	553.704	65535	64600.95
821.0346	555.8458	65535	64611.75
821.1789	557.987	65535	64612.05
821.3233	560.1276	65535	64605.95
821.4677	562.2675	65535	64607.35
821.6121	564.4069	65535	64613.7
821.7565	566.5456	65535	64608.8
821.9009	568.6837	65535	64613.9
822.0453	570.8212	65535	64612.55
822.1897	572.958	65535	64616.15
822.3342	575.0942	65535	64614.75
822.4786	577.2299	65535	64617.5
822.6231	579.3648	65535	64630.8
822.7675	581.4992	65535	64633.3
822.912	583.6329	65535	64637.4
823.0565	585.766	65535	64630.15
823.201	587.8985	65535	64626.6
823.3454	590.0304	65535	64594.25
823.4899	592.1616	65535	64610.55
823.6345	594.2922	65535	64616
823.779	596.4222	65535	64607.95
823.9235	598.5515	65535	64607.3
824.068	600.6802	65535	64607.05
824.2126	602.8083	65535	64611.6
824.3571	604.9358	65535	64607.85
824.5017	607.0626	65535	64606.85
824.6462	609.1888	65535	64600.65
824.7908	611.3144	65535	64601.05
824.9354	613.4393	65535	64603.45
825.08	615.5636	65535	64604.85
825.2246	617.6873	65535	64605.6
825.3692	619.8103	65535	64600.4
825.5138	621.9327	65535	64607.05
825.6584	624.0544	65535	64614.55
825.803	626.1756	65535	64612.5
825.9477	628.2961	65535	64603.8
826.0923	630.4159	65535	64604.15
826.237	632.5351	65535	64600.8
826.3816	634.6537	65535	64600.6
826.5263	636.7716	65535	64599.45
826.6709	638.8889	65535	64596.2
826.8156	641.0056	65535	64596.05
826.9603	643.1216	65535	64595.55
827.105	645.237	65535	64601.45
827.2497	647.3518	65535	64606.6
827.3944	649.4659	65535	64608.3
827.5391	651.5793	65535	64608.5
827.6838	653.6922	65535	64607.8
827.8285	655.8043	65535	64608.55
827.9733	657.9159	65535	64607.1
828.118	660.0268	65535	64600.6
828.2627	662.137	65535	64605.75
828.4075	664.2466	65535	64595.2
828.5522	666.3556	65535	64597.95
828.697	668.4639	65535	64602.3
828.8418	670.5716	65535	64608.25
828.9865	672.6786	65535	64598.8
829.1313	674.785	65535	64599.65
829.2761	676.8907	65535	64602.3
829.4209	678.9958	65535	64605.45
829.5657	681.1002	65535	64601.35
829.7105	683.204	65535	64591.95
829.8553	685.3072	65535	64595.35
830.0001	687.4097	65535	64596
830.1449	689.5115	65535	64597.5
830.2898	691.6127	65535	64600.3
830.4346	693.7132	65535	64601.7
830.5794	695.8131	65535	64581.25
830.7243	697.9123	65535	64597.1
830.8691	700.0109	65535	64594.6
831.014	702.1089	65535	64597
831.1588	704.2061	65535	64598.15
831.3037	706.3028	65535	64594.5
831.4486	708.3987	65535	64594.65
831.5935	710.4941	65535	64597.65
831.7383	712.5887	65535	64598.45
831.8832	714.6827	65535	64593.05
832.0281	716.7761	65535	64602.9
832.173	718.8688	65535	64598.25
832.3179	720.9608	65535	64590.8
832.4628	723.0522	65535	64587.7
832.6077	725.1429	65535	64593.8
832.7527	727.233	65535	64590.45
832.8976	729.3224	65535	64595
833.0425	731.4112	65535	64590.9
833.1874	733.4993	65535	64590.05
833.3324	735.5867	65535	64596.1
833.4773	737.6735	65535	64592.45
833.6222	739.7596	65535	64589.55
833.7672	741.845	65535	64593.3
833.9122	743.9298	65535	64595.3
834.0571	746.014	65535	64592.25
834.2021	748.0974	65535	64586.1
834.347	750.1802	65535	64588.2
834.492	752.2624	65535	64586.05
834.637	754.3439	65535	64586.2
834.782	756.4247	65535	64584.55
834.9269	758.5048	65535	64591.25
835.0719	760.5843	65535	64590
835.2169	762.6631	65535	64590.55
835.3619	764.7413	65535	64592.75
835.5069	766.8188	65535	64596.45
835.6519	768.8956	65535	64588.35
835.7969	770.9718	65535	64591.85
835.9419	773.0473	65535	64588.9
836.0869	775.1221	65535	64594.15
836.232	777.1962	65535	64591.1
836.377	779.2697	65528.45	64580.2
836.522	781.3426	65535	64571.3
836.667	783.4147	65535	64587.7
836.8121	785.4862	65535	64592.1
836.9571	787.557	65528.25	64582.45
837.1021	789.6271	65535	64588.2
837.2472	791.6966	65532.75	64586.2
837.3922	793.7654	65504.55	64559.3
837.5373	795.8335	65509.65	64566.1
837.6823	797.901	65516.15	64570.75
837.8274	799.9678	65496.5	64550.1
837.9724	802.0339	65482.4	64536.15
838.1175	804.0993	65499.2	64540.95
838.2626	806.1641	65459.65	64511.9
838.4076	808.2282	65438.8	64492.9
838.5527	810.2916	65386.55	64441.95
838.6978	812.3544	65471.6	64530.35
838.8428	814.4164	65320.95	64377.7
838.9879	816.4778	65326.85	64380.65
839.133	818.5385	65363.6	64415.8
839.2781	820.5986	65324.3	64373.75
839.4232	822.658	65340.1	64391.15
839.5682	824.7166	65358.05	64408.05
839.7133	826.7747	65189.3	64239.8
839.8584	828.832	65258.35	64309
840.0035	830.8886	65356.25	64405.95
840.1486	832.9446	65379.45	64431.35
840.2937	834.9999	65068.4	64121.6
840.4388	837.0545	65254.1	64299.65
840.5839	839.1085	65376.35	64428.8
840.729	841.1618	65294.15	64341.1
840.8741	843.2143	65038.35	64091.55
841.0192	845.2662	65047.95	64100.3
841.1643	847.3175	65154.2	64207.25
841.3095	849.368	64795.35	63845.1
841.4546	851.4179	65053.95	64110.55
841.5997	853.467	64866.1	63917.35
841.7448	855.5155	64978.8	64031.75
841.8899	857.5633	64775.7	63823.45
842.0351	859.6105	64646.55	63696.8
842.1802	861.6569	64754.35	63806.8
842.3253	863.7027	64490.25	63540.05
842.4704	865.7478	64604.2	63655.2
842.6156	867.7922	64537.3	63589.2
842.7607	869.8359	64687.05	63738.8
842.9058	871.8789	64398	63446.85
843.0509	873.9212	64583.85	63604.5
843.1961	875.9629	64625.55	63673.9
843.3412	878.0039	64613.85	63661.35
843.4863	880.0441	64529.8	63584.3
843.6315	882.0837	64481.8	63530.65
843.7766	884.1226	64424.05	63474.55
843.9218	886.1609	64343.45	63396.8
844.0669	888.1984	64138.2	63190.05
844.212	890.2352	64397.25	63452.2
844.3572	892.2714	64019.75	63061.05
844.5023	894.3069	64162.05	63213.65
844.6475	896.3416	63933.95	62982.9
844.7926	898.3757	63882	62930.05
844.9377	900.4091	63149.75	62198.25
845.0829	902.4418	64096.35	63140.65
845.228	904.4739	63609.2	62653.25
845.3732	906.5052	63629.35	62676.55
845.5183	908.5358	63268.55	62317.25
845.6635	910.5658	63068.2	62114.75
845.8086	912.595	63066.35	62110.95
845.9538	914.6236	62189.9	61239
846.0989	916.6515	63383.4	62430.9
846.2441	918.6786	62048.25	61094.95
846.3892	920.7051	62453.95	61503.35
846.5344	922.7309	62280.4	61329.75
846.6795	924.756	62485.6	61532.85
846.8246	926.7804	62071.35	61118.95
846.9698	928.8041	61200.45	60246.25
847.1149	930.8272	61874.25	60920.9
847.2601	932.8495	61853.7	60897.35
847.4052	934.8711	61116.7	60162.7
847.5504	936.892	60611.85	59661.15
847.6955	938.9123	60846	59892.5
847.8407	940.9318	60299.85	59349.85
847.9858	942.9506	60142.05	59190.1
848.131	944.9688	60186.65	59232.05
848.2761	946.9862	59101.25	58149.95
848.4213	949.003	59445.3	58494.4
848.5664	951.019	58509	57558.85
848.7115	953.0344	58735.95	57785.85
848.8567	955.0491	58666.15	57713.85
849.0018	957.063	58935.75	57983.85
849.147	959.0763	58982.3	58026.55
849.2921	961.0888	58381.65	57428.95
849.4373	963.1007	58865.85	57921.1
849.5824	965.1119	58831.75	57890.45
849.7275	967.1223	58355.9	57416.9
849.8727	969.1321	58870	57933.2
850.0178	971.1412	58106.8	57162.75
850.1629	973.1495	57813.3	56866.7
850.3081	975.1572	58085.35	57103.4
850.4532	977.1641	57813.4	56859.6
850.5983	979.1704	57589.45	56638.7
850.7435	981.1759	57677.4	56721.85
850.8886	983.1808	57244.45	56292.7
851.0337	985.1849	57261.85	56302.65
851.1788	987.1884	57430.15	56480.65
851.324	989.1911	57904.2	56953.35
851.4691	991.1932	56970.55	56018.05
851.6142	993.1945	57160.85	56208.4
851.7593	995.1951	57317.75	56367.8
851.9045	997.1951	56688.8	55732.75
852.0496	999.1943	56400.45	55449.3
852.1947	1001.1928	56177.1	55224.55
852.3398	1003.1906	56192.85	55244.45
852.4849	1005.1877	55698.9	54751.2
852.63	1007.1841	55338.85	54391.6
852.7751	1009.1798	55186.15	54238.55
852.9202	1011.1748	54881.6	53930.35
853.0653	1013.1691	54572.7	53623.75
853.2104	1015.1627	53664.4	52713.4
853.3555	1017.1556	53484.15	52537.25
853.5006	1019.1477	53527.65	52581.9
853.6457	1021.1392	52968.75	52028.7
853.7908	1023.1299	52463.25	51523.7
853.9359	1025.12	52579.5	51645.75
854.081	1027.1093	52217	51289.9
854.2261	1029.0979	52200	51275.3
854.3712	1031.0859	52089.05	51156.9
854.5163	1033.0731	51658.5	50718.65
854.6613	1035.0596	51547.4	50606.1
854.8064	1037.0454	51228.9	50285.35
854.9515	1039.0304	50874.5	49931.95
855.0965	1041.0148	50508.4	49563.7
855.2416	1042.9985	50330.4	49384.25
855.3867	1044.9814	50338.4	49394.5
855.5317	1046.9636	49954.95	49006.2
855.6768	1048.9452	49762.75	48818.9
855.8219	1050.926	49650.1	48703.15
855.9669	1052.9061	49453.7	48510.95
856.112	1054.8855	49354.4	48408.6
856.257	1056.8642	49103.8	48156.1
856.4021	1058.8421	49121.8	48175.35
856.5471	1060.8194	48930.15	47982.35
856.6921	1062.7959	48819.45	47870.55
856.8372	1064.7717	48736.9	47791.2
856.9822	1066.7469	48605	47656.2
857.1272	1068.7213	48447.5	47499.55
857.2723	1070.695	48248.45	47303.8
857.4173	1072.6679	47851.15	46902.85
857.5623	1074.6402	47752.45	46806.1
857.7073	1076.6117	47661.9	46710.05
857.8523	1078.5826	47617.1	46668.3
857.9973	1080.5527	47494.65	46545.4
858.1423	1082.5221	47491.6	46544.35
858.2873	1084.4908	47631.65	46686.65
858.4323	1086.4587	47696.15	46750.05
858.5773	1088.426	47815.85	46868.1
858.7223	1090.3925	47541.6	46588.55
858.8673	1092.3584	47421.7	46474.45
859.0123	1094.3235	46977.35	46031.8
859.1573	1096.2879	46704.05	45755.7
859.3022	1098.2515	46523.35	45580.05
859.4472	1100.2145	46444.7	45499.4
859.5922	1102.1767	46332.75	45386.7
859.7371	1104.1382	46370.05	45424.55
859.8821	1106.099	46410.7	45465.7
860.027	1108.0591	46461.4	45517.45
860.172	1110.0185	46389.45	45443.55
860.3169	1111.9771	46433.9	45488.45
860.4619	1113.9351	45940.05	44995
860.6068	1115.8923	45406.4	44460.05
860.7517	1117.8488	44943.6	44000.95
860.8967	1119.8045	44448.2	43504.25
861.0416	1121.7596	44243.4	43298.75
861.1865	1123.7139	43985.05	43043.35
861.3314	1125.6675	43893.15	42948.9
861.4763	1127.6204	43935.95	42990.65
861.6212	1129.5726	43769.2	42826.45
861.7661	1131.524	43732.25	42789.15
861.911	1133.4748	43689.5	42745
862.0559	1135.4248	43571.2	42627.3
862.2008	1137.3741	43489.4	42549.45
862.3457	1139.3226	43342.15	42394.95
862.4905	1141.2705	43317.9	42374.2
862.6354	1143.2176	42935.95	41986.9
862.7803	1145.164	42888.8	41938.55
862.9251	1147.1097	42822.1	41877.45
863.07	1149.0546	42748.9	41802.1
863.2148	1150.9989	42589.35	41645.85
863.3597	1152.9424	42376.1	41432.3
863.5045	1154.8852	42110.85	41165.2
863.6493	1156.8272	41850.3	40906.55
863.7942	1158.7686	41734.5	40781.65
863.939	1160.7092	41474.4	40529.55
864.0838	1162.6491	41237.85	40291.45
864.2286	1164.5883	41303.1	40359.7
864.3734	1166.5267	41274.6	40330.15
864.5182	1168.4644	41305.15	40365.4
864.663	1170.4014	41377.3	40427.95
864.8078	1172.3377	41552.25	40607.15
864.9526	1174.2732	41589.15	40647.6
865.0974	1176.2081	41760.9	40817.5
865.2421	1178.1421	41775.25	40827.05
865.3869	1180.0755	41852.4	40912.2
865.5317	1182.0082	41648.05	40710.2
865.6764	1183.9401	41483.1	40542.65
865.8212	1185.8713	41165.65	40229.65
865.9659	1187.8017	40851.4	39919.3
866.1106	1189.7315	40522.95	39598.5
866.2554	1191.6605	40091.6	39164.85
866.4001	1193.5888	39706.25	38776.3
866.5448	1195.5163	39517.4	38583.05
866.6895	1197.4432	39268.75	38328.25
866.8342	1199.3693	39091.65	38151.6
866.9789	1201.2947	38858.85	37911.95
867.1236	1203.2193	38692.95	37753.55
867.2683	1205.1432	38654.25	37715.65
867.413	1207.0664	38586	37646.8
867.5576	1208.9889	38545.15	37601.35
867.7023	1210.9106	38479.4	37540.2
867.847	1212.8316	38382.4	37444.5
867.9916	1214.7519	38402.2	37453.4
868.1363	1216.6715	38259.4	37319.15
868.2809	1218.5903	38121.2	37183.9
868.4255	1220.5084	37964.25	37024.35
868.5701	1222.4257	37897.45	36955.2
868.7148	1224.3424	37556.15	36616.55
868.8594	1226.2583	37557.7	36619.15
869.004	1228.1735	37539.8	36602.8
869.1486	1230.0879	37480.55	36542.8
869.2932	1232.0016	37534.45	36593.4
869.4377	1233.9146	37499.75	36559.95
869.5823	1235.8269	37224.25	36284.6
869.7269	1237.7384	37097.85	36158.15
869.8715	1239.6492	36678.9	35740.3
870.016	1241.5592	36592.95	35653.25
870.1606	1243.4686	36318.8	35381.15
870.3051	1245.3772	36174.85	35237.95
870.4496	1247.285	36012.65	35073.95
870.5941	1249.1922	35792.2	34851.75
870.7387	1251.0986	35690.65	34752.55
870.8832	1253.0042	35536.35	34597.35
871.0277	1254.9092	35555.15	34617.8
871.1722	1256.8134	35559.85	34621.05
871.3167	1258.7169	35617.15	34678.3
871.4611	1260.6196	35646.65	34708.9
871.6056	1262.5216	35788.45	34850.8
871.7501	1264.4229	35839.2	34902.2
871.8945	1266.3234	35929.15	34993.2
872.039	1268.2232	35864.95	34925.75
872.1834	1270.1223	35744.65	34805.7
872.3278	1272.0207	35637.05	34700.25
872.4723	1273.9183	35472.8	34529.75
872.6167	1275.8151	35321.8	34385.75
872.7611	1277.7113	35207.75	34271.95
872.9055	1279.6067	34889.05	33952.8
873.0499	1281.5014	34604.55	33665.3
873.1943	1283.3953	34407.35	33468.5
873.3386	1285.2885	34231.55	33295.15
873.483	1287.181	34076.2	33142.65
873.6274	1289.0727	34055.9	33120.7
873.7717	1290.9637	33984.75	33049.9
873.9161	1292.854	34063.45	33126.95
874.0604	1294.7435	34101.7	33165.35
874.2047	1296.6323	34212	33275.55
874.349	1298.5204	34453.95	33514.45
874.4933	1300.4077	34670.15	33736.35
874.6376	1302.2943	34701.7	33764.35
874.7819	1304.1802	34786.7	33851.3
874.9262	1306.0653	34612.6	33675.4
875.0705	1307.9497	34405.45	33468.2
875.2147	1309.8333	34326.2	33393.1
875.359	1311.7162	34237	33302.4
875.5032	1313.5984	34265.8	33325.95
875.6475	1315.4798	34279.3	33332.2
875.7917	1317.3605	34394.8	33441.15
875.9359	1319.2405	34569.3	33631.4
876.0801	1321.1197	34469.5	33528.45
876.2243	1322.9982	34403.2	33463.15
876.3685	1324.876	34386.75	33450.3
876.5127	1326.753	34200.55	33264.6
876.6569	1328.6293	34225.3	33288.15
876.801	1330.5048	34238.85	33298.5
876.9452	1332.3796	34123.8	33188.5
877.0893	1334.2537	34057.85	33100.7
877.2335	1336.127	33896.75	32959.95
877.3776	1337.9996	33791.55	32857.45
877.5217	1339.8714	33690.45	32757.35
877.6658	1341.7426	33532	32552.2
877.8099	1343.6129	33375.9	32437
877.954	1345.4826	33255.45	32317.05
878.0981	1347.3515	33176.95	32236.45
878.2422	1349.2196	33009.45	32072.6
878.3862	1351.087	33043.5	32106.05
878.5303	1352.9537	32957.65	32019.85
878.6743	1354.8197	33032.45	32093.9
878.8184	1356.6849	33205.7	32269.1
878.9624	1358.5493	33144	32209.5
879.1064	1360.4131	33065.15	32130.55
879.2504	1362.276	32908.65	31973
879.3944	1364.1383	32610.7	31677.35
879.5384	1365.9998	32363.8	31425
879.6823	1367.8606	31928.45	30989.7
879.8263	1369.7206	31643.1	30711.25
879.9702	1371.5799	31350.9	30411.05
880.1142	1373.4384	31170.85	30236.2
880.2581	1375.2962	31049	30110.9
880.402	1377.1533	30709.9	29777.4
880.5459	1379.0096	30223.1	29290.5
880.6898	1380.8652	29919.65	28989.85
880.8337	1382.7201	29625.4	28694.25
880.9776	1384.5742	29245.3	28314.2
881.1215	1386.4275	29040.55	28105.9
881.2653	1388.2802	28844.15	27911.6
881.4092	1390.132	28617.4	27684.9
881.553	1391.9832	28522.25	27589
881.6968	1393.8336	28349.05	27414.15
881.8406	1395.6832	28209.25	27274.3
881.9844	1397.5322	28091.7	27154.15
882.1282	1399.3803	27967.75	27025.7
882.272	1401.2278	27840.25	26906.55
882.4158	1403.0745	27758.9	26824.45
882.5595	1404.9204	27596.65	26662.1
882.7033	1406.7656	27595.85	26664
882.847	1408.6101	27477.25	26542.3
882.9908	1410.4538	27398.05	26465.4
883.1345	1412.2968	27338.55	26404.7
883.2782	1414.139	27287.3	26356.65
883.4219	1415.9805	27333.55	26402.25
883.5656	1417.8213	27293.05	26342.05
883.7092	1419.6613	27336.25	26404.9
883.8529	1421.5006	27427	26493.75
883.9965	1423.3391	27628.55	26693.45
884.1402	1425.1769	27894.25	26959.55
884.2838	1427.0139	28385.4	27453.45
884.4274	1428.8502	28889.55	27957.6
884.571	1430.6858	29428.7	28496.65
884.7146	1432.5206	29807.3	28875.5
884.8582	1434.3547	30076.3	29142.7
885.0018	1436.188	30051.45	29119.7
885.1453	1438.0206	29946.15	29014
885.2889	1439.8524	29709.2	28775
885.4324	1441.6835	29566.05	28631.7
885.5759	1443.5139	29365.1	28430.8
885.7194	1445.3435	29269.5	28337.45
885.8629	1447.1724	29209.4	28281.35
886.0064	1449.0005	29073.8	28145.95
886.1499	1450.8279	28888.85	27958.1
886.2933	1452.6545	28820.9	27893.05
886.4368	1454.4804	28808.25	27878.7
886.5802	1456.3056	28720.2	27786.65
886.7237	1458.13	28567	27643.2
886.8671	1459.9536	28336.95	27407.1
887.0105	1461.7766	27894	26965.7
887.1539	1463.5987	27424.45	26492.15
887.2972	1465.4202	26985.65	26056.6
887.4406	1467.2409	26530.35	25602.4
887.584	1469.0608	26280.6	25351.05
887.7273	1470.88	25930.55	24999.45
887.8706	1472.6984	25669.05	24739.4
888.0139	1474.5161	25354.45	24420.9
888.1572	1476.3331	25150.5	24222.9
888.3005	1478.1493	24985.75	24054.4
888.4438	1479.9648	24854.9	23925.4
888.5871	1481.7795	24694.7	23764.75
888.7303	1483.5935	24619.85	23690.25
888.8736	1485.4067	24500.6	23569.25
889.0168	1487.2192	24456.2	23527.35
889.16	1489.031	24367.55	23434.45
889.3032	1490.842	24252.8	23324.55
889.4464	1492.6522	24197.9	23267.6
889.5896	1494.4618	24085.3	23155.5
889.7327	1496.2705	24086.25	23158
889.8759	1498.0785	23948.35	23018.15
890.019	1499.8858	23907.5	22980.5
890.1622	1501.6924	23793.65	22865.7
890.3053	1503.4981	23771.1	22840.7
890.4484	1505.3032	23733.7	22803.05
890.5914	1507.1075	23600	22672.05
890.7345	1508.911	23549.95	22621.2
890.8776	1510.7138	23465.9	22537.85
891.0206	1512.5159	23367.85	22437.2
891.1637	1514.3172	23278.65	22350.7
891.3067	1516.1178	23149.85	22227.2
891.4497	1517.9176	23149.55	22221.35
891.5927	1519.7166	23025.4	22101.4
891.7357	1521.515	22925.6	21995.45
891.8786	1523.3126	22920.65	21992.45
892.0216	1525.1094	22755.95	21824.95
892.1645	1526.9055	22646	21720.8
892.3074	1528.7008	22582.05	21656.35
892.4503	1530.4954	22459.45	21527.5
892.5932	1532.2893	22411.45	21485.65
892.7361	1534.0824	22282.55	21353.15
892.879	1535.8747	22270.95	21347.9
893.0218	1537.6663	22168.9	21245.35
893.1647	1539.4572	22116.7	21193.55
893.3075	1541.2473	22065.95	21143.9
893.4503	1543.0367	21993.3	21067.75
893.5931	1544.8253	21933.95	21007.3
893.7359	1546.6132	21878.1	20950.4
893.8787	1548.4003	21763.55	20832.3
894.0214	1550.1867	21744.95	20812.8
894.1642	1551.9723	21705	20777.8
894.3069	1553.7572	21625.3	20704.05
894.4496	1555.5414	21601.85	20681.5
894.5923	1557.3247	21578.85	20661
894.735	1559.1074	21580.1	20662.45
894.8777	1560.8893	21520.9	20605.15
895.0204	1562.6705	21520.8	20601.45
895.163	1564.4509	21546.55	20629.45
895.3056	1566.2305	21542.05	20628.2
895.4482	1568.0094	21635.2	20722.15
895.5908	1569.7876	21705.55	20791.5
895.7334	1571.565	21737.95	20819.95
895.876	1573.3417	21729.45	20813.55
896.0186	1575.1176	21681.05	20765.7
896.1611	1576.8928	21636.2	20722.4
896.3036	1578.6672	21479.95	20570.75
896.4461	1580.4409	21344.65	20438.7
896.5886	1582.2138	21110.55	20199.05
896.7311	1583.986	20966.5	20053.1
896.8736	1585.7575	20836.2	19922.45
897.0161	1587.5282	20662.3	19750.7
897.1585	1589.2981	20616	19705.15
897.3009	1591.0673	20459.3	19550.95
897.4433	1592.8358	20401.75	19489.05
897.5857	1594.6035	20371.3	19456.4
897.7281	1596.3704	20268.45	19355.8
897.8705	1598.1366	20227.05	19317.85
898.0128	1599.9021	20150.2	19239.35
898.1551	1601.6668	20129.7	19215.05
898.2975	1603.4308	20115.1	19199.6
898.4398	1605.194	20160.05	19242.6
898.5821	1606.9564	20147.5	19241.3
898.7243	1608.7182	20238.55	19330.75
898.8666	1610.4791	20287.7	19389.75
899.0088	1612.2394	20383.85	19485.15
899.1511	1613.9988	20510.15	19610.1
899.2933	1615.7576	20706.05	19800.75
899.4355	1617.5156	20928.15	20011.7
899.5776	1619.2728	21124.65	20211.75
899.7198	1621.0293	21286.95	20376.35
899.862	1622.785	21322.2	20413
900.0041	1624.54	21188.1	20281.2
900.1462	1626.2942	21009.7	20104.7
900.2883	1628.0477	20654.45	19748.1
900.4304	1629.8005	20355.35	19445.7
900.5725	1631.5525	20083.25	19177.45
900.7145	1633.3037	19827.65	18922.65
900.8566	1635.0542	19614.5	18709.75
900.9986	1636.804	19451.3	18544
901.1406	1638.553	19352.3	18374.3
901.2826	1640.3013	19193.75	18286.2
901.4245	1642.0488	19077.6	18168.55
901.5665	1643.7955	19017.15	18113.35
901.7085	1645.5416	18986.85	18080.9
901.8504	1647.2868	19029.7	18125.1
901.9923	1649.0313	18999.75	18091.7
902.1342	1650.7751	19106.5	18197.85
902.2761	1652.5181	19233.1	18328.35
902.4179	1654.2604	19394.6	18490.2
902.5598	1656.0019	19652.95	18748.75
902.7016	1657.7427	19985.3	19080.75
902.8434	1659.4828	20364.55	19457.35
902.9852	1661.222	20545.8	19636.75
903.127	1662.9606	20559.8	19652.45
903.2687	1664.6984	20440.75	19530.85
903.4105	1666.4354	20066.9	19156.4
903.5522	1668.1717	19613.95	18705.3
903.6939	1669.9072	19107.3	18197.5
903.8356	1671.642	18678.75	17768.3
903.9773	1673.3761	18345.5	17437.15
904.119	1675.1094	18034.15	17127.5
904.2606	1676.8419	17822.55	16916.05
904.4022	1678.5737	17651.35	16743.9
904.5439	1680.3048	17479.5	16570.65
904.6855	1682.0351	17346.6	16439.75
904.827	1683.7646	17254.1	16346.75
904.9686	1685.4934	17163.85	16257.6
905.1101	1687.2215	17053.3	16147.9
905.2517	1688.9488	16941.7	16040.05
905.3932	1690.6754	16859.7	15957
905.5347	1692.4012	16794.25	15884.9
905.6761	1694.1263	16744.2	15838.05
905.8176	1695.8506	16705.65	15799.2
905.9591	1697.5742	16643.05	15738.9
906.1005	1699.297	16542.45	15640.65
906.2419	1701.0191	16413.7	15514.15
906.3833	1702.7404	16375.55	15473.3
906.5246	1704.461	16265.95	15362.95
906.666	1706.1808	16223.4	15318.45
906.8073	1707.8999	16157.7	15256.15
906.9487	1709.6182	16117.7	15218.3
907.09	1711.3358	16048	15150.25
907.2313	1713.0527	15998.25	15101.1
907.3725	1714.7688	15928.15	15024
907.5138	1716.4841	15874.6	14972.4
907.655	1718.1987	15841.6	14935.85
907.7962	1719.9126	15760.75	14861.35
907.9374	1721.6257	15718.9	14818.65
908.0786	1723.338	15696.7	14799
908.2198	1725.0496	15589.1	14691.8
908.3609	1726.7605	15537.85	14637.5
908.502	1728.4706	15493.05	14593
908.6431	1730.18	15401.05	14502.8
908.7842	1731.8886	15387.55	14490.2
908.9253	1733.5964	15359.4	14439.1
909.0664	1735.3036	15274.65	14373.85
909.2074	1737.0099	15264.45	14365.3
909.3484	1738.7156	15226.1	14330.4
909.4894	1740.4204	15144.25	14243.9
909.6304	1742.1246	15100.5	14198.7
909.7714	1743.8279	15077.3	14179.95
909.9123	1745.5306	15043.7	14145.8
910.0532	1747.2325	14971.15	14076.8
910.1941	1748.9336	14916.75	14017.15
910.335	1750.634	14882.25	13980.75
910.4759	1752.3336	14848.75	13951.9
910.6168	1754.0325	14796.45	13901.95
910.7576	1755.7307	14775.7	13880.45
910.8984	1757.4281	14757.2	13861.8
911.0392	1759.1247	14731.3	13824.1
911.18	1760.8206	14683.15	13779.85
911.3208	1762.5158	14680.1	13777.55
911.4615	1764.2102	14614.5	13717.15
911.6022	1765.9039	14553.3	13657.2
911.7429	1767.5968	14540.7	13646.45
911.8836	1769.289	14483.1	13590
912.0243	1770.9804	14442.2	13542
912.1649	1772.6711	14404.85	13504.45
912.3056	1774.361	14358.7	13456.9
912.4462	1776.0502	14356.95	13457.25
912.5868	1777.7386	14318.65	13418.45
912.7274	1779.4263	14259	13359.3
912.8679	1781.1132	14252.7	13357.7
913.0084	1782.7994	14165.75	13268.75
913.149	1784.4849	14130.95	13235.95
913.2895	1786.1696	14110.25	13210.15
913.4299	1787.8535	14053.55	13159
913.5704	1789.5367	14017.05	13121.15
913.7108	1791.2192	14011.3	13118.3
913.8513	1792.9009	13971	13048.2
913.9917	1794.5818	13921.2	13021.55
914.132	1796.2621	13876.6	12979.75
914.2724	1797.9415	13830.2	12933.25
914.4128	1799.6202	13807.55	12910.45
914.5531	1801.2982	13772.15	12875.55
914.6934	1802.9755	13757.2	12859.8
914.8337	1804.6519	13705.75	12809.75
914.9739	1806.3277	13681.05	12786.15
915.1142	1808.0027	13603.75	12711.35
915.2544	1809.6769	13581.6	12689.05
915.3946	1811.3504	13536.75	12644.45
915.5348	1813.0231	13488.7	12595.05
915.675	1814.6951	13485.6	12589.95
915.8151	1816.3664	13486.6	12589.25
915.9553	1818.0369	13436.45	12538.35
916.0954	1819.7067	13380.05	12484.35
916.2355	1821.3757	13342.9	12444.85
916.3755	1823.044	13352.85	12455.8
916.5156	1824.7115	13325.2	12428.8
916.6556	1826.3783	13226.65	12331.2
916.7956	1828.0443	13202.8	12307.75
916.9356	1829.7096	13169.8	12270.25
917.0756	1831.3741	13181.3	12280.8
917.2155	1833.0379	13146.95	12253.75
917.3555	1834.701	13117.75	12223.1
917.4954	1836.3633	13082.6	12188.25
917.6353	1838.0248	13051.15	12156.45
917.7751	1839.6856	13013.3	12116.55
917.915	1841.3457	12986.25	12092.15
918.0548	1843.005	12938.45	12042.5
918.1946	1844.6636	12925.8	12031.95
918.3344	1846.3214	12887.1	11991.55
918.4742	1847.9785	12875.1	11979.6
918.6139	1849.6349	12838	11940.25
918.7537	1851.2904	12815.75	11907.2
918.8934	1852.9453	12781.4	11883.1
919.0331	1854.5994	12738.1	11839.3
919.1727	1856.2528	12735.25	11833.05
919.3124	1857.9054	12685	11788.05
919.452	1859.5572	12667.75	11775.2
919.5916	1861.2083	12628.55	11731.4
919.7312	1862.8587	12622.9	11728
919.8708	1864.5084	12587.7	11688.5
920.0103	1866.1572	12554.2	11657.1
920.1498	1867.8054	12507.25	11610.2
920.2893	1869.4528	12478.75	11579.55
920.4288	1871.0994	12445.75	11546.7
920.5683	1872.7453	12451.4	11553.7
920.7077	1874.3905	12407.1	11493.9
920.8471	1876.0349	12360.7	11463.1
920.9865	1877.6786	12339	11441.5
921.1259	1879.3215	12328.25	11433.85
921.2653	1880.9637	12299.6	11403.25
921.4046	1882.6051	12283.75	11390.4
921.5439	1884.2458	12224.15	11328.95
921.6832	1885.8858	12200.1	11304.9
921.8225	1887.525	12168.7	11271.9
921.9617	1889.1634	12112.8	11216.8
922.101	1890.8011	12082.25	11183.95
922.2402	1892.4381	12041.85	11146.5
922.3794	1894.0743	12049.65	11154
922.5185	1895.7098	12022.4	11128.15
922.6577	1897.3446	11982.15	11086.45
922.7968	1898.9786	11932.5	11033.1
922.9359	1900.6118	11937.45	11044.15
923.075	1902.2443	11862.9	10963
923.214	1903.8761	11837.95	10942.75
923.3531	1905.5071	11786.8	10890.55
923.4921	1907.1374	11747.5	10851.95
923.6311	1908.7669	11726	10832.95
923.77	1910.3957	11684.55	10791.85
923.909	1912.0237	11631	10738.55
924.0479	1913.651	11636.8	10741.7
924.1868	1915.2776	11589.7	10695.3
924.3257	1916.9034	11523.25	10630.65
924.4646	1918.5285	11479.1	10585.85
924.6034	1920.1528	11450.55	10556.45
924.7422	1921.7764	11439.85	10546.55
924.881	1923.3992	11384.75	10490.95
925.0198	1925.0213	11308.5	10415.95
925.1586	1926.6427	11283.8	10389.55
925.2973	1928.2633	11316.1	10351.1
925.436	1929.8832	11218.15	10323.25
925.5747	1931.5023	11148.75	10252.3
925.7134	1933.1207	11132.9	10238.4
925.852	1934.7383	11097	10202.45
925.9906	1936.3552	11054	10162.3
926.1292	1937.9714	11034.55	10141.85
926.2678	1939.5868	11004.15	10109.2
926.4064	1941.2015	10942.65	10047.55
926.5449	1942.8154	10930.35	10035.2
926.6834	1944.4286	10879.95	9985.25
926.8219	1946.041	10840.65	9927.1
926.9604	1947.6528	10783.05	9884.4
927.0988	1949.2637	10727.75	9832.6
927.2372	1950.8739	10711.5	9819.2
927.3756	1952.4834	10714.3	9820.85
927.514	1954.0921	10656.9	9763.65
927.6523	1955.7001	10630.85	9734.4
927.7907	1957.3074	10589.75	9698.65
927.929	1958.9139	10577.9	9688.15
928.0673	1960.5197	10553.6	9661.6
928.2055	1962.1247	10486.65	9594.95
928.3438	1963.729	10430.5	9538.9
928.482	1965.3325	10385.5	9471.75
928.6202	1966.9353	10359.1	9470.6
928.7584	1968.5374	10332.55	9442.25
928.8965	1970.1387	10295.2	9403.95
929.0346	1971.7393	10255.2	9362.15
929.1727	1973.3392	10211.25	9319
929.3108	1974.9383	10178.55	9290.5
929.4489	1976.5366	10136.5	9246.65
929.5869	1978.1342	10106.55	9216.45
929.7249	1979.7311	10115.35	9223.65
929.8629	1981.3273	10066.2	9175.65
930.0009	1982.9227	10042.65	9153.45
930.1388	1984.5173	9998.9	9110.05
930.2767	1986.1112	9964.85	9075.8
930.4146	1987.7044	9940.8	9053.3
930.5525	1989.2968	9911.45	9019.8
930.6904	1990.8885	9894.5	9002.05
930.8282	1992.4795	9874.3	8983.4
930.966	1994.0697	9823.8	8936.9
931.1038	1995.6592	9806.25	8916.4
931.2415	1997.2479	9760.55	8871.8
931.3793	1998.8359	9711.15	8824
931.517	2000.4232	9689.2	8804.45
931.6547	2002.0097	9668.5	8785.35
931.7923	2003.5955	9641.7	8756.55
931.93	2005.1805	9648.95	8761
932.0676	2006.7648	9582.85	8697.7
932.2052	2008.3484	9557	8671.3
932.3427	2009.9312	9543.9	8656.15
932.4803	2011.5133	9529.2	8645.65
932.6178	2013.0946	9488.55	8602.7
932.7553	2014.6752	9448.8	8564.05
932.8928	2016.2551	9439.2	8551.7
933.0302	2017.8342	9400.65	8514.4
933.1676	2019.4126	9344.95	8460.15
933.305	2020.9902	9336.8	8452.25
933.4424	2022.5672	9324.9	8440.25
933.5798	2024.1433	9297.7	8404.85
933.7171	2025.7188	9269.9	8387.6
933.8544	2027.2935	9232.1	8347.25
933.9917	2028.8674	9206.4	8320.45
934.129	2030.4406	9186.2	8304.65
934.2662	2032.0131	9122.9	8242.75
934.4034	2033.5849	9110.6	8220.6
934.5406	2035.1559	9099.75	8213.6
934.6778	2036.7261	9091.3	8205.35
934.8149	2038.2957	9050.45	8161.75
934.952	2039.8645	9043.05	8157.55
935.0891	2041.4325	9046.15	8155.65
935.2262	2042.9998	9005.25	8119.25
935.3632	2044.5664	8971.15	8083.85
935.5002	2046.1323	8939.7	8055.95
935.6372	2047.6974	8916.65	8032.6
935.7742	2049.2617	8895.8	8011.25
935.9111	2050.8254	8883.6	7993.45
936.048	2052.3883	8848.65	7959.6
936.1849	2053.9504	8843.05	7957.65
936.3218	2055.5118	8812.9	7925.35
936.4586	2057.0725	8783.1	7892.95
936.5955	2058.6325	8757.55	7873.3
936.7323	2060.1917	8724.1	7840
936.869	2061.7502	8691.15	7803.9
937.0058	2063.3079	8660.05	7776.55
937.1425	2064.8649	8623.45	7735.1
937.2792	2066.4212	8610.95	7725.6
937.4159	2067.9767	8589.5	7702.85
937.5525	2069.5315	8556.1	7670.25
937.6891	2071.0856	8516.2	7627.6
937.8257	2072.6389	8499.2	7613.15
937.9623	2074.1915	8445.55	7563.15
938.0989	2075.7433	8420.25	7532.7
938.2354	2077.2945	8399.55	7516.35
938.3719	2078.8448	8380.95	7495.35
938.5084	2080.3945	8355.25	7468.6
938.6448	2081.9434	8365.7	7478.15
938.7812	2083.4916	8334.35	7444.6
938.9176	2085.039	8281.75	7389.8
939.054	2086.5857	8267.45	7374.85
939.1903	2088.1317	8253.45	7362.85
939.3267	2089.677	8226.35	7335.25
939.463	2091.2215	8199	7306.1
939.5992	2092.7652	8186.55	7291.55
939.7355	2094.3083	8134.2	7244.75
939.8717	2095.8506	8135.35	7246.4
940.0079	2097.3921	8150.55	7261.25
940.1441	2098.933	8123.85	7235.75
940.2802	2100.4731	8100.15	7213.35
940.4163	2102.0124	8110.7	7213.75
940.5524	2103.5511	8079.3	7189.2
940.6885	2105.089	8046.55	7156.95
940.8245	2106.6261	8033.9	7145
940.9606	2108.1626	8010.45	7124.45
941.0965	2109.6983	7995.4	7079.45
941.2325	2111.2332	7941.85	7051.7
941.3684	2112.7675	7920.45	7028.85
941.5044	2114.301	7883.75	6992.3
941.6403	2115.8337	7899.2	7009.25
941.7761	2117.3657	7868.5	6980.8
941.912	2118.897	7866.85	6974.9
942.0478	2120.4276	7840.65	6945.3
942.1835	2121.9575	7810.65	6918.3
942.3193	2123.4866	7824.35	6918.8
942.455	2125.0149	7800.25	6905.3
942.5907	2126.5426	7726.6	6839.15
942.7264	2128.0695	7739.9	6851
942.8621	2129.5956	7728.8	6845.1
942.9977	2131.1211	7686.95	6796.1
943.1333	2132.6458	7674.1	6787.9
943.2689	2134.1698	7657.8	6769.15
943.4044	2135.693	7633.55	6740.45
943.54	2137.2155	7610.05	6717.4
943.6755	2138.7373	7586.15	6696.65
943.8109	2140.2584	7564.2	6678.4
943.9464	2141.7787	7536.95	6647.6
944.0818	2143.2983	7507.35	6623.4
944.2172	2144.8171	7475.9	6590.65
944.3526	2146.3353	7473.95	6586.2
944.4879	2147.8527	7426.95	6540.65
944.6232	2149.3693	7453.05	6565.35
944.7585	2150.8853	7407.7	6517
944.8938	2152.4005	7386.3	6495.05
945.029	2153.9149	7371.6	6479.15
945.1642	2155.4287	7436.2	6431.2
945.2994	2156.9417	7356.25	6462.7
945.4346	2158.454	7313.2	6424.4
945.5697	2159.9655	7290.2	6403.35
945.7048	2161.4764	7269.4	6382.45
945.8399	2162.9865	7265.15	6378.2
945.9749	2164.4958	7252.35	6365.25
946.1099	2166.0045	7213.55	6322.35
946.2449	2167.5124	7202.5	6313.5
946.3799	2169.0195	7175.2	6284.15
946.5148	2170.526	7171.85	6281.2
946.6498	2172.0317	7152.75	6263.95
946.7846	2173.5367	7135.2	6245
946.9195	2175.0409	7126.4	6237.45
947.0543	2176.5445	7101.9	6213.1
947.1891	2178.0473	7079.85	6190
947.3239	2179.5494	7037	6142.55
947.4587	2181.0507	7033.7	6142.8
947.5934	2182.5513	6998.25	6108.75
947.7281	2184.0512	6981	6089.65
947.8628	2185.5504	6968.95	6079.75
947.9974	2187.0488	6921.35	6034.8
948.132	2188.5465	6904.6	6017.8
948.2666	2190.0435	6894.25	6005.7
948.4012	2191.5397	6872.85	5985.2
948.5357	2193.0353	6844.6	5954.8
948.6702	2194.5301	6822.7	5930.55
948.8047	2196.0241	6805.55	5911.9
948.9392	2197.5175	6780.55	5890.8
949.0736	2199.0101	6776.7	5880.45
949.208	2200.502	6733.15	5845.2
949.3424	2201.9931	6713.6	5825.4
949.4767	2203.4835	6679.2	5789.4
949.611	2204.9733	6672.5	5779.45
949.7453	2206.4622	6648.45	5763.4
949.8796	2207.9505	6633.85	5746
950.0138	2209.438	6602.15	5716.4
950.148	2210.9248	6588.05	5697.85
950.2822	2212.4109	6565.9	5678.95
950.4164	2213.8962	6553.45	5662.65
950.5505	2215.3809	6539.35	5647.2
950.6846	2216.8648	6540.45	5644.85
950.8186	2218.3479	6520.15	5623
950.9527	2219.8304	6476.45	5581.15
951.0867	2221.3121	6456.2	5562.35
951.2207	2222.7931	6420.65	5527.75
951.3546	2224.2733	6396.05	5504.85
951.4886	2225.7529	6382.6	5493.05
951.6225	2227.2317	6373.2	5483.45
951.7563	2228.7098	6348.55	5463.5
951.8902	2230.1872	6317.75	5430.65
952.024	2231.6638	6304.75	5419.05
952.1578	2233.1397	6277.65	5386.55
952.2916	2234.6149	6267.5	5380.85
952.4253	2236.0894	6252.95	5362.35
952.559	2237.5632	6271.95	5382.8
952.6927	2239.0362	6239.45	5353.45
952.8263	2240.5085	6223.1	5333.25
952.9599	2241.9801	6190.25	5299
953.0935	2243.4509	6170.45	5280.1
953.2271	2244.921	6160.75	5267.45
953.3606	2246.3904	6124	5230.9
953.4941	2247.8591	6099.4	5206.8
953.6276	2249.3271	6094.75	5204.5
953.7611	2250.7943	6079.65	5188.25
953.8945	2252.2608	6030.05	5140.15
954.0279	2253.7266	6017.05	5126.75
954.1612	2255.1917	6010.7	5121.95
954.2946	2256.656	5998.05	5110.3
954.4279	2258.1197	5974.65	5087.6
954.5612	2259.5826	5971.35	5080.7
954.6944	2261.0447	5957.1	5065.85
954.8276	2262.5062	5912.45	5019.2
954.9608	2263.9669	5913.9	5018.85
955.094	2265.4269	5913.35	5022.8
955.2271	2266.8862	5901.55	5011.6
955.3602	2268.3448	5885.65	4997
955.4933	2269.8026	5844.95	4955.6
955.6264	2271.2598	5839.2	4952.3
955.7594	2272.7162	5838	4949
955.8924	2274.1719	5827.7	4935.75
956.0253	2275.6268	5793.25	4899.35
956.1583	2277.0811	5805.75	4912.95
956.2912	2278.5346	5779.7	4891.4
956.4241	2279.9874	5760.65	4875.25
956.5569	2281.4395	5773.4	4885.8
956.6897	2282.8908	5734.2	4842.1
956.8225	2284.3414	5725.05	4834.05
956.9553	2285.7914	5704.25	4816.25
957.088	2287.2406	5681.95	4787.85
957.2207	2288.689	5653.5	4759.85
957.3534	2290.1368	5651.15	4756.9
957.486	2291.5838	5650.8	4754.55
957.6186	2293.0302	5643.95	4751.5
957.7512	2294.4758	5620.9	4729.2
957.8838	2295.9206	5593.8	4701.7
958.0163	2297.3648	5572.35	4683.4
958.1488	2298.8082	5556.95	4665.7
958.2813	2300.251	5540.4	4648.9
958.4137	2301.693	5530.2	4635.55
958.5461	2303.1343	5548.25	4654.8
958.6785	2304.5748	5497.9	4606.95
958.8108	2306.0147	5468.5	4578.9
958.9432	2307.4538	5468.15	4579.25
959.0754	2308.8922	5448.3	4562.9
959.2077	2310.3299	5422.2	4534.5
959.3399	2311.7669	5394	4505.8
959.4721	2313.2031	5387.9	4498.15
959.6043	2314.6387	5377.4	4486.15
959.7365	2316.0735	5353.65	4462.3
959.8686	2317.5076	5344.4	4453.65
960.0006	2318.941	5348.15	4456.45
960.1327	2320.3737	5331.1	4439
960.2647	2321.8056	5302.1	4407.6
960.3967	2323.2369	5303.25	4413.6
960.5287	2324.6674	5295.15	4402.95
960.6606	2326.0972	5275.6	4383.4
960.7925	2327.5263	5244.4	4350.9
960.9244	2328.9547	5234.75	4341.95
961.0562	2330.3823	5228.35	4336.4
961.1881	2331.8092	5222.55	4325.95
961.3198	2333.2355	5201.9	4308.6
961.4516	2334.661	5183.8	4292.1
961.5833	2336.0858	5177.3	4280.85
961.715	2337.5098	5175.95	4286
961.8467	2338.9332	5149.8	4257.75
961.9783	2340.3558	5145.4	4252.25
962.1099	2341.7778	5122.25	4230.65
962.2415	2343.199	5099.25	4208.35
962.373	2344.6195	5083	4195.4
962.5045	2346.0393	5066.15	4177.15
962.636	2347.4583	5069.3	4179.9
962.7675	2348.8767	5044.2	4151.9
962.8989	2350.2943	5044.9	4151.75
963.0303	2351.7113	5025.95	4136
963.1617	2353.1275	5022.9	4129.7
963.293	2354.543	5024.8	4107.9
963.4243	2355.9578	4988.3	4096.45
963.5556	2357.3718	4957.6	4067.65
963.6868	2358.7852	4954.9	4065.45
963.818	2360.1978	4920.3	4029.95
963.9492	2361.6098	4921.55	4031.4
964.0803	2363.021	4906.5	4012.2
964.2114	2364.4315	4901.8	4010.55
964.3425	2365.8413	4883.7	3989.7
964.4736	2367.2504	4861.25	3973.35
964.6046	2368.6587	4839.05	3951.35
964.7356	2370.0664	4826.65	3938.45
964.8666	2371.4733	4819.25	3929.5
964.9975	2372.8795	4804.45	3916.55
965.1284	2374.285	4799.2	3910.1
965.2593	2375.6899	4748.7	3860.4
965.3901	2377.0939	4726.7	3836.9
965.5209	2378.4973	4732.65	3846.05
965.6517	2379.9	4709.95	3821.25
965.7825	2381.3019	4700.8	3811.6
965.9132	2382.7032	4672.5	3785.95
966.0439	2384.1037	4643.95	3757.25
966.1745	2385.5035	4656.75	3769.95
966.3051	2386.9027	4639.75	3754
966.4357	2388.3011	4634.3	3744.85
966.5663	2389.6987	4620	3732.25
966.6968	2391.0957	4604.95	3717.75
966.8273	2392.492	4583.95	3695.9
966.9578	2393.8876	4573.45	3685.55
967.0882	2395.2824	4557.7	3669.5
967.2186	2396.6765	4524.55	3635.35
967.349	2398.07	4509.25	3618.15
967.4793	2399.4627	4508.95	3619.2
967.6097	2400.8547	4509.4	3620.6
967.7399	2402.246	4495.15	3600.15
967.8702	2403.6366	4456.05	3565.4
968.0004	2405.0265	4447	3560
968.1306	2406.4156	4431.45	3539
968.2607	2407.8041	4428.9	3536.45
968.3909	2409.1918	4406.1	3514.1
968.521	2410.5789	4387.75	3497.85
968.651	2411.9652	4377	3485
968.781	2413.3508	4379.4	3488.1
968.911	2414.7358	4354.7	3465.9
969.041	2416.12	4326.45	3438.85
969.1709	2417.5035	4329.85	3439.6
969.3008	2418.8863	4312.2	3420.3
969.4307	2420.2684	4304.3	3416.2
969.5606	2421.6497	4285.85	3396
969.6904	2423.0304	4239.65	3351.75
969.8201	2424.4104	4274.6	3387.25
969.9499	2425.7896	4245.7	3355.35
970.0796	2427.1682	4241.95	3351.7
970.2093	2428.546	4222.35	3331.85
970.3389	2429.9232	4208.65	3319.25
970.4685	2431.2996	4210.4	3321.75
970.5981	2432.6753	4199	3309.75
970.7277	2434.0503	4191.85	3302.4
970.8572	2435.4246	4176.5	3287.75
970.9867	2436.7982	4171.25	3281.1
971.1161	2438.1711	4133.55	3243.95
971.2456	2439.5433	4110.35	3222.15
971.375	2440.9148	4121.9	3227.45
971.5043	2442.2856	4102.95	3212.8
971.6336	2443.6557	4111.7	3221.35
971.7629	2445.025	4092.15	3202.5
971.8922	2446.3937	4081.3	3189.2
972.0214	2447.7617	4073.5	3183.65
972.1506	2449.1289	4058.85	3170.05
972.2798	2450.4955	4042.85	3151.2
972.4089	2451.8613	4037.8	3148.7
972.538	2453.2265	4029.85	3139.85
972.6671	2454.5909	4032.25	3142.1
972.7961	2455.9546	4009.35	3119.5
972.9251	2457.3177	3982.65	3094.85
973.0541	2458.68	3977.15	3086.15
973.1831	2460.0416	3981.7	3091.75
973.312	2461.4025	3974.5	3085.35
973.4408	2462.7627	3976.05	3077.1
973.5697	2464.1222	3954.3	3067.75
973.6985	2465.4811	3933.25	3047.2
973.8273	2466.8392	3924.7	3039.3
973.956	2468.1966	3925	3033.55
974.0847	2469.5533	3924.6	3031.9
974.2134	2470.9093	3926.25	3035.05
974.3421	2472.2645	3894.15	3001.5
974.4707	2473.6191	3892.8	3003.55
974.5993	2474.973	3881.8	2992.1
974.7278	2476.3262	3868.7	2979.15
974.8563	2477.6787	3858.3	2971.05
974.9848	2479.0305	3828.2	2939.55
975.1132	2480.3816	3835.05	2944.25
975.2417	2481.7319	3827.8	2936.55
975.37	2483.0816	3809.65	2920.05
975.4984	2484.4306	3796.35	2907.35
975.6267	2485.7789	3785.9	2901.15
975.755	2487.1264	3770.75	2881.3
975.8833	2488.4733	3766.75	2879.4
976.0115	2489.8195	3750.3	2847.1
976.1397	2491.165	3741.75	2847.3
976.2678	2492.5097	3730.8	2840.3
976.3959	2493.8538	3713	2826.6
976.524	2495.1972	3695.75	2806.55
976.6521	2496.5398	3683.7	2793.15
976.7801	2497.8818	3684.75	2793.25
976.9081	2499.2231	3662.15	2771
977.036	2500.5637	3658.3	2766.6
977.164	2501.9035	3652.95	2762
977.2918	2503.2427	3642.3	2749.05
977.4197	2504.5812	3625.95	2737.1
977.5475	2505.919	3629.2	2737.85
977.6753	2507.256	3622.2	2732.95
977.8031	2508.5924	3601.8	2712.35
977.9308	2509.9281	3600.85	2705.55
978.0585	2511.2631	3581.2	2694.15
978.1861	2512.5974	3575.85	2688.75
978.3137	2513.9309	3552.7	2663.45
978.4413	2515.2638	3587.95	2675
978.5689	2516.596	3543.55	2653.05
978.6964	2517.9275	3548.4	2657.5
978.8239	2519.2583	3528.1	2638.1
978.9513	2520.5884	3492.75	2603.2
979.0788	2521.9178	3499.75	2610.3
979.2062	2523.2465	3498.4	2611.9
979.3335	2524.5745	3488.85	2598.85
979.4608	2525.9018	3471.5	2583.45
979.5881	2527.2284	3455.95	2568.2
979.7154	2528.5543	3462.55	2575.85
979.8426	2529.8796	3443.45	2554
979.9698	2531.2041	3442.75	2553.8
980.0969	2532.5279	3443.55	2557
980.224	2533.851	3445.8	2557.8
980.3511	2535.1735	3422.6	2532.7
980.4781	2536.4952	3415.95	2526.3
980.6052	2537.8163	3411.2	2520.15
980.7321	2539.1366	3410.45	2521.6
980.8591	2540.4562	3394.4	2505.4
980.986	2541.7752	3377	2486.9
981.1129	2543.0935	3384.9	2495.75
981.2397	2544.411	3380.4	2488.3
981.3665	2545.7279	3385.75	2496.85
981.4933	2547.0441	3365.85	2473.9
981.62	2548.3596	3363.65	2469.95
981.7467	2549.6744	3365.9	2477.3
981.8734	2550.9885	3343.25	2451.7
982.0001	2552.3019	3323.95	2434.45
982.1267	2553.6146	3327.45	2436.95
982.2532	2554.9266	3319.65	2431.7
982.3798	2556.2379	3297.1	2405.6
982.5063	2557.5485	3308.75	2418.4
982.6327	2558.8585	3295.75	2399.2
982.7592	2560.1677	3274.25	2381.8
982.8856	2561.4762	3279.7	2388.45
983.0119	2562.7841	3276.5	2383.75
983.1383	2564.0913	3269.6	2378.9
983.2646	2565.3977	3271.05	2382.7
983.3908	2566.7035	3270.75	2382.25
983.517	2568.0086	3256.6	2367.2
983.6432	2569.313	3247.55	2357.15
983.7694	2570.6167	3239.85	2346.55
983.8955	2571.9197	3226.95	2337.45
984.0216	2573.222	3220.35	2328
984.1476	2574.5236	3219.1	2329.3
984.2737	2575.8246	3214.15	2324.35
984.3996	2577.1248	3212.9	2320.35
984.5256	2578.4244	3218.9	2331.7
984.6515	2579.7232	3202.2	2311.95
984.7774	2581.0214	3225.45	2304.05
984.9032	2582.3189	3195.7	2305.45
985.029	2583.6157	3184.95	2290.95
985.1548	2584.9118	3192.6	2301.95
985.2806	2586.2072	3171.6	2282.7
985.4063	2587.5019	3174.85	2284
985.5319	2588.7959	3170.05	2282.6
985.6576	2590.0893	3177.55	2286.5
985.7832	2591.3819	3169	2280.1
985.9087	2592.6739	3155.05	2265.25
986.0343	2593.9652	3149.6	2257.3
986.1597	2595.2557	3149.1	2258.65
986.2852	2596.5456	3132.65	2240.45
986.4106	2597.8348	3136	2246.65
986.536	2599.1234	3118.95	2230.25
986.6614	2600.4112	3123.25	2232.45
986.7867	2601.6983	3100.8	2205.7
986.912	2602.9848	3108.4	2216.9
987.0372	2604.2705	3094.25	2196.2
987.1624	2605.5556	3093.85	2204.95
987.2876	2606.84	3076.75	2188.45
987.4128	2608.1237	3072.35	2181.15
987.5379	2609.4067	3060.95	2168.95
987.6629	2610.689	3061.7	2159.45
987.788	2611.9707	3046.1	2152.95
987.913	2613.2516	3052.8	2157.55
988.0379	2614.5319	3028.2	2139.8
988.1629	2615.8115	3025.05	2134
988.2878	2617.0903	3013.6	2121.25
988.4126	2618.3685	3001.8	2111.7
988.5375	2619.6461	3004.2	2112.4
988.6622	2620.9229	2990.6	2102.1
988.787	2622.199	2989.15	2100
988.9117	2623.4745	2983.8	2093.05
989.0364	2624.7493	2972.3	2082.55
989.161	2626.0234	2958.7	2069.7
989.2857	2627.2968	2963.6	2075.15
989.4102	2628.5695	2956.85	2067.4
989.5348	2629.8415	2942.4	2050.75
989.6593	2631.1128	2929.1	2037.65
989.7837	2632.3835	2920.45	2030.65
989.9082	2633.6535	2920.8	2032.25
990.0326	2634.9228	2911.3	2021.55
990.1569	2636.1914	2911.3	2021.65
990.2812	2637.4593	2894.2	2002
990.4055	2638.7265	2905.45	2014.65
990.5298	2639.9931	2886.35	1996.25
990.654	2641.259	2880	1988.85
990.7782	2642.5242	2887.65	1996.15
990.9023	2643.7887	2870.9	1980.85
991.0264	2645.0525	2851.45	1961.95
991.1505	2646.3156	2866	1972.35
991.2745	2647.5781	2851	1961.6
991.3985	2648.8398	2843.05	1954
991.5225	2650.1009	2851.3	1936.55
991.6464	2651.3613	2827.9	1936.65
991.7703	2652.6211	2818.7	1929.9
991.8942	2653.8801	2792.05	1903.5
992.018	2655.1385	2800.85	1908.7
992.1418	2656.3961	2791.85	1903.8
992.2655	2657.6531	2800.2	1910.75
992.3892	2658.9094	2793.05	1902.1
992.5129	2660.1651	2788.1	1899.2
992.6366	2661.42	2779.7	1891.7
992.7602	2662.6743	2787.45	1895.95
992.8837	2663.9279	2788.1	1899.15
993.0073	2665.1808	2793	1903.8
993.1307	2666.433	2785.2	1895.05
993.2542	2667.6846	2769.5	1880.8
993.3776	2668.9354	2759.95	1867.3
993.501	2670.1856	2758.7	1868.05
993.6244	2671.4351	2776.35	1887.6
993.7477	2672.6839	2759.8	1870.05
993.8709	2673.9321	2742	1853.15
993.9942	2675.1795	2760.45	1872.65
994.1174	2676.4263	2745.15	1857.8
994.2405	2677.6724	2732.15	1842.8
994.3637	2678.9179	2734.05	1844.5
994.4868	2680.1626	2733	1843.15
994.6098	2681.4067	2729.1	1838.8
994.7328	2682.6501	2728.6	1839.2
994.8558	2683.8928	2735.45	1847.9
994.9788	2685.1348	2708.6	1821.35
995.1017	2686.3761	2701.2	1812.2
995.2245	2687.6168	2696.45	1807.9
995.3474	2688.8568	2692.1	1805.75
995.4702	2690.0961	2686.4	1801.5
995.5929	2691.3348	2680.8	1791.05
995.7156	2692.5727	2658.5	1768.15
995.8383	2693.81	2653.85	1763.45
995.961	2695.0466	2656.35	1768.4
996.0836	2696.2826	2643.55	1755.45
996.2062	2697.5178	2640.8	1749.4
996.3287	2698.7524	2631.55	1741.75
996.4512	2699.9863	2636.4	1748.5
996.5737	2701.2195	2633.15	1746.3
996.6961	2702.452	2621.25	1731.5
996.8185	2703.6839	2622.1	1732.55
996.9408	2704.9151	2629.1	1741.45
997.0631	2706.1456	2638.15	1750.1
997.1854	2707.3755	2629.2	1741.3
997.3077	2708.6046	2633.9	1742.95
997.4299	2709.8331	2630.4	1742.05
997.552	2711.0609	2633.1	1744.55
997.6742	2712.2881	2626.6	1736.75
997.7963	2713.5145	2638.2	1746.9
997.9183	2714.7403	2651.4	1762.9
998.0403	2715.9654	2649.6	1761
998.1623	2717.1899	2655.6	1753.4
998.2842	2718.4136	2666.65	1776.65
998.4062	2719.6367	2676.8	1788.85
998.528	2720.8591	2682.75	1787.6
998.6498	2722.0809	2678.5	1788.9
998.7716	2723.3019	2681.3	1790.1
998.8934	2724.5223	2689.05	1799.2
999.0151	2725.7421	2682.15	1793.95
999.1368	2726.9611	2689.9	1800.65
999.2584	2728.1795	2686.1	1794.25
999.38	2729.3972	2665.25	1777.1
999.5016	2730.6142	2656.8	1757.35
999.6231	2731.8306	2620.2	1730.5
999.7446	2733.0462	2605.85	1714.65
999.8661	2734.2612	2586.45	1693.5
999.9875	2735.4756	2565.55	1675.3
1000.1089	2736.6892	2537.65	1648.5
1000.2302	2737.9022	2518.25	1632.15
1000.3515	2739.1145	2509.25	1623.1
1000.4728	2740.3262	2503.3	1608.45
1000.594	2741.5372	2472.5	1585.55
1000.7152	2742.7475	2455.8	1566.9
1000.8363	2743.9571	2453.05	1564.3
1000.9575	2745.1661	2441.1	1550.45
1001.0785	2746.3744	2419.85	1529.5
1001.1996	2747.582	2419.5	1531.45
1001.3206	2748.7889	2402.55	1513.2
1001.4415	2749.9952	2390.8	1504.95
1001.5625	2751.2008	2377.2	1491.05
1001.6833	2752.4057	2376.05	1485
1001.8042	2753.61	2358.6	1469.75
1001.925	2754.8136	2356.4	1467.3
1002.0458	2756.0165	2346.7	1458.3
1002.1665	2757.2188	2354.45	1468.9
1002.2872	2758.4204	2338.95	1450.45
1002.4078	2759.6213	2338.45	1448.65
1002.5285	2760.8215	2341.5	1449.55
1002.649	2762.0211	2326.1	1435.9
1002.7696	2763.22	2332.15	1441.95
1002.8901	2764.4182	2310.55	1422.15
1003.0106	2765.6158	2317.4	1429.45
1003.131	2766.8127	2308.35	1420.8
1003.2514	2768.009	2295.6	1407.95
1003.3717	2769.2045	2294.65	1408.65
1003.492	2770.3994	2290.45	1397.7
1003.6123	2771.5936	2289.6	1401
1003.7325	2772.7872	2269.3	1383.4
1003.8527	2773.9801	2269.85	1380.7
1003.9729	2775.1723	2278.5	1375.8
1004.093	2776.3639	2263.3	1377.85
1004.2131	2777.5548	2265.7	1376.75
1004.3331	2778.745	2248.4	1358.45
1004.4531	2779.9346	2247.5	1360.45
1004.5731	2781.1235	2258.45	1371.25
1004.693	2782.3117	2254.1	1367.25
1004.8129	2783.4992	2248.6	1361.55
1004.9328	2784.6861	2244.95	1357.6
1005.0526	2785.8723	2256.7	1367.35
1005.1723	2787.0579	2255.45	1368.15
1005.2921	2788.2428	2274.9	1388.65
1005.4118	2789.427	2262.35	1377.7
1005.5314	2790.6106	2267.1	1381.75
1005.651	2791.7935	2276.45	1388.95
1005.7706	2792.9757	2286.45	1399.5
1005.8902	2794.1573	2292.9	1403.8
1006.0097	2795.3382	2299.5	1412.2
1006.1291	2796.5184	2315.15	1428.8
1006.2485	2797.698	2330.05	1440.25
1006.3679	2798.8769	2341.15	1453.3
1006.4873	2800.0551	2366.35	1480.05
1006.6066	2801.2327	2372.75	1485.5
1006.7258	2802.4096	2381.1	1494.8
1006.8451	2803.5859	2414.1	1527
1006.9642	2804.7615	2415.35	1527.2
1007.0834	2805.9364	2444.9	1558.15
1007.2025	2807.1106	2464.25	1576.85
1007.3216	2808.2842	2494.1	1608.1
1007.4406	2809.4572	2526.15	1640.45
1007.5596	2810.6294	2574.8	1686.85
1007.6785	2811.801	2604.05	1719.75
1007.7975	2812.972	2636.35	1751.4
1007.9163	2814.1423	2689.05	1803.8
1008.0352	2815.3119	2732.15	1844.9
1008.154	2816.4808	2770.55	1885.5
1008.2727	2817.6491	2819.8	1934.45
1008.3914	2818.8167	2866.1	1980
1008.5101	2819.9837	2909.05	2018.95
1008.6288	2821.15	2953.05	2065.35
1008.7474	2822.3157	2996.9	2112.05
1008.8659	2823.4807	3046.85	2161.7
1008.9844	2824.645	3099.25	2212
1009.1029	2825.8086	3123.3	2239.05
1009.2214	2826.9716	3162	2276.6
1009.3398	2828.134	3204.9	2321.55
1009.4581	2829.2957	3236.4	2349.5
1009.5764	2830.4567	3256.2	2371.45
1009.6947	2831.617	3280.4	2395.25
1009.813	2832.7767	3289.75	2405.25
1009.9312	2833.9358	3281.3	2397
1010.0493	2835.0941	3274.1	2386
1010.1675	2836.2519	3271.95	2386.3
1010.2855	2837.4089	3242.8	2355.3
1010.4036	2838.5653	3237.85	2352.1
1010.5216	2839.7211	3231.35	2347.6
1010.6396	2840.8761	3245.8	2357.8
1010.7575	2842.0306	3260.8	2374.3
1010.8754	2843.1843	3295.7	2411.7
1010.9932	2844.3374	3341.95	2454.4
1011.111	2845.4899	3411.95	2523.9
1011.2288	2846.6417	3478.45	2592.85
1011.3465	2847.7928	3553.65	2668.15
1011.4642	2848.9433	3640.35	2755.1
1011.5818	2850.0931	3707.95	2823.2
1011.6995	2851.2422	3785.35	2897.3
1011.817	2852.3907	3865.2	2977.3
1011.9345	2853.5385	3944.25	3055.65
1012.052	2854.6857	3991.6	3097
1012.1695	2855.8323	4023.2	3138.45
1012.2869	2856.9781	4078.55	3193.1
1012.4042	2858.1233	4130	3245.55
1012.5216	2859.2679	4183.3	3296.65
1012.6389	2860.4118	4221.25	3334.65
1012.7561	2861.555	4259.2	3370.65
1012.8733	2862.6976	4289.25	3401.5
1012.9905	2863.8395	4317.25	3433.8
1013.1076	2864.9808	4333.7	3450.4
1013.2247	2866.1214	4335.75	3453.15
1013.3417	2867.2614	4374.55	3488.95
1013.4587	2868.4007	4373.3	3485.75
1013.5757	2869.5393	4378.75	3490.8
1013.6926	2870.6773	4393.75	3505.75
1013.8095	2871.8146	4395.05	3505.45
1013.9263	2872.9513	4400.85	3512.5
1014.0431	2874.0874	4392.45	3507.25
1014.1599	2875.2227	4396.95	3511.45
1014.2766	2876.3574	4370.4	3485.1
1014.3933	2877.4915	4343.55	3460.1
1014.51	2878.6249	4312.05	3429.25
1014.6266	2879.7577	4283.45	3396.3
1014.7431	2880.8898	4277.2	3380.65
1014.8596	2882.0212	4249.25	3363.85
1014.9761	2883.152	4224.1	3339.5
1015.0925	2884.2821	4202.7	3319.1
1015.2089	2885.4116	4191.55	3307.7
1015.3253	2886.5405	4201.6	3314.25
1015.4416	2887.6686	4220.5	3332.3
1015.5579	2888.7962	4196.95	3311.8
1015.6741	2889.923	4216.4	3330.65
1015.7903	2891.0493	4212.7	3327.45
1015.9065	2892.1748	4226.8	3342.3
1016.0226	2893.2997	4228.85	3342.65
1016.1387	2894.424	4244.65	3360.75
1016.2547	2895.5476	4281.05	3397.3
1016.3707	2896.6706	4284.3	3400.95
1016.4866	2897.7929	4319.35	3436.1
1016.6025	2898.9145	4341.45	3457.75
1016.7184	2900.0355	4377.95	3493.05
1016.8342	2901.1559	4410.3	3523.6
1016.95	2902.2756	4433.8	3548.6
1017.0658	2903.3946	4450.95	3566.25
1017.1815	2904.513	4487.95	3600
1017.2971	2905.6308	4511.2	3626.75
1017.4127	2906.7479	4526.5	3641.1
1017.5283	2907.8643	4548.55	3662.95
1017.6439	2908.9801	4547.05	3662.7
1017.7594	2910.0953	4563.15	3679.25
1017.8748	2911.2098	4578.65	3689.9
1017.9902	2912.3236	4549	3656.7
1018.1056	2913.4368	4544.15	3656.9
1018.2209	2914.5494	4524.55	3638.45
1018.3362	2915.6613	4495.05	3603.2
1018.4515	2916.7725	4459	3571.55
1018.5667	2917.8831	4441.1	3553.65
1018.6819	2918.9931	4408.35	3524
1018.797	2920.1024	4381.3	3496.6
1018.9121	2921.211	4351.6	3466.95
1019.0271	2922.319	4330.65	3445.95
1019.1421	2923.4264	4315.55	3432.3
1019.2571	2924.5331	4293.5	3409.65
1019.372	2925.6391	4280.25	3398.2
1019.4869	2926.7445	4256.5	3371.7
1019.6017	2927.8493	4260.3	3375.35
1019.7165	2928.9534	4251.7	3364.45
1019.8313	2930.0569	4221.5	3331.85
1019.946	2931.1597	4230.85	3346.3
1020.0606	2932.2619	4200.15	3315.95
1020.1753	2933.3634	4197.85	3315.05
1020.2899	2934.4643	4197.95	3308.6
1020.4044	2935.5645	4159	3269.55
1020.5189	2936.6641	4124.1	3234.05
1020.6334	2937.763	4072.6	3188.75
1020.7478	2938.8613	4023.05	3138.15
1020.8622	2939.959	3968.9	3079.95
1020.9765	2941.056	3885.2	3001.85
1021.0908	2942.1523	3794.45	2908.1
1021.2051	2943.248	3719.2	2835.55
1021.3193	2944.3431	3613.2	2730.95
1021.4334	2945.4375	3503.85	2619.65
1021.5476	2946.5313	3414.8	2533
1021.6617	2947.6244	3299.05	2414.45
1021.7757	2948.7169	3190.1	2306.25
1021.8897	2949.8087	3095.5	2209.9
1022.0037	2950.8999	2991.35	2106.95
1022.1176	2951.9904	2900.15	2015.95
1022.2315	2953.0803	2835.1	1949.7
1022.3453	2954.1696	2762.9	1878.15
1022.4591	2955.2582	2705.05	1822.15
1022.5728	2956.3462	2655.9	1772.55
1022.6865	2957.4335	2622.1	1737.8
1022.8002	2958.5202	2589.65	1704.8
1022.9138	2959.6062	2545	1661.8
1023.0274	2960.6916	2517.15	1634.1
1023.141	2961.7764	2491.85	1608.35
1023.2545	2962.8605	2487.25	1602.45
1023.3679	2963.9439	2469.4	1585.9
1023.4813	2965.0267	2462.55	1578.75
1023.5947	2966.1089	2468.3	1561.9
1023.708	2967.1905	2442	1557.9
1023.8213	2968.2714	2429.45	1547.1
1023.9346	2969.3516	2425.75	1542.65
1024.0478	2970.4312	2437.4	1546.6
1024.1609	2971.5102	2440.3	1554.9
1024.274	2972.5885	2413.2	1530.05
1024.3871	2973.6662	2421.35	1530.5
1024.5002	2974.7432	2424.4	1542.65
1024.6132	2975.8196	2407.35	1523.2
1024.7261	2976.8954	2396.9	1513.65
1024.839	2977.9705	2391	1506.4
1024.9519	2979.045	2369.35	1485.25
1025.0647	2980.1188	2345.25	1462
1025.1775	2981.192	2338	1455.3
1025.2902	2982.2645	2317.9	1433
1025.4029	2983.3364	2284.35	1400.65
1025.5156	2984.4077	2245.4	1360.85
1025.6282	2985.4783	2217.65	1328.05
1025.7407	2986.5483	2184.4	1300.65
1025.8532	2987.6177	2159	1275.65
1025.9657	2988.6864	2115.4	1233.15
1026.0782	2989.7545	2069.4	1184.3
1026.1906	2990.8219	2042.15	1158.85
1026.3029	2991.8887	1991.6	1106.85
1026.4152	2992.9548	1972.05	1086.3
1026.5275	2994.0204	1940.3	1059.05
1026.6397	2995.0852	1905.25	1024.3
1026.7519	2996.1495	1889.25	1005.7
1026.864	2997.2131	1863.15	979.25
1026.9761	2998.276	1837.95	953.8
1027.0882	2999.3383	1811.45	928.2
1027.2002	3000.4	1793.8	909.2
1027.3122	3001.4611	1778.45	895.75
1027.4241	3002.5215	1755	873.4
1027.536	3003.5812	1749.5	867.45
1027.6478	3004.6404	1735.9	853.5
1027.7596	3005.6989	1728.45	843.75
1027.8714	3006.7567	1722.95	839.8
1027.9831	3007.8139	1721.05	818.45
1028.0947	3008.8705	1701.75	818.2
1028.2064	3009.9264	1708.55	807.9
1028.3179	3010.9818	1682.85	797.1
1028.4295	3012.0364	1684.05	798.55
1028.541	3013.0905	1684.65	800.15
1028.6524	3014.1439	1668.55	785.9
1028.7638	3015.1966	1673.25	790.5
1028.8752	3016.2487	1668.35	785.3
1028.9865	3017.3002	1674.95	783.3
1029.0978	3018.3511	1663.9	781.2
1029.209	3019.4013	1660.75	778.1
1029.3202	3020.4509	1664.65	780.7
1029.4314	3021.4998	1665.15	780.6
1029.5425	3022.5481	1659.75	777.15
1029.6535	3023.5958	1665.4	782.65
1029.7645	3024.6428	1663.9	779.35
1029.8755	3025.6892	1653.5	771.25
1029.9864	3026.735	1666.75	784.7
1030.0973	3027.7802	1664.35	779.15
1030.2082	3028.8247	1671.05	788.95
1030.319	3029.8685	1662.75	778.7
1030.4297	3030.9118	1672.3	787.9
1030.5404	3031.9544	1664.7	782.4
1030.6511	3032.9963	1676.9	792.7
1030.7617	3034.0376	1683.9	800.55
1030.8723	3035.0783	1675.25	788.25
1030.9829	3036.1184	1691.6	808.75
1031.0934	3037.1578	1684.45	802.1
1031.2038	3038.1966	1692.3	808.05
1031.3142	3039.2348	1684	800.5
1031.4246	3040.2723	1698.8	807.75
1031.5349	3041.3092	1681.8	800.4
1031.6452	3042.3455	1681.05	798.05
1031.7554	3043.3811	1674.35	788.7
1031.8656	3044.4161	1672.2	788.7
1031.9758	3045.4505	1666.7	787.15
1032.0859	3046.4842	1658.75	775.5
1032.1959	3047.5173	1644.5	763.1
1032.3059	3048.5498	1645.1	759.85
1032.4159	3049.5816	1637.35	752.9
1032.5258	3050.6128	1617.3	733.65
1032.6357	3051.6434	1612.2	729.1
1032.7455	3052.6734	1617.2	734
1032.8553	3053.7027	1598.1	715.65
1032.9651	3054.7314	1586.05	702.55
1033.0748	3055.7594	1576.65	695.65
1033.1845	3056.7868	1577.6	695.15
1033.2941	3057.8136	1578.6	696.5
1033.4037	3058.8398	1568.2	684.75
1033.5132	3059.8653	1564.6	683.4
1033.6227	3060.8902	1552.75	668.45
1033.7321	3061.9145	1548.95	665.35
1033.8415	3062.9381	1541	658.8
1033.9509	3063.9612	1547.6	649.5
1034.0602	3064.9835	1518.2	633.75
1034.1694	3066.0053	1520.65	635.6
1034.2787	3067.0264	1508.4	627.1
1034.3878	3068.0469	1505.7	621.4
1034.497	3069.0668	1497.6	612.15
1034.6061	3070.086	1479.1	597.4
1034.7151	3071.1046	1479.35	594.1
1034.8241	3072.1226	1475.75	592.9
1034.9331	3073.1399	1452.4	570.3
1035.042	3074.1567	1448.8	566.55
1035.1508	3075.1727	1437.9	552.75
1035.2597	3076.1882	1421.5	540.15
1035.3684	3077.203	1416.85	534.85
1035.4772	3078.2173	1412.25	529.4
1035.5859	3079.2308	1398.9	512.9
1035.6945	3080.2438	1384.4	499.3
1035.8031	3081.2561	1374.8	492.6
1035.9117	3082.2678	1371.3	489.45
1036.0202	3083.2789	1368.15	485.65
1036.1286	3084.2893	1354.45	472.65
1036.2371	3085.2991	1350.1	468.35
1036.3454	3086.3083	1341	456.4
1036.4538	3087.3169	1339.9	456.15
1036.562	3088.3248	1331.1	447.8
1036.6703	3089.3321	1320.05	434.55
1036.7785	3090.3388	1322.6	441
1036.8866	3091.3449	1312.3	428.95
1036.9948	3092.3503	1301.9	417.15
1037.1028	3093.3551	1303.7	424.1
1037.2108	3094.3593	1302.1	421.25
1037.3188	3095.3629	1293.45	411.45
1037.4267	3096.3658	1293.55	410.15
1037.5346	3097.3681	1283.4	402.05
1037.6425	3098.3698	1289.5	404.35
1037.7503	3099.3708	1286.5	398.05
1037.858	3100.3713	1273	389.85
1037.9657	3101.3711	1272.7	389.2
1038.0734	3102.3702	1400.3	381.15
1038.181	3103.3688	1270.65	387.15
1038.2886	3104.3667	1265.3	383.9
1038.3961	3105.364	1254.1	372.15
1038.5036	3106.3607	1256.9	371.6
1038.611	3107.3568	1259.25	376.1
1038.7184	3108.3522	1250.4	369.4
1038.8257	3109.347	1249.15	364.9
1038.933	3110.3412	1250.25	365.1
1039.0403	3111.3348	1246.2	365.8
1039.1475	3112.3277	1236.7	352.35
1039.2547	3113.32	1234.75	353.2
1039.3618	3114.3117	1232.55	349.15
1039.4689	3115.3028	1237.75	354.5
1039.5759	3116.2932	1239.1	355.1
1039.6829	3117.2831	1238.85	352.35
1039.7898	3118.2723	1226.15	344.45
1039.8967	3119.2608	1224.25	342.1
1040.0035	3120.2488	1225.2	342.2
1040.1103	3121.2361	1217.85	335.75
1040.2171	3122.2229	1219.3	337.45
1040.3238	3123.209	1212.75	331.25
1040.4305	3124.1944	1211.2	331.25
1040.5371	3125.1793	1216.9	332.45
1040.6437	3126.1635	1208.95	328.3
1040.7502	3127.1471	1211	330.5
1040.8567	3128.1301	1210.15	327.45
1040.9631	3129.1125	1201.6	321.9
1041.0695	3130.0942	1198.15	314.55
1041.1759	3131.0753	1212.7	324.1
1041.2822	3132.0558	1202.2	317.05
1041.3884	3133.0357	1196.5	313.25
1041.4946	3134.015	1201.1	318.65
1041.6008	3134.9936	1195.95	311.65
1041.7069	3135.9716	1208.65	307.7
1041.813	3136.949	1188	306.25
1041.919	3137.9258	1203.6	301.95
1042.025	3138.902	1189.8	302.75
1042.1309	3139.8775	1180.9	299.45
1042.2368	3140.8524	1181.35	299.9
1042.3427	3141.8267	1183.5	300.4
1042.4485	3142.8004	1179.05	298.6
1042.5542	3143.7735	1187	299.15
1042.6599	3144.7459	1178.35	294.15
1042.7656	3145.7178	1175.25	291.8
1042.8712	3146.689	1166.3	284.9
1042.9768	3147.6596	1170.5	283.1
1043.0823	3148.6295	1164.2	282.95
1043.1878	3149.5989	1170.25	287.65
1043.2932	3150.5676	1158.2	278.2
1043.3986	3151.5357	1160.65	281.65
1043.5039	3152.5032	1159.9	279.2
1043.6092	3153.4701	1153.3	272.85
1043.7145	3154.4364	1154.95	269
1043.8197	3155.402	1150.15	269
1043.9248	3156.367	1154.25	269.95
1044.03	3157.3315	1172.6	263.85
1044.135	3158.2952	1152.75	271.15
1044.24	3159.2584	1147.85	264.65
1044.345	3160.221	1147.15	265.3
1044.4499	3161.1829	1139.35	257.55
1044.5548	3162.1442	1140.05	257.25
1044.6596	3163.105	1136.75	254.35
1044.7644	3164.065	1135	252.75
1044.8692	3165.0245	1138.1	253
1044.9739	3165.9834	1135.95	256.1
1045.0785	3166.9416	1133.95	252.15
1045.1831	3167.8993	1128.5	246.95
1045.2877	3168.8563	1132.55	250
1045.3922	3169.8127	1129.15	246.8
1045.4966	3170.7684	1124.7	241.75
1045.6011	3171.7236	1124	240
1045.7054	3172.6782	1125.45	244.75
1045.8098	3173.6321	1123.9	240.75
1045.914	3174.5854	1128.2	244.3
1046.0183	3175.5381	1121.85	240.7
1046.1224	3176.4902	1117.1	235
1046.2266	3177.4417	1120.6	239
1046.3307	3178.3926	1113.35	232.45
1046.4347	3179.3428	1111.95	231.25
1046.5387	3180.2924	1117.7	238.5
1046.6427	3181.2415	1110.35	227.55
1046.7466	3182.1899	1113.4	230.7
1046.8504	3183.1377	1110.15	229.8
1046.9542	3184.0848	1109.35	225.1
1047.058	3185.0314	1105.35	225
1047.1617	3185.9773	1105.1	221.95
1047.2654	3186.9227	1102.4	220.1
1047.369	3187.8674	1102.85	219.3
1047.4726	3188.8115	1105.1	220.6
1047.5761	3189.755	1100.5	220.5
1047.6796	3190.6979	1099.55	215.9
1047.783	3191.6402	1097.45	217.9
1047.8864	3192.5818	1100.5	219
1047.9898	3193.5229	1101.15	213.2
1048.0931	3194.4633	1098.95	219.05
1048.1963	3195.4031	1096.3	212.45
1048.2995	3196.3423	1090.9	211.1
1048.4027	3197.2809	1091.35	210.35
1048.5058	3198.2189	1087.05	204.7
1048.6089	3199.1563	1096.8	207.35
1048.7119	3200.0931	1087.25	208.15
1048.8148	3201.0292	1082.25	200.4
1048.9178	3201.9648	1084.45	202.9
1049.0206	3202.8997	1085.9	202.05
1049.1235	3203.834	1083.35	201.5
1049.2262	3204.7677	1081.35	199.35
1049.329	3205.7008	1084.35	203.15
1049.4317	3206.6333	1082.1	202.65
1049.5343	3207.5652	1084.65	201.3
1049.6369	3208.4964	1077.85	195.8
1049.7394	3209.4271	1078.15	198.15
1049.8419	3210.3571	1077.25	196.15
1049.9444	3211.2865	1078.5	198.75
1050.0468	3212.2154	1074.4	192.25
1050.1491	3213.1436	1075.15	192.75
1050.2514	3214.0712	1081.9	194.95
1050.3537	3214.9982	1066.65	186.15
1050.4559	3215.9246	1070.95	189.25
1050.5581	3216.8503	1069.15	187.9
1050.6602	3217.7755	1068.4	186.25
1050.7623	3218.7001	1070.85	190.9
1050.8643	3219.624	1067.25	185.4
1050.9663	3220.5473	1064.7	184.8
1051.0682	3221.4701	1065	183.5
1051.1701	3222.3922	1066.75	184.05
1051.2719	3223.3137	1067.6	185.8
1051.3737	3224.2346	1062.6	179.8
1051.4754	3225.1549	1060.45	180.55
1051.5771	3226.0746	1058.4	177.85
1051.6788	3226.9937	1058.9	176.65
1051.7804	3227.9121	1060.2	179.8
1051.8819	3228.83	1058.6	176.8
1051.9834	3229.7473	1056.65	176.45
1052.0849	3230.6639	1059.35	176.55
1052.1863	3231.5799	1054.6	174.3
1052.2876	3232.4954	1053.75	172.7
1052.3889	3233.4102	1053.8	175.3
1052.4902	3234.3244	1053.65	174.75
1052.5914	3235.238	1051.85	171.25
1052.6926	3236.151	1076.45	170.35
1052.7937	3237.0634	1051.05	170.7
1052.8948	3237.9752	1050.4	169.4
1052.9958	3238.8864	1051.65	169.4
1053.0968	3239.797	1046.3	165.55
1053.1977	3240.7069	1046.5	165.8
1053.2986	3241.6163	1045.6	165.1
1053.3994	3242.5251	1046.25	166.7
1053.5002	3243.4332	1045.25	167.5
1053.6009	3244.3408	1040.25	159.5
1053.7016	3245.2477	1043.25	161.7
1053.8022	3246.154	1043.85	161.5
1053.9028	3247.0598	1039.9	157.7
1054.0034	3247.9649	1039.85	159.9
1054.1039	3248.8694	1036.45	154.1
1054.2043	3249.7733	1031.75	149.15
1054.3047	3250.6766	1040.85	162.85
1054.4051	3251.5793	1037.55	154.05
1054.5054	3252.4814	1031.1	150.5
1054.6056	3253.3829	1027.1	147.95
1054.7058	3254.2838	1025.55	143.45
1054.806	3255.1841	1026.05	144.85
1054.9061	3256.0838	1025.95	145
1055.0061	3256.9829	1025.55	145.8
1055.1062	3257.8814	1030.35	149.9
1055.2061	3258.7792	1023.4	138.8
1055.306	3259.6765	1023.2	141.15
1055.4059	3260.5731	1017.2	137.25
1055.5057	3261.4692	1018.4	137.8
1055.6055	3262.3647	1018.75	138.4
1055.7052	3263.2595	1014.05	131.3
1055.8049	3264.1538	1012.25	131.85
1055.9045	3265.0474	1016.75	133.2
1056.0041	3265.9404	1009.75	128.95
1056.1036	3266.8329	1006.8	127.7
1056.2031	3267.7247	1013.6	123.3
1056.3025	3268.616	1002.3	123.35
1056.4019	3269.5066	998.15	118.4
1056.5013	3270.3966	997.85	115.95
1056.6005	3271.286	993.2	113.3
