Software Version:	3.9.2.0
Unit SN:	10000200
Spectrometer SN:	6960
Date:	3/26/2024 1:41:05 PM
Data Line Index:	25
Spectral Points:	2048
Integration time (ms):	125
Averages:	20
Delay (ms):	30000
Sequence Number:	1
Processing:	dark subtract
Laser Power (mW):	305
Laser Current (mA):	819
Laser Diode Temp (C):	25.1
Laser Case Temp (C):	27.1
System Temp (C):	27.1
Spectrometer Temp (C):	24.9
CCD Temp (C):	-0.008
Secondary Temp (C):	20.006
Heatsink Temp (C):	22.528
CCDPCB Temp (C):	36.752
SecondaryPCB Temp (C):	34.295

Wavelength	RamanShift	Raw Counts	Dark Subtracted
787.061	30.1047	576.05	167.75
787.2016	32.3739	580.2	172.85
787.3422	34.6426	593.9	184.15
787.4828	36.9109	603.1	189.25
787.6235	39.1787	625.1	208.65
787.7642	41.4461	647.3	226.2
787.9049	43.7131	658	233.85
788.0456	45.9796	676.45	248.25
788.1863	48.2456	699.8	268.15
788.3271	50.5112	717.35	281.25
788.4679	52.7764	736.6	297.25
788.6087	55.0411	758.95	318.45
788.7496	57.3054	778.35	331.9
788.8904	59.5692	808.55	358.8
789.0313	61.8326	837.35	385.25
789.1722	64.0955	865.3	406.8
789.3132	66.3579	903.1	441
789.4541	68.6199	940.2	476.3
789.5951	70.8815	1019	551.55
789.7361	73.1426	1172	699.3
789.8771	75.4032	1587.1	1109.85
790.0181	77.6634	2563.2	2080.25
790.1592	79.9231	5015.45	4523.05
790.3003	82.1824	10558.65	10048.75
790.4414	84.4412	21599.05	21057.7
790.5825	86.6995	40317.15	39730
790.7237	88.9574	52262.85	51639.5
790.8648	91.2148	57813.85	57162.75
791.006	93.4717	59078.2	58413
791.1472	95.7282	59592.55	58913.5
791.2885	97.9842	59804.6	59122.5
791.4297	100.2398	59712.6	59025.95
791.571	102.4949	59580.9	58891.85
791.7123	104.7495	59505.7	58815.3
791.8536	107.0036	59244.5	58553.4
791.9949	109.2573	59379.75	58690.75
792.1363	111.5105	59079.1	58386.65
792.2777	113.7632	59042.25	58347.15
792.4191	116.0154	59038.2	58331.8
792.5605	118.2672	59160.7	58458.1
792.7019	120.5185	59109.1	58410.1
792.8434	122.7693	59062.2	58357.35
792.9849	125.0197	58762.3	58058.05
793.1264	127.2696	59229.85	58518.45
793.2679	129.519	59119.15	58405.15
793.4094	131.7679	59309.3	58591.45
793.551	134.0163	58721.4	57999.4
793.6926	136.2642	58889.1	58165.25
793.8342	138.5117	59149.05	58413.5
793.9758	140.7587	58968.1	58236.2
794.1175	143.0052	58904.1	58172.45
794.2591	145.2512	58567.8	57837.6
794.4008	147.4967	58880.2	58150.9
794.5425	149.7417	58762.4	58031.3
794.6842	151.9863	58738.95	58001.15
794.826	154.2304	58478	57736.05
794.9677	156.4739	58588.8	57845.6
795.1095	158.717	58776.4	58035.4
795.2513	160.9596	58584.1	57834.8
795.3931	163.2017	58257	57503.8
795.535	165.4433	58502	57743.7
795.6768	167.6844	58240.9	57486.7
795.8187	169.925	58358.15	57605.95
795.9606	172.1651	58107.9	57352.45
796.1025	174.4047	58161.2	57400.4
796.2445	176.6439	58032.1	57266.95
796.3864	178.8825	57947.1	57182.95
796.5284	181.1206	58204.25	57432.6
796.6704	183.3582	58112.55	57336.95
796.8124	185.5954	57918.95	57144.65
796.9544	187.832	57964.6	57180.55
797.0965	190.0681	57762.9	56979.7
797.2386	192.3037	58109.9	57321.55
797.3806	194.5388	58474.2	57683.6
797.5228	196.7734	57593.85	56802.75
797.6649	199.0075	58400	57604.5
797.807	201.2411	58186.4	57384.5
797.9492	203.4742	58551.45	57754.45
798.0914	205.7068	58489.2	57692.35
798.2336	207.9389	58471.6	57670.25
798.3758	210.1704	58470.6	57669.8
798.518	212.4015	58747.2	57940.15
798.6603	214.632	58453.35	57651.8
798.8025	216.862	58823.65	58020.1
798.9448	219.0915	58646.8	57854.7
799.0871	221.3205	58618.4	57827.2
799.2294	223.549	58915.05	58126.7
799.3718	225.777	58899.2	58114.1
799.5141	228.0044	59039.6	58253.6
799.6565	230.2314	58952.3	58170.95
799.7989	232.4578	58972.9	58188.9
799.9413	234.6837	59073.3	58283.35
800.0837	236.909	59590.95	58801.15
800.2262	239.1339	58828.95	58010.15
800.3687	241.3582	59130.9	58324.6
800.5111	243.582	59123.8	58292
800.6536	245.8053	59113.55	58290
800.7961	248.0281	59129.2	58312.1
800.9387	250.2503	59188.8	58362.45
801.0812	252.472	59015.65	58182
801.2238	254.6932	59120.2	58290.7
801.3664	256.9139	59049.15	58215.9
801.509	259.134	59516.85	58681.35
801.6516	261.3536	59030.9	58192.9
801.7942	263.5727	59355.95	58521.25
801.9369	265.7912	59243.8	58412.35
802.0795	268.0092	59327.15	58492.25
802.2222	270.2267	59417.4	58582.9
802.3649	272.4436	59175.45	58338.6
802.5076	274.6601	59384.5	58542.3
802.6504	276.8759	59450.7	58617.15
802.7931	279.0913	59303.35	58465.45
802.9359	281.3061	59321.75	58478.2
803.0787	283.5204	59367.35	58520.3
803.2215	285.7341	59358	58512
803.3643	287.9473	59580.1	58717.25
803.5071	290.16	59431.45	58576.95
803.6499	292.3721	59540.2	58686.3
803.7928	294.5837	59357.95	58508.75
803.9357	296.7947	59264.3	58410.95
804.0786	299.0052	59628.55	58774.85
804.2215	301.2152	59464.75	58613.5
804.3644	303.4246	59572.5	58724.25
804.5074	305.6334	59462.2	58615.5
804.6503	307.8418	59125.6	58277.75
804.7933	310.0495	59101.95	58249.55
804.9363	312.2568	58990.4	58137.3
805.0793	314.4635	58929.95	58072.45
805.2223	316.6696	59007.95	58149.7
805.3653	318.8752	59067.15	58200.3
805.5084	321.0802	58563.05	57708.5
805.6514	323.2847	58770.4	57907.25
805.7945	325.4887	58774.35	57911.85
805.9376	327.692	58658.05	57796.85
806.0807	329.8949	58790.2	57924.85
806.2238	332.0972	58621.8	57760.4
806.367	334.2989	58668.4	57800.5
806.5101	336.5001	58802.05	57934.55
806.6533	338.7007	58409.2	57537.95
806.7965	340.9008	58563.45	57692.9
806.9397	343.1003	58600.8	57729.8
807.0829	345.2992	58660.1	57787.9
807.2261	347.4976	58443.7	57567.45
807.3693	349.6955	58511.3	57632.2
807.5126	351.8927	58410.4	57531.85
807.6559	354.0895	58503.55	57612.35
807.7991	356.2856	58463.5	57582.4
807.9424	358.4812	58611.1	57726.9
808.0857	360.6763	58380.25	57500.15
808.2291	362.8707	58562.15	57683.4
808.3724	365.0646	58434.5	57555.75
808.5158	367.258	58431.15	57549.7
808.6591	369.4508	58278.25	57390.3
808.8025	371.643	58561.7	57670.35
808.9459	373.8346	58404.6	57517.4
809.0893	376.0257	58430.95	57541.1
809.2327	378.2162	58345	57450.55
809.3762	380.4062	58130.35	57236.8
809.5196	382.5956	58258.25	57361.95
809.6631	384.7844	58234.85	57344.8
809.8066	386.9726	58276.4	57381.2
809.9501	389.1603	58252.7	57357.45
810.0936	391.3474	58044.7	57106.7
810.2371	393.5339	58207	57309.55
810.3806	395.7199	57901.8	57011.25
810.5241	397.9052	57955.45	57068.5
810.6677	400.09	57992.65	57108.65
810.8113	402.2743	58194	57311.95
810.9548	404.4579	58020	57132.65
811.0984	406.641	58042.85	57156.25
811.2421	408.8235	58200.1	57316.25
811.3857	411.0054	58228.05	57344.15
811.5293	413.1868	58296.05	57406
811.673	415.3675	58235.7	57340.85
811.8166	417.5477	58266.1	57378.3
811.9603	419.7273	58231.3	57340.15
812.104	421.9064	58172.85	57273.6
812.2477	424.0848	58196.65	57301.85
812.3914	426.2627	58272.3	57375.35
812.5351	428.4399	57969.65	57068.8
812.6788	430.6166	57711.45	56805.9
812.8226	432.7928	57882.4	56978.1
812.9663	434.9683	57571	56672.45
813.1101	437.1432	57499.1	56599.6
813.2539	439.3176	57630.35	56734.85
813.3977	441.4914	57280.65	56384.95
813.5415	443.6645	57330.3	56434.15
813.6853	445.8371	57319.5	56416.8
813.8291	448.0091	57138.95	56237.25
813.973	450.1806	56994.3	56096.2
814.1168	452.3514	57029.9	56134.45
814.2607	454.5216	56873.6	55967.65
814.4046	456.6913	57035.75	56134.35
814.5485	458.8603	57102.4	56204.1
814.6924	461.0288	56839	55943.15
814.8363	463.1967	57046.25	56151.8
814.9802	465.3639	57018.45	56119.9
815.1241	467.5306	56499.45	55598.25
815.2681	469.6967	56833.6	55935.6
815.412	471.8622	56987.7	56088.2
815.556	474.0271	56805.05	55905.9
815.7	476.1914	56870.85	55965.6
815.844	478.3551	56876.05	55974.55
815.988	480.5182	57130.05	56230.3
816.132	482.6807	56792.05	55896
816.276	484.8426	56895.8	56010.15
816.4201	487.0039	57268.2	56374.65
816.5641	489.1647	57332.8	56431
816.7082	491.3248	57061.4	56157.2
816.8522	493.4843	57437.05	56542.1
816.9963	495.6432	57461.45	56562.05
817.1404	497.8015	56999.25	56087.3
817.2845	499.9592	57212.35	56302.05
817.4286	502.1163	57163.75	56251.4
817.5727	504.2728	57036.75	56126.35
817.7168	506.4287	56920.1	56025.15
817.861	508.5839	56653.95	55759.45
818.0051	510.7386	56726.65	55825.2
818.1493	512.8927	56758.4	55848.4
818.2935	515.0461	56668.8	55757.4
818.4377	517.199	56862.45	55950.15
818.5818	519.3512	56671.05	55759.3
818.726	521.5029	56700.95	55784.9
818.8703	523.6539	56808.3	55900.35
819.0145	525.8043	56486.8	55573.4
819.1587	527.9541	56778.35	55866.25
819.303	530.1033	56679.4	55767
819.4472	532.2519	56492.05	55579.1
819.5915	534.3999	56698.6	55788.9
819.7357	536.5472	56840.9	55931.65
819.88	538.694	56471.55	55561.9
820.0243	540.8401	56794.6	55884.05
820.1686	542.9856	56915.25	55994
820.3129	545.1305	56997.4	56066.9
820.4572	547.2748	56734.4	55802.9
820.6016	549.4185	56665.15	55730.2
820.7459	551.5615	56813.8	55886.45
820.8902	553.704	56746.1	55822.15
821.0346	555.8458	56561.35	55636.6
821.1789	557.987	56655.4	55734.7
821.3233	560.1276	56800.65	55877
821.4677	562.2675	56790.9	55866.65
821.6121	564.4069	56930.6	56005.55
821.7565	566.5456	57144.4	56222.4
821.9009	568.6837	56829.5	55905.85
822.0453	570.8212	56857.9	55939.3
822.1897	572.958	56247.55	55323.25
822.3342	575.0942	56440.2	55524.55
822.4786	577.2299	56064.9	55153.55
822.6231	579.3648	55962.3	55058.8
822.7675	581.4992	55815.4	54920.9
822.912	583.6329	55769.65	54877.15
823.0565	585.766	55865.4	54962.4
823.201	587.8985	55993.3	55087.2
823.3454	590.0304	55580.7	54647.3
823.4899	592.1616	55882.2	54961.05
823.6345	594.2922	55632.9	54706.7
823.779	596.4222	55361.25	54433.95
823.9235	598.5515	55377.05	54449.05
824.068	600.6802	55445.45	54517.7
824.2126	602.8083	55057.55	54131.5
824.3571	604.9358	55026.95	54100.9
824.5017	607.0626	55313.15	54384.2
824.6462	609.1888	54861.95	53928.25
824.7908	611.3144	55182.2	54246.2
824.9354	613.4393	54990.55	54058.75
825.08	615.5636	54833.2	53900.45
825.2246	617.6873	55035	54103
825.3692	619.8103	54747.4	53818
825.5138	621.9327	54941.4	54010.45
825.6584	624.0544	54905.45	53982.7
825.803	626.1756	54714.6	53790
825.9477	628.2961	54666	53738.35
826.0923	630.4159	54416.85	53483.4
826.237	632.5351	54361.8	53430.25
826.3816	634.6537	54809.15	53874.6
826.5263	636.7716	54325.6	53388
826.6709	638.8889	54469.5	53529
826.8156	641.0056	54433.95	53496.2
826.9603	643.1216	54475.95	53539.15
827.105	645.237	54569.95	53633.45
827.2497	647.3518	54215.3	53287.7
827.3944	649.4659	54325.3	53402.7
827.5391	651.5793	54300.55	53373.95
827.6838	653.6922	54360.15	53432.55
827.8285	655.8043	53981.3	53056.5
827.9733	657.9159	54415.5	53484.45
828.118	660.0268	53545.65	52616.7
828.2627	662.137	54015.6	53082.95
828.4075	664.2466	54053.5	53111.7
828.5522	666.3556	53852.7	52915
828.697	668.4639	53992.25	53060.9
828.8418	670.5716	53719.45	52790.7
828.9865	672.6786	53936.75	53003.2
829.1313	674.785	53591.1	52649.75
829.2761	676.8907	53585.5	52653.6
829.4209	678.9958	53699.9	52770.55
829.5657	681.1002	53708.1	52770.35
829.7105	683.204	53427.5	52486.15
829.8553	685.3072	53289.9	52350
830.0001	687.4097	53375.75	52438.45
830.1449	689.5115	53292.4	52352.45
830.2898	691.6127	53502.3	52569.95
830.4346	693.7132	53243.35	52309.95
830.5794	695.8131	53305.45	52361.45
830.7243	697.9123	53343.25	52399.8
830.8691	700.0109	53368.35	52427.2
831.014	702.1089	52985.65	52045.4
831.1588	704.2061	53124.65	52184.05
831.3037	706.3028	53168.6	52228.2
831.4486	708.3987	53165.35	52225.65
831.5935	710.4941	53028	52089.3
831.7383	712.5887	53211.25	52271.95
831.8832	714.6827	53126.95	52184.05
832.0281	716.7761	53314.6	52380.9
832.173	718.8688	53412.9	52476
832.3179	720.9608	53203.05	52255.2
832.4628	723.0522	53275.4	52325.85
832.6077	725.1429	53052.35	52108.55
832.7527	727.233	53579.75	52637.15
832.8976	729.3224	52770.45	51831.45
833.0425	731.4112	52940.6	51997.45
833.1874	733.4993	52872.35	51928.25
833.3324	735.5867	52755.25	51815.55
833.4773	737.6735	52521.95	51581.75
833.6222	739.7596	52300.55	51352.45
833.7672	741.845	52187.55	51247.15
833.9122	743.9298	52343.45	51399.8
834.0571	746.014	52103.55	51160.2
834.2021	748.0974	51876.1	50927.05
834.347	750.1802	52193.7	51242.2
834.492	752.2624	51719.05	50769.5
834.637	754.3439	51767.25	50819.55
834.782	756.4247	51854.5	50899.95
834.9269	758.5048	51716.85	50773.9
835.0719	760.5843	51814	50864.7
835.2169	762.6631	52031.3	51083.3
835.3619	764.7413	52109.45	51165.45
835.5069	766.8188	52341.4	51394.7
835.6519	768.8956	52577	51626.65
835.7969	770.9718	52682.05	51730.95
835.9419	773.0473	52559.2	51611.7
836.0869	775.1221	52227.05	51280.6
836.232	777.1962	52079.1	51132.1
836.377	779.2697	51781	50830.45
836.522	781.3426	51880.2	50921.15
836.667	783.4147	51955.75	51007.65
836.8121	785.4862	51898.25	50953.25
836.9571	787.557	51645.55	50695.05
837.1021	789.6271	51631	50678.3
837.2472	791.6966	51110.6	50160.65
837.3922	793.7654	50617.75	49668.95
837.5373	795.8335	50412.8	49465.5
837.6823	797.901	50341.95	49393.6
837.8274	799.9678	50078.6	49125.55
837.9724	802.0339	49985.75	49035.55
838.1175	804.0993	49985.55	49023.5
838.2626	806.1641	49725.65	48775
838.4076	808.2282	49650.65	48700.75
838.5527	810.2916	49567.9	48615.85
838.6978	812.3544	49703.65	48760.65
838.8428	814.4164	49266.1	48320.5
838.9879	816.4778	49349.75	48393.65
839.133	818.5385	49288.95	48336.8
839.2781	820.5986	49337.4	48382
839.4232	822.658	49456	48501.75
839.5682	824.7166	49580.5	48628.4
839.7133	826.7747	49576.15	48626.3
839.8584	828.832	49853.8	48900.55
840.0035	830.8886	50111.55	49158.25
840.1486	832.9446	50153.7	49196.95
840.2937	834.9999	49503.25	48554.25
840.4388	837.0545	49599.8	48642.85
840.5839	839.1085	49481.1	48528
840.729	841.1618	49305.55	48347.3
840.8741	843.2143	48861.65	47913.75
841.0192	845.2662	48716.05	47766.7
841.1643	847.3175	48787	47834
841.3095	849.368	48262.3	47307.35
841.4546	851.4179	48461.25	47508.85
841.5997	853.467	48118.9	47166.65
841.7448	855.5155	48225.6	47273.05
841.8899	857.5633	47879.35	46924.35
842.0351	859.6105	47688.3	46734.55
842.1802	861.6569	47782.65	46828.75
842.3253	863.7027	47396.35	46438.6
842.4704	865.7478	47457.7	46502.9
842.6156	867.7922	47347.75	46394.5
842.7607	869.8359	47445.15	46493.25
842.9058	871.8789	47045.05	46089.15
843.0509	873.9212	47322.55	46333.85
843.1961	875.9629	47232.05	46273.05
843.3412	878.0039	47264.35	46307.9
843.4863	880.0441	47164	46211.45
843.6315	882.0837	47166.5	46211.2
843.7766	884.1226	47152.9	46197.9
843.9218	886.1609	47117.6	46163.5
844.0669	888.1984	46982.25	46031.55
844.212	890.2352	47310.15	46357.65
844.3572	892.2714	46957.6	46000.7
844.5023	894.3069	47020.8	46061.25
844.6475	896.3416	46713.3	45757.55
844.7926	898.3757	46604.15	45645.25
844.9377	900.4091	46182.35	45225
845.0829	902.4418	46503.55	45544.75
845.228	904.4739	46216.6	45258.5
845.3732	906.5052	46262.6	45307.25
845.5183	908.5358	46007.55	45054.45
845.6635	910.5658	45792.45	44833.3
845.8086	912.595	45694.3	44738.65
845.9538	914.6236	45223.75	44267.1
846.0989	916.6515	45601.8	44648
846.2441	918.6786	44963.65	44002.5
846.3892	920.7051	45034.15	44074.7
846.5344	922.7309	45013	44058.35
846.6795	924.756	45007.45	44054.05
846.8246	926.7804	44862.3	43907.15
846.9698	928.8041	44431.65	43474.8
847.1149	930.8272	44693.05	43738
847.2601	932.8495	44497.55	43542.6
847.4052	934.8711	44325.4	43366.85
847.5504	936.892	44105.55	43152.6
847.6955	938.9123	44049.95	43091.3
847.8407	940.9318	43926.35	42969.8
847.9858	942.9506	43767.1	42811.5
848.131	944.9688	43702.3	42745.5
848.2761	946.9862	43338.65	42383.4
848.4213	949.003	43200.15	42242.45
848.5664	951.019	42874.9	41918.7
848.7115	953.0344	42837.1	41877.1
848.8567	955.0491	42757.1	41800.6
849.0018	957.063	42862.9	41905.95
849.147	959.0763	42950.15	41988.45
849.2921	961.0888	42679.4	41724.3
849.4373	963.1007	42779.15	41827.55
849.5824	965.1119	42761.7	41814.1
849.7275	967.1223	42612.7	41669.65
849.8727	969.1321	42646.65	41704
850.0178	971.1412	42395.8	41450.4
850.1629	973.1495	42274.25	41323.7
850.3081	975.1572	42263.45	41282.2
850.4532	977.1641	42214.95	41261.5
850.5983	979.1704	42055.4	41101.2
850.7435	981.1759	41977.7	41016.55
850.8886	983.1808	41909.1	40951.8
851.0337	985.1849	41803.85	40837.95
851.1788	987.1884	41808.65	40853.65
851.324	989.1911	41902.4	40948.4
851.4691	991.1932	41642.3	40691.55
851.6142	993.1945	41593.25	40641.85
851.7593	995.1951	41411.45	40456.65
851.9045	997.1951	41275	40316.4
852.0496	999.1943	41099.55	40144.9
852.1947	1001.1928	41015.3	40059.05
852.3398	1003.1906	40904.35	39948.65
852.4849	1005.1877	40792.2	39836.85
852.63	1007.1841	40724.45	39769.5
852.7751	1009.1798	40585.95	39630.3
852.9202	1011.1748	40414.45	39460.1
853.0653	1013.1691	40235.55	39280.35
853.2104	1015.1627	39842.95	38892.45
853.3555	1017.1556	39492.6	38538.5
853.5006	1019.1477	39439.1	38486.1
853.6457	1021.1392	39070.6	38121.75
853.7908	1023.1299	38879.65	37935.3
853.9359	1025.12	38826.35	37887
854.081	1027.1093	38623.2	37693.35
854.2261	1029.0979	38634.2	37709.8
854.3712	1031.0859	38564.8	37630.35
854.5163	1033.0731	38483.95	37541.35
854.6613	1035.0596	38303	37356.4
854.8064	1037.0454	38051.65	37100.65
854.9515	1039.0304	37910.8	36960.65
855.0965	1041.0148	37676.15	36725.7
855.2416	1042.9985	37518.65	36566.4
855.3867	1044.9814	37468.3	36518.95
855.5317	1046.9636	37249.05	36297.3
855.6768	1048.9452	37073.15	36125.35
855.8219	1050.926	37055.1	36104.15
855.9669	1052.9061	36973.4	36020.9
856.112	1054.8855	36943	35991.3
856.257	1056.8642	36854.8	35900.9
856.4021	1058.8421	36866.65	35911.25
856.5471	1060.8194	36762.8	35811
856.6921	1062.7959	36735	35779.5
856.8372	1064.7717	36665.1	35710.9
856.9822	1066.7469	36650.9	35696.15
857.1272	1068.7213	36594.5	35642.6
857.2723	1070.695	36567.35	35618.55
857.4173	1072.6679	36370.8	35420.35
857.5623	1074.6402	36393.3	35439.05
857.7073	1076.6117	36318.6	35366.9
857.8523	1078.5826	36185.75	35233.3
857.9973	1080.5527	36003.55	35049.5
858.1423	1082.5221	35857.2	34905
858.2873	1084.4908	35808.85	34855
858.4323	1086.4587	35768.4	34814.1
858.5773	1088.426	35710.8	34760.4
858.7223	1090.3925	35566.1	34610.85
858.8673	1092.3584	35582.3	34632.1
859.0123	1094.3235	35408.95	34455.6
859.1573	1096.2879	35333.9	34382.2
859.3022	1098.2515	35331.75	34383
859.4472	1100.2145	35404.15	34453
859.5922	1102.1767	35397.05	34442.7
859.7371	1104.1382	35422.7	34471.7
859.8821	1106.099	35533.8	34583.7
860.027	1108.0591	35619.9	34670.55
860.172	1110.0185	35607.45	34653.45
860.3169	1111.9771	35673.3	34724.65
860.4619	1113.9351	35412.4	34461.95
860.6068	1115.8923	35205	34256.05
860.7517	1117.8488	35020.75	34065.65
860.8967	1119.8045	34710.05	33759.55
861.0416	1121.7596	34564.7	33612.8
861.1865	1123.7139	34342.3	33392
861.3314	1125.6675	34249.25	33300.75
861.4763	1127.6204	34324.8	33376.9
861.6212	1129.5726	34168.05	33216.5
861.7661	1131.524	34058.65	33107.95
861.911	1133.4748	33957.3	33007.3
862.0559	1135.4248	33686.8	32732.4
862.2008	1137.3741	33557.55	32608.1
862.3457	1139.3226	33383.1	32431.3
862.4905	1141.2705	33362.85	32412.1
862.6354	1143.2176	33082.9	32127.1
862.7803	1145.164	33040.95	32089.45
862.9251	1147.1097	32931.1	31982.2
863.07	1149.0546	32831.2	31882.1
863.2148	1150.9989	32713.8	31760.6
863.3597	1152.9424	32669.1	31719.05
863.5045	1154.8852	32463.95	31508.95
863.6493	1156.8272	32410	31460.65
863.7942	1158.7686	32420.25	31462.1
863.939	1160.7092	32316.9	31369.2
864.0838	1162.6491	32164.85	31214.6
864.2286	1164.5883	32239.05	31289.6
864.3734	1166.5267	32212.2	31263.75
864.5182	1168.4644	32241.25	31293.45
864.663	1170.4014	32307	31356.2
864.8078	1172.3377	32464.55	31516.3
864.9526	1174.2732	32688.7	31741.2
865.0974	1176.2081	32905.5	31957.05
865.2421	1178.1421	33125.1	32173.2
865.3869	1180.0755	33452.8	32503.35
865.5317	1182.0082	33496.75	32548.45
865.6764	1183.9401	33583.95	32636.75
865.8212	1185.8713	33446.15	32503.05
865.9659	1187.8017	33152.6	32216.2
866.1106	1189.7315	32832.55	31902.35
866.2554	1191.6605	32393.15	31462.65
866.4001	1193.5888	32121.45	31188.75
866.5448	1195.5163	31916.05	30975.7
866.6895	1197.4432	31780.05	30836.35
866.8342	1199.3693	31663.85	30717.3
866.9789	1201.2947	31452.8	30503.05
867.1236	1203.2193	31377.8	30430
867.2683	1205.1432	31317.2	30372.3
867.413	1207.0664	31231.2	30284.15
867.5576	1208.9889	31150.65	30201
867.7023	1210.9106	31001.95	30059.95
867.847	1212.8316	30911.55	29966.85
867.9916	1214.7519	30909.3	29956.95
868.1363	1216.6715	30783.1	29841.3
868.2809	1218.5903	30805.05	29859.85
868.4255	1220.5084	30764.5	29816.3
868.5701	1222.4257	30777.65	29835.25
868.7148	1224.3424	30693.25	29750.7
868.8594	1226.2583	30737.55	29791.3
869.004	1228.1735	30717.4	29773.5
869.1486	1230.0879	30706.9	29761.1
869.2932	1232.0016	30784.9	29841.65
869.4377	1233.9146	30758.7	29811.1
869.5823	1235.8269	30659	29716.55
869.7269	1237.7384	30608.95	29663.5
869.8715	1239.6492	30389.15	29443.3
870.016	1241.5592	30296	29356.05
870.1606	1243.4686	30201	29254.2
870.3051	1245.3772	30237.15	29293.35
870.4496	1247.285	30288.45	29339.55
870.5941	1249.1922	30294.95	29350.85
870.7387	1251.0986	30364.35	29423.5
870.8832	1253.0042	30252.85	29311.45
871.0277	1254.9092	30328.7	29385.2
871.1722	1256.8134	30296.25	29352.15
871.3167	1258.7169	30400.5	29456.7
871.4611	1260.6196	30439.75	29494.55
871.6056	1262.5216	30546.3	29600.4
871.7501	1264.4229	30627.45	29686.55
871.8945	1266.3234	30726	29781.55
872.039	1268.2232	30775.2	29827.45
872.1834	1270.1223	30745.2	29800.35
872.3278	1272.0207	30671.4	29727.6
872.4723	1273.9183	30623.5	29675.95
872.6167	1275.8151	30488.3	29546.85
872.7611	1277.7113	30472.7	29531.1
872.9055	1279.6067	30368.15	29426.75
873.0499	1281.5014	30392.35	29450.25
873.1943	1283.3953	30570.75	29623.7
873.3386	1285.2885	30837.1	29897.45
873.483	1287.181	31111.25	30168.5
873.6274	1289.0727	31429.8	30489.05
873.7717	1290.9637	31545.55	30602.7
873.9161	1292.854	31694.85	30750.1
874.0604	1294.7435	31570.35	30626.7
874.2047	1296.6323	31507.25	30564
874.349	1298.5204	31445.25	30497.95
874.4933	1300.4077	31284.8	30341.25
874.6376	1302.2943	31161.6	30218.4
874.7819	1304.1802	30945.4	30005.5
874.9262	1306.0653	30602.85	29660.05
875.0705	1307.9497	30244.5	29300.55
875.2147	1309.8333	29903.9	28962.45
875.359	1311.7162	29706.9	28763.9
875.5032	1313.5984	29537.45	28594.75
875.6475	1315.4798	29422.7	28460.4
875.7917	1317.3605	29296.1	28337.65
875.9359	1319.2405	29243.3	28299
876.0801	1321.1197	29054	28108.45
876.2243	1322.9982	28724.1	27776.05
876.3685	1324.876	28591.45	27651.3
876.5127	1326.753	28335.3	27390.75
876.6569	1328.6293	28198.8	27255.45
876.801	1330.5048	28085.75	27138.05
876.9452	1332.3796	27920.4	26979.05
877.0893	1334.2537	27823.7	26861.2
877.2335	1336.127	27715.15	26771.95
877.3776	1337.9996	27648.6	26707.05
877.5217	1339.8714	27565	26623.55
877.6658	1341.7426	27563.05	26578.5
877.8099	1343.6129	27511	26571.15
877.954	1345.4826	27453.4	26509.5
878.0981	1347.3515	27431.85	26484.75
878.2422	1349.2196	27386.35	26443.55
878.3862	1351.087	27400.9	26460.3
878.5303	1352.9537	27372.15	26426.95
878.6743	1354.8197	27395.1	26451.3
878.8184	1356.6849	27465.15	26524.55
878.9624	1358.5493	27530.4	26590.75
879.1064	1360.4131	27629.35	26687.45
879.2504	1362.276	27618.8	26680.3
879.3944	1364.1383	27571.95	26628.5
879.5384	1365.9998	27401	26452.8
879.6823	1367.8606	27076.45	26133.85
879.8263	1369.7206	26765.05	25821.2
879.9702	1371.5799	26462.35	25516.9
880.1142	1373.4384	26197.5	25255.5
880.2581	1375.2962	26054.55	25113.85
880.402	1377.1533	25681.45	24745.55
880.5459	1379.0096	25340	24403.15
880.6898	1380.8652	25037.4	24101.1
880.8337	1382.7201	24752.1	23814.25
880.9776	1384.5742	24516.35	23575.25
881.1215	1386.4275	24302.5	23361.85
881.2653	1388.2802	24130.5	23190.65
881.4092	1390.132	24007.85	23067.45
881.553	1391.9832	23932.35	22988.2
881.6968	1393.8336	23746.6	22806
881.8406	1395.6832	23671	22731.65
881.9844	1397.5322	23574.1	22634
882.1282	1399.3803	23458.3	22513.85
882.272	1401.2278	23307.6	22368.15
882.4158	1403.0745	23257.65	22316.4
882.5595	1404.9204	23118.6	22182.25
882.7033	1406.7656	23181.9	22240.45
882.847	1408.6101	23100.05	22160.25
882.9908	1410.4538	22995.05	22057.6
883.1345	1412.2968	23020.1	22083.25
883.2782	1414.139	22954.65	22015.4
883.4219	1415.9805	22979.4	22041.4
883.5656	1417.8213	22957	22000.4
883.7092	1419.6613	22942.35	22007.15
883.8529	1421.5006	23016.7	22076.75
883.9965	1423.3391	23148.4	22210.75
884.1402	1425.1769	23273.75	22335.65
884.2838	1427.0139	23587.15	22647.35
884.4274	1428.8502	23948.9	23008.45
884.571	1430.6858	24248.45	23310.25
884.7146	1432.5206	24432.8	23494.45
884.8582	1434.3547	24591.35	23651.75
885.0018	1436.188	24622.8	23684.4
885.1453	1438.0206	24513.15	23575.4
885.2889	1439.8524	24342.75	23405.65
885.4324	1441.6835	24221.4	23281.6
885.5759	1443.5139	24093.8	23151.05
885.7194	1445.3435	23985.05	23047.9
885.8629	1447.1724	23906.9	22970.3
886.0064	1449.0005	23878.85	22944.1
886.1499	1450.8279	23753	22815.4
886.2933	1452.6545	23725.2	22790.6
886.4368	1454.4804	23729.4	22794.65
886.5802	1456.3056	23668	22725.6
886.7237	1458.13	23583.05	22648.95
886.8671	1459.9536	23454.15	22519.6
887.0105	1461.7766	23230.8	22294.55
887.1539	1463.5987	22969.6	22033.75
887.2972	1465.4202	22688.25	21751
887.4406	1467.2409	22332.7	21398.3
887.584	1469.0608	22128	21190.55
887.7273	1470.88	21891.05	20954.15
887.8706	1472.6984	21707.05	20773.2
888.0139	1474.5161	21527.2	20590.05
888.1572	1476.3331	21352.6	20418.55
888.3005	1478.1493	21223.45	20286.05
888.4438	1479.9648	21171.95	20235.95
888.5871	1481.7795	21040.6	20101.85
888.7303	1483.5935	20950.9	20017
888.8736	1485.4067	20932.8	19994.65
889.0168	1487.2192	20848	19912.45
889.16	1489.031	20816.2	19880.25
889.3032	1490.842	20703	19770.15
889.4464	1492.6522	20695.6	19759.85
889.5896	1494.4618	20609.85	19675.1
889.7327	1496.2705	20561.3	19625.5
889.8759	1498.0785	20479.15	19546.15
890.019	1499.8858	20446.15	19510.6
890.1622	1501.6924	20339.45	19405
890.3053	1503.4981	20340.9	19406.45
890.4484	1505.3032	20256.6	19323.5
890.5914	1507.1075	20211	19277.85
890.7345	1508.911	20130.95	19194.05
890.8776	1510.7138	20054.2	19121
891.0206	1512.5159	19942.95	19010.5
891.1637	1514.3172	19892.95	18959.95
891.3067	1516.1178	19820.8	18884.15
891.4497	1517.9176	19750.25	18814.75
891.5927	1519.7166	19703.85	18770.65
891.7357	1521.515	19624.1	18684.1
891.8786	1523.3126	19595.25	18662.45
892.0216	1525.1094	19512.75	18580.7
892.1645	1526.9055	19444.6	18512.5
892.3074	1528.7008	19368.75	18438.8
892.4503	1530.4954	19252.15	18314.45
892.5932	1532.2893	19208.25	18280.75
892.7361	1534.0824	19109.9	18175.65
892.879	1535.8747	19116.15	18190.6
893.0218	1537.6663	19050.95	18123
893.1647	1539.4572	19015.35	18085.8
893.3075	1541.2473	18990.8	18059.7
893.4503	1543.0367	18937.8	18012.8
893.5931	1544.8253	18861.25	17928.9
893.7359	1546.6132	18848.45	17914.8
893.8787	1548.4003	18793.65	17855.9
894.0214	1550.1867	18807.8	17872.65
894.1642	1551.9723	18771.75	17842.8
894.3069	1553.7572	18841.5	17913.65
894.4496	1555.5414	18854.5	17927.55
894.5923	1557.3247	18872.6	17948.45
894.735	1559.1074	18957.9	18035.2
894.8777	1560.8893	19023.75	18102.1
895.0204	1562.6705	19045.65	18120.1
895.163	1564.4509	19125.1	18204.15
895.3056	1566.2305	19092.1	18173.3
895.4482	1568.0094	19200.65	18283.05
895.5908	1569.7876	19179.7	18259.35
895.7334	1571.565	19097	18173.5
895.876	1573.3417	19064.95	18144.25
896.0186	1575.1176	19022.95	18099.75
896.1611	1576.8928	18984.4	18067.55
896.3036	1578.6672	18910.95	17996.75
896.4461	1580.4409	18821.45	17908.65
896.5886	1582.2138	18798.5	17882.1
896.7311	1583.986	18771.6	17852.3
896.8736	1585.7575	18751.2	17832
897.0161	1587.5282	18794.4	17879.3
897.1585	1589.2981	18807.4	17894.95
897.3009	1591.0673	18782.25	17869.2
897.4433	1592.8358	18839.95	17924.05
897.5857	1594.6035	18876.45	17957.85
897.7281	1596.3704	18872.4	17953
897.8705	1598.1366	18863.75	17949.1
898.0128	1599.9021	18893.3	17977.9
898.1551	1601.6668	18890.9	17972.05
898.2975	1603.4308	18958.1	18034.55
898.4398	1605.194	19048.55	18129
898.5821	1606.9564	19109.5	18199.1
898.7243	1608.7182	19229.75	18321.35
898.8666	1610.4791	19421.75	18518.7
899.0088	1612.2394	19555.65	18655.35
899.1511	1613.9988	19739	18833.75
899.2933	1615.7576	19923.05	19013.45
899.4355	1617.5156	20055.35	19133.5
899.5776	1619.2728	20146.65	19229.5
899.7198	1621.0293	20066.4	19151.7
899.862	1622.785	19927.3	19015.35
900.0041	1624.54	19670.3	18761.2
900.1462	1626.2942	19402.85	18494.15
900.2883	1628.0477	19055.2	18145.2
900.4304	1629.8005	18781.55	17867.9
900.5725	1631.5525	18503	17594.55
900.7145	1633.3037	18307.65	17399.85
900.8566	1635.0542	18144.05	17235.35
900.9986	1636.804	17947.7	17037.2
901.1406	1638.553	17912.95	16959.4
901.2826	1640.3013	17756.8	16847.55
901.4245	1642.0488	17699.3	16787.5
901.5665	1643.7955	17666.35	16760.85
901.7085	1645.5416	17670.95	16763.25
901.8504	1647.2868	17733.7	16824.65
901.9923	1649.0313	17723.85	16812.45
902.1342	1650.7751	17883.15	16970.65
902.2761	1652.5181	17915.2	17008.95
902.4179	1654.2604	17972.9	17065.8
902.5598	1656.0019	18158.9	17252.05
902.7016	1657.7427	18282.9	17373.45
902.8434	1659.4828	18427.7	17514.75
902.9852	1661.222	18586.35	17673.5
903.127	1662.9606	18521.9	17610.65
903.2687	1664.6984	18316	17401.4
903.4105	1666.4354	18012.4	17095.95
903.5522	1668.1717	17580.55	16665.95
903.6939	1669.9072	17134.4	16218.2
903.8356	1671.642	16752.75	15837.55
903.9773	1673.3761	16452.05	15542.25
904.119	1675.1094	16166.1	15254.6
904.2606	1676.8419	15954.25	15043.25
904.4022	1678.5737	15800.65	14888.3
904.5439	1680.3048	15618.9	14705.75
904.6855	1682.0351	15453.05	14537.95
904.827	1683.7646	15317.15	14400.5
904.9686	1685.4934	15239.3	14325.75
905.1101	1687.2215	15171.3	14259.05
905.2517	1688.9488	15055.05	14140.95
905.3932	1690.6754	14975.15	14065.5
905.5347	1692.4012	14958.75	14049.6
905.6761	1694.1263	14850	13942.25
905.8176	1695.8506	14776.35	13864.7
905.9591	1697.5742	14745.95	13837
906.1005	1699.297	14711.55	13805.3
906.2419	1701.0191	14585.7	13680.3
906.3833	1702.7404	14536.45	13630.25
906.5246	1704.461	14440.65	13530.4
906.666	1706.1808	14366.4	13456.6
906.8073	1707.8999	14357.05	13447.9
906.9487	1709.6182	14308.2	13403.45
907.09	1711.3358	14273.8	13373.5
907.2313	1713.0527	14214.05	13313.05
907.3725	1714.7688	14164.65	13257.65
907.5138	1716.4841	14078.95	13170.25
907.655	1718.1987	14087.9	13174.35
907.7962	1719.9126	13990.95	13087.95
907.9374	1721.6257	13954.8	13047.5
908.0786	1723.338	13924.8	13020.8
908.2198	1725.0496	13849.9	12943.65
908.3609	1726.7605	13820.45	12914.75
908.502	1728.4706	13803.45	12899.2
908.6431	1730.18	13722.2	12816.2
908.7842	1731.8886	13672.9	12772.55
908.9253	1733.5964	13635.3	12729
909.0664	1735.3036	13598.9	12693.3
909.2074	1737.0099	13564.85	12662.95
909.3484	1738.7156	13539.8	12638.5
909.4894	1740.4204	13465.35	12561.15
909.6304	1742.1246	13442.1	12534.75
909.7714	1743.8279	13404.45	12498.55
909.9123	1745.5306	13396.35	12494.25
910.0532	1747.2325	13334.6	12432.25
910.1941	1748.9336	13300.65	12399.5
910.335	1750.634	13210.95	12305.65
910.4759	1752.3336	13211.8	12307.3
910.6168	1754.0325	13182.5	12283.05
910.7576	1755.7307	13155.35	12254.15
910.8984	1757.4281	13130.85	12226.9
911.0392	1759.1247	13110.8	12198.75
911.18	1760.8206	13107	12195.35
911.3208	1762.5158	13053.7	12145.15
911.4615	1764.2102	12973.45	12069.65
911.6022	1765.9039	12951.7	12051.75
911.7429	1767.5968	12932.7	12031.4
911.8836	1769.289	12893.65	11993.35
912.0243	1770.9804	12863.25	11961.2
912.1649	1772.6711	12829.2	11923.2
912.3056	1774.361	12837.4	11928.2
912.4462	1776.0502	12795.15	11889.8
912.5868	1777.7386	12774.8	11867.6
912.7274	1779.4263	12711.45	11812.25
912.8679	1781.1132	12737.6	11839.45
913.0084	1782.7994	12677.7	11777.8
913.149	1784.4849	12648.95	11749.5
913.2895	1786.1696	12596.5	11690.6
913.4299	1787.8535	12575.1	11676.35
913.5704	1789.5367	12547.4	11650.4
913.7108	1791.2192	12532.35	11633.05
913.8513	1792.9009	12511.05	11585.35
913.9917	1794.5818	12471.9	11566.9
914.132	1796.2621	12424	11518.45
914.2724	1797.9415	12406.95	11502.8
914.4128	1799.6202	12353.5	11452.25
914.5531	1801.2982	12332.35	11427.85
914.6934	1802.9755	12332.4	11429.3
914.8337	1804.6519	12305.6	11403.55
914.9739	1806.3277	12239.1	11338.95
915.1142	1808.0027	12200	11302.65
915.2544	1809.6769	12209.25	11310.05
915.3946	1811.3504	12165.05	11266.6
915.5348	1813.0231	12111.45	11213.3
915.675	1814.6951	12114.85	11216.1
915.8151	1816.3664	12089.55	11188.4
915.9553	1818.0369	12042.65	11141.05
916.0954	1819.7067	12045.7	11144.25
916.2355	1821.3757	12010.05	11106.2
916.3755	1823.044	11997.45	11095.9
916.5156	1824.7115	11964.05	11060.6
916.6556	1826.3783	11898.4	10998
916.7956	1828.0443	11872.75	10971.75
916.9356	1829.7096	11863.95	10961.4
917.0756	1831.3741	11842.15	10940.45
917.2155	1833.0379	11792.9	10894.9
917.3555	1834.701	11769.75	10871.05
917.4954	1836.3633	11750.3	10853.4
917.6353	1838.0248	11729.75	10828.1
917.7751	1839.6856	11703.5	10806.2
917.915	1841.3457	11697.55	10796.4
918.0548	1843.005	11671.15	10769.45
918.1946	1844.6636	11677.85	10779.6
918.3344	1846.3214	11623	10721.85
918.4742	1847.9785	11619.3	10721.3
918.6139	1849.6349	11585.35	10682.65
918.7537	1851.2904	11552.5	10641.55
918.8934	1852.9453	11535.55	10630.7
919.0331	1854.5994	11467.65	10561.7
919.1727	1856.2528	11498.6	10591.35
919.3124	1857.9054	11477.9	10573.65
919.452	1859.5572	11470.15	10570.6
919.5916	1861.2083	11440.95	10538.65
919.7312	1862.8587	11417.65	10515.05
919.8708	1864.5084	11411.7	10506.05
920.0103	1866.1572	11376.3	10473.6
920.1498	1867.8054	11325.7	10420.5
920.2893	1869.4528	11300.55	10397.15
920.4288	1871.0994	11283.55	10380.25
920.5683	1872.7453	11266.35	10363.65
920.7077	1874.3905	11228.25	10318.7
920.8471	1876.0349	11194.5	10291.9
920.9865	1877.6786	11186.75	10284.25
921.1259	1879.3215	11179	10275.55
921.2653	1880.9637	11152.7	10251.15
921.4046	1882.6051	11128.75	10228.25
921.5439	1884.2458	11089.75	10187.7
921.6832	1885.8858	11082.45	10182.3
921.8225	1887.525	11037.6	10133.95
921.9617	1889.1634	11013.15	10112.9
922.101	1890.8011	10985.5	10082.05
922.2402	1892.4381	10967.25	10065.05
922.3794	1894.0743	10956.45	10055.65
922.5185	1895.7098	10914.05	10011.9
922.6577	1897.3446	10907.1	10005.15
922.7968	1898.9786	10854.65	9948.55
922.9359	1900.6118	10822.25	9922.85
923.075	1902.2443	10773.95	9871.6
923.214	1903.8761	10759.8	9858.6
923.3531	1905.5071	10679.8	9778.85
923.4921	1907.1374	10690.95	9789.35
923.6311	1908.7669	10668	9765.7
923.77	1910.3957	10649.1	9750.3
923.909	1912.0237	10591.65	9690.1
924.0479	1913.651	10582.1	9680.3
924.1868	1915.2776	10570.95	9670.7
924.3257	1916.9034	10512.1	9613
924.4646	1918.5285	10457.55	9558.9
924.6034	1920.1528	10432.4	9530.55
924.7422	1921.7764	10417.05	9517.25
924.881	1923.3992	10381.7	9480.95
925.0198	1925.0213	10298.1	9396.65
925.1586	1926.6427	10286.7	9388.2
925.2973	1928.2633	10329.75	9351.5
925.436	1929.8832	10264.55	9364.3
925.5747	1931.5023	10190.2	9287.7
925.7134	1933.1207	10175.05	9276.2
925.852	1934.7383	10163.85	9263
925.9906	1936.3552	10106.25	9207.75
926.1292	1937.9714	10097.1	9198.3
926.2678	1939.5868	10057.1	9154.3
926.4064	1941.2015	10007	9105.4
926.5449	1942.8154	9959.05	9057.4
926.6834	1944.4286	9949.85	9050.2
926.8219	1946.041	9922.25	8998.45
926.9604	1947.6528	9863	8959.3
927.0988	1949.2637	9846.3	8946.4
927.2372	1950.8739	9802.75	8901.25
927.3756	1952.4834	9788.25	8887.4
927.514	1954.0921	9758.3	8859.05
927.6523	1955.7001	9731.85	8828.35
927.7907	1957.3074	9720.75	8826.25
927.929	1958.9139	9672.25	8778.15
928.0673	1960.5197	9642.8	8744.65
928.2055	1962.1247	9610.6	8713.95
928.3438	1963.729	9566.5	8670.75
928.482	1965.3325	9553.1	8632.8
928.6202	1966.9353	9500.95	8605.5
928.7584	1968.5374	9488	8591.7
928.8965	1970.1387	9444.85	8547.65
929.0346	1971.7393	9411.05	8512.6
929.1727	1973.3392	9400.35	8505.05
929.3108	1974.9383	9362	8467.9
929.4489	1976.5366	9348.15	8453.35
929.5869	1978.1342	9342.2	8449
929.7249	1979.7311	9324.2	8429.9
929.8629	1981.3273	9258.45	8363.05
930.0009	1982.9227	9236.3	8342.05
930.1388	1984.5173	9238.05	8345.3
930.2767	1986.1112	9172.05	8282.2
930.4146	1987.7044	9162.95	8271.7
930.5525	1989.2968	9147.85	8253.95
930.6904	1990.8885	9123.25	8228.85
930.8282	1992.4795	9099.1	8206.75
930.966	1994.0697	9047.6	8154.1
931.1038	1995.6592	9011.45	8119.65
931.2415	1997.2479	9019.1	8126.3
931.3793	1998.8359	9002.75	8110.8
931.517	2000.4232	8971.25	8083.85
931.6547	2002.0097	8936.2	8050.05
931.7923	2003.5955	8887.15	8000.55
931.93	2005.1805	8870.7	7980.6
932.0676	2006.7648	8853.3	7963.95
932.2052	2008.3484	8840.05	7950
932.3427	2009.9312	8834.8	7943.45
932.4803	2011.5133	8781.05	7894.75
932.6178	2013.0946	8770	7883.1
932.7553	2014.6752	8725.3	7836.8
932.8928	2016.2551	8745.1	7855.45
933.0302	2017.8342	8683.35	7794.9
933.1676	2019.4126	8674.05	7784.55
933.305	2020.9902	8593.35	7707
933.4424	2022.5672	8599.9	7711.3
933.5798	2024.1433	8593.35	7700.35
933.7171	2025.7188	8563.55	7680.05
933.8544	2027.2935	8548.1	7662.3
933.9917	2028.8674	8528.15	7643.35
934.129	2030.4406	8502.9	7618.3
934.2662	2032.0131	8452.45	7567.8
934.4034	2033.5849	8426.4	7536.85
934.5406	2035.1559	8443.65	7558.4
934.6778	2036.7261	8428.95	7541.6
934.8149	2038.2957	8389.9	7497.2
934.952	2039.8645	8378.1	7489.15
935.0891	2041.4325	8356.4	7462.4
935.2262	2042.9998	8304.25	7417.7
935.3632	2044.5664	8311.8	7422.7
935.5002	2046.1323	8283.2	7395.05
935.6372	2047.6974	8259.5	7372.6
935.7742	2049.2617	8224.5	7337.3
935.9111	2050.8254	8223.2	7314
936.048	2052.3883	8212.1	7321.25
936.1849	2053.9504	8211.9	7321.7
936.3218	2055.5118	8179.6	7289.55
936.4586	2057.0725	8139.9	7248.85
936.5955	2058.6325	8138.6	7250.45
936.7323	2060.1917	8081.4	7195.25
936.869	2061.7502	8061.35	7173.45
937.0058	2063.3079	8046.7	7161.45
937.1425	2064.8649	8035.2	7144.35
937.2792	2066.4212	8022.5	7133.35
937.4159	2067.9767	8007.85	7120.1
937.5525	2069.5315	7967.55	7077.65
937.6891	2071.0856	7931.95	7043.05
937.8257	2072.6389	7904.85	7016.35
937.9623	2074.1915	7860.95	6974.5
938.0989	2075.7433	7814.5	6926.8
938.2354	2077.2945	7836.1	6946.6
938.3719	2078.8448	7811.05	6921.45
938.5084	2080.3945	7792	6901.45
938.6448	2081.9434	7790.25	6898.65
938.7812	2083.4916	7754.35	6862.35
938.9176	2085.039	7746.95	6849.15
939.054	2086.5857	7723.55	6827.4
939.1903	2088.1317	7708.15	6812
939.3267	2089.677	7676.45	6779.9
939.463	2091.2215	7646.75	6750.55
939.5992	2092.7652	7637.75	6739.65
939.7355	2094.3083	7631.95	6736.1
939.8717	2095.8506	7626.75	6733.75
940.0079	2097.3921	7618.1	6726.7
940.1441	2098.933	7576.65	6686.4
940.2802	2100.4731	7574.85	6682.9
940.4163	2102.0124	7568.75	6669.25
940.5524	2103.5511	7518.75	6626.75
940.6885	2105.089	7548	6655.2
940.8245	2106.6261	7503.45	6611
940.9606	2108.1626	7467.4	6576
941.0965	2109.6983	7483.85	6563.9
941.2325	2111.2332	7434.75	6542.15
941.3684	2112.7675	7406.8	6511.2
941.5044	2114.301	7392.75	6497.7
941.6403	2115.8337	7404.2	6511.2
941.7761	2117.3657	7375.3	6484.55
941.912	2118.897	7380.4	6488.25
942.0478	2120.4276	7384.45	6484.05
942.1835	2121.9575	7306.8	6413.2
942.3193	2123.4866	7296.85	6401.4
942.455	2125.0149	7291.3	6395.05
942.5907	2126.5426	7248.1	6359.1
942.7264	2128.0695	7230.85	6338.1
942.8621	2129.5956	7194.4	6308.55
942.9977	2131.1211	7209.35	6316.35
943.1333	2132.6458	7190.35	6299.1
943.2689	2134.1698	7166.9	6271.4
943.4044	2135.693	7156.65	6259.55
943.54	2137.2155	7134.65	6239
943.6755	2138.7373	7136.75	6245.3
943.8109	2140.2584	7109.85	6222.4
943.9464	2141.7787	7069.95	6175.45
944.0818	2143.2983	7042.55	6156.15
944.2172	2144.8171	7018.7	6135.5
944.3526	2146.3353	7010.7	6120.7
944.4879	2147.8527	6981.9	6094.05
944.6232	2149.3693	6991.4	6097.85
944.7585	2150.8853	6955.15	6059.35
944.8938	2152.4005	6933.5	6038.7
945.029	2153.9149	6937.3	6043.25
945.1642	2155.4287	6992.75	5998.6
945.2994	2156.9417	6913.95	6019.7
945.4346	2158.454	6863.95	5973.8
945.5697	2159.9655	6839.3	5951
945.7048	2161.4764	6835.7	5946.25
945.8399	2162.9865	6805.6	5915.55
945.9749	2164.4958	6803.55	5912.85
946.1099	2166.0045	6773.45	5880.95
946.2449	2167.5124	6783	5892.55
946.3799	2169.0195	6739.85	5846.65
946.5148	2170.526	6749.85	5855.9
946.6498	2172.0317	6752.05	5862
946.7846	2173.5367	6722.45	5833.9
946.9195	2175.0409	6707.3	5817.55
947.0543	2176.5445	6706.9	5817.65
947.1891	2178.0473	6667.6	5774.8
947.3239	2179.5494	6631.95	5734.3
947.4587	2181.0507	6610.6	5717.1
947.5934	2182.5513	6596.5	5704.35
947.7281	2184.0512	6575.6	5682.25
947.8628	2185.5504	6576.5	5684
947.9974	2187.0488	6543.95	5654
948.132	2188.5465	6507	5618.35
948.2666	2190.0435	6481.95	5591.75
948.4012	2191.5397	6467.75	5576.2
948.5357	2193.0353	6453.55	5559.9
948.6702	2194.5301	6455.75	5560.2
948.8047	2196.0241	6424.85	5530.9
948.9392	2197.5175	6415.2	5519
949.0736	2199.0101	6398.85	5499.7
949.208	2200.502	6354.7	5462.65
949.3424	2201.9931	6336.95	5445.2
949.4767	2203.4835	6308.55	5418.8
949.611	2204.9733	6311.8	5407.45
949.7453	2206.4622	6275.6	5386.75
949.8796	2207.9505	6270.75	5379.4
950.0138	2209.438	6226.4	5341.2
950.148	2210.9248	6206.95	5316.1
950.2822	2212.4109	6205.95	5315.25
950.4164	2213.8962	6187.15	5289.7
950.5505	2215.3809	6169.75	5274.95
950.6846	2216.8648	6163.4	5265.85
950.8186	2218.3479	6137.2	5235.85
950.9527	2219.8304	6135.75	5235.85
951.0867	2221.3121	6106.55	5207.65
951.2207	2222.7931	6065.65	5170.55
951.3546	2224.2733	6053.7	5158
951.4886	2225.7529	6025.75	5133.45
951.6225	2227.2317	6009.2	5115.5
951.7563	2228.7098	6012.2	5126.05
951.8902	2230.1872	5985.35	5093.85
952.024	2231.6638	5992.75	5103.35
952.1578	2233.1397	5963.9	5067.7
952.2916	2234.6149	5945.85	5056.95
952.4253	2236.0894	5936.75	5045.45
952.559	2237.5632	5918.1	5024.6
952.6927	2239.0362	5908.7	5017.45
952.8263	2240.5085	5878.1	4986.2
952.9599	2241.9801	5852.05	4959.1
953.0935	2243.4509	5843.65	4950.25
953.2271	2244.921	5839.4	4945.4
953.3606	2246.3904	5811.1	4914.2
953.4941	2247.8591	5799.1	4905.4
953.6276	2249.3271	5766.7	4874.45
953.7611	2250.7943	5754.85	4860.95
953.8945	2252.2608	5735.1	4840.4
954.0279	2253.7266	5714.4	4822.15
954.1612	2255.1917	5725.45	4834.2
954.2946	2256.656	5677.6	4784.75
954.4279	2258.1197	5675.25	4785.8
954.5612	2259.5826	5653.5	4761.5
954.6944	2261.0447	5648.4	4752.95
954.8276	2262.5062	5643.5	4747.55
954.9608	2263.9669	5619.85	4722.7
955.094	2265.4269	5610.4	4718.3
955.2271	2266.8862	5591.85	4701.05
955.3602	2268.3448	5571.45	4680.1
955.4933	2269.8026	5563.4	4673.15
955.6264	2271.2598	5552.25	4661.2
955.7594	2272.7162	5518	4626.45
955.8924	2274.1719	5533.25	4638.7
956.0253	2275.6268	5544	4647.15
956.1583	2277.0811	5496.55	4601.8
956.2912	2278.5346	5489.6	4599.9
956.4241	2279.9874	5489.55	4599.45
956.5569	2281.4395	5486.75	4597.3
956.6897	2282.8908	5464.35	4568.95
956.8225	2284.3414	5462.1	4569
956.9553	2285.7914	5431	4536.45
957.088	2287.2406	5408.8	4512.15
957.2207	2288.689	5424	4527.65
957.3534	2290.1368	5394.95	4497.5
957.486	2291.5838	5382	4482.25
957.6186	2293.0302	5355.65	4456.05
957.7512	2294.4758	5356.15	4460.05
957.8838	2295.9206	5314.55	4420.7
958.0163	2297.3648	5321.15	4428.7
958.1488	2298.8082	5294.15	4400.3
958.2813	2300.251	5286.35	4391.65
958.4137	2301.693	5268.5	4369.8
958.5461	2303.1343	5275.55	4380.1
958.6785	2304.5748	5257.05	4365
958.8108	2306.0147	5236.15	4346.1
958.9432	2307.4538	5214.05	4321.25
959.0754	2308.8922	5198.35	4310.35
959.2077	2310.3299	5179.5	4290.7
959.3399	2311.7669	5157.5	4266.8
959.4721	2313.2031	5153.15	4259.45
959.6043	2314.6387	5141.85	4250.65
959.7365	2316.0735	5127.5	4235.5
959.8686	2317.5076	5124.55	4230.5
960.0006	2318.941	5106.35	4211.35
960.1327	2320.3737	5098.3	4200.95
960.2647	2321.8056	5095	4196
960.3967	2323.2369	5061.85	4166.65
960.5287	2324.6674	5057.5	4163.25
960.6606	2326.0972	5033.25	4139.15
960.7925	2327.5263	5021.4	4127.75
960.9244	2328.9547	5013.4	4117.05
961.0562	2330.3823	5002.2	4105.1
961.1881	2331.8092	5001.2	4098.8
961.3198	2333.2355	4978.05	4081.65
961.4516	2334.661	4964.3	4069.65
961.5833	2336.0858	4958.1	4060.95
961.715	2337.5098	4949.25	4053.45
961.8467	2338.9332	4945.3	4048.55
961.9783	2340.3558	4920.9	4024.7
962.1099	2341.7778	4907	4016
962.2415	2343.199	4897	4005.35
962.373	2344.6195	4879.4	3985.85
962.5045	2346.0393	4851.15	3958.2
962.636	2347.4583	4855.85	3962.45
962.7675	2348.8767	4850.75	3956.2
962.8989	2350.2943	4850.95	3954.2
963.0303	2351.7113	4828.4	3928.95
963.1617	2353.1275	4819.75	3922
963.293	2354.543	4829.55	3908.4
963.4243	2355.9578	4797.2	3899.75
963.5556	2357.3718	4763.3	3872.95
963.6868	2358.7852	4754.85	3859.85
963.818	2360.1978	4726.9	3833.9
963.9492	2361.6098	4708.65	3815.8
964.0803	2363.021	4695.2	3797.8
964.2114	2364.4315	4696.35	3802.05
964.3425	2365.8413	4690.1	3794.7
964.4736	2367.2504	4675.6	3783.5
964.6046	2368.6587	4647.1	3754.45
964.7356	2370.0664	4644.75	3753.25
964.8666	2371.4733	4630.65	3735.15
964.9975	2372.8795	4613.65	3721.5
965.1284	2374.285	4614.5	3721.15
965.2593	2375.6899	4584.1	3693.1
965.3901	2377.0939	4553.45	3660.2
965.5209	2378.4973	4550.15	3657.6
965.6517	2379.9	4547	3654.65
965.7825	2381.3019	4531.05	3638.05
965.9132	2382.7032	4525.05	3634.25
966.0439	2384.1037	4517.4	3627.95
966.1745	2385.5035	4490.95	3600.15
966.3051	2386.9027	4474.7	3584.8
966.4357	2388.3011	4468.05	3573.6
966.5663	2389.6987	4469.2	3577.65
966.6968	2391.0957	4448.9	3555.6
966.8273	2392.492	4418.75	3524.85
966.9578	2393.8876	4411.15	3516.75
967.0882	2395.2824	4393.8	3500.6
967.2186	2396.6765	4400.8	3508.6
967.349	2398.07	4380.3	3484.75
967.4793	2399.4627	4389.65	3492.35
967.6097	2400.8547	4374.7	3479.15
967.7399	2402.246	4358.85	3455.65
967.8702	2403.6366	4313	3415.75
968.0004	2405.0265	4298.45	3405.15
968.1306	2406.4156	4296.8	3398.85
968.2607	2407.8041	4293.45	3394.85
968.3909	2409.1918	4275.4	3378.1
968.521	2410.5789	4264.95	3369.6
968.651	2411.9652	4251.2	3354.7
968.781	2413.3508	4234.25	3340.45
968.911	2414.7358	4218.2	3321.8
969.041	2416.12	4203.75	3309
969.1709	2417.5035	4209.85	3315.65
969.3008	2418.8863	4184.45	3287.45
969.4307	2420.2684	4164.9	3271.15
969.5606	2421.6497	4179.4	3284.85
969.6904	2423.0304	4131.3	3235.95
969.8201	2424.4104	4141.25	3245.6
969.9499	2425.7896	4122.6	3225.6
970.0796	2427.1682	4115.7	3220.45
970.2093	2428.546	4107.95	3213.8
970.3389	2429.9232	4089.6	3193.4
970.4685	2431.2996	4085.4	3192.55
970.5981	2432.6753	4065.35	3171.95
970.7277	2434.0503	4075.95	3180.45
970.8572	2435.4246	4052.5	3157.6
970.9867	2436.7982	4022	3123.9
971.1161	2438.1711	4029.55	3134.45
971.2456	2439.5433	4018.25	3121.35
971.375	2440.9148	4006.8	3108.2
971.5043	2442.2856	3989	3095.2
971.6336	2443.6557	3986.5	3091.25
971.7629	2445.025	3958.75	3065.2
971.8922	2446.3937	3954.35	3060.55
972.0214	2447.7617	3945.95	3048.2
972.1506	2449.1289	3946.15	3052.8
972.2798	2450.4955	3928.4	3031.3
972.4089	2451.8613	3932.45	3039.35
972.538	2453.2265	3918.3	3023.5
972.6671	2454.5909	3913.7	3020.4
972.7961	2455.9546	3903.75	3010.05
972.9251	2457.3177	3884.15	2990.9
973.0541	2458.68	3875.2	2979.25
973.1831	2460.0416	3865.7	2970.85
973.312	2461.4025	3854.8	2960.45
973.4408	2462.7627	3856.1	2953.5
973.5697	2464.1222	3842.15	2950.2
973.6985	2465.4811	3825.15	2931.8
973.8273	2466.8392	3826.35	2933.55
973.956	2468.1966	3814.4	2918.05
974.0847	2469.5533	3825.1	2929.25
974.2134	2470.9093	3804.6	2910.3
974.3421	2472.2645	3797.1	2903.3
974.4707	2473.6191	3776	2883.3
974.5993	2474.973	3770.6	2874.95
974.7278	2476.3262	3765.3	2870.85
974.8563	2477.6787	3746.7	2855.45
974.9848	2479.0305	3738.8	2844.65
975.1132	2480.3816	3718.6	2822.4
975.2417	2481.7319	3709.1	2816.95
975.37	2483.0816	3705.55	2810.3
975.4984	2484.4306	3686.55	2793.7
975.6267	2485.7789	3677.65	2785.5
975.755	2487.1264	3676.5	2780.35
975.8833	2488.4733	3663.15	2772
976.0115	2489.8195	3666.5	2755.9
976.1397	2491.165	3638.35	2739.55
976.2678	2492.5097	3630.55	2736.45
976.3959	2493.8538	3615.65	2724.05
976.524	2495.1972	3605.95	2712.55
976.6521	2496.5398	3587	2692.25
976.7801	2497.8818	3585.6	2688.55
976.9081	2499.2231	3565.9	2668.75
977.036	2500.5637	3562.75	2665
977.164	2501.9035	3554.2	2657.95
977.2918	2503.2427	3555.65	2655
977.4197	2504.5812	3520.2	2624.2
977.5475	2505.919	3524.95	2630.05
977.6753	2507.256	3518.85	2623.5
977.8031	2508.5924	3501.2	2607.45
977.9308	2509.9281	3498.5	2598.3
978.0585	2511.2631	3479.3	2585.8
978.1861	2512.5974	3481.3	2587.75
978.3137	2513.9309	3471.4	2578.65
978.4413	2515.2638	3489.25	2566.35
978.5689	2516.596	3472.3	2579.25
978.6964	2517.9275	3458.55	2564.25
978.8239	2519.2583	3444.35	2550.65
978.9513	2520.5884	3417.3	2522.45
979.0788	2521.9178	3419.95	2525.75
979.2062	2523.2465	3412.55	2522.3
979.3335	2524.5745	3401.45	2508.5
979.4608	2525.9018	3384.1	2491.7
979.5881	2527.2284	3376.25	2484.4
979.7154	2528.5543	3373.55	2482.3
979.8426	2529.8796	3371.05	2476.5
979.9698	2531.2041	3349.6	2457
980.0969	2532.5279	3357.25	2465.15
980.224	2533.851	3350.55	2457.7
980.3511	2535.1735	3355.9	2465.75
980.4781	2536.4952	3346.1	2453.8
980.6052	2537.8163	3344.05	2448.7
980.7321	2539.1366	3323.35	2429.8
980.8591	2540.4562	3303.6	2409.3
980.986	2541.7752	3310.25	2418.95
981.1129	2543.0935	3307.35	2412.15
981.2397	2544.411	3294.95	2398.9
981.3665	2545.7279	3290.95	2397.5
981.4933	2547.0441	3282.85	2389.2
981.62	2548.3596	3285.1	2388.9
981.7467	2549.6744	3266.2	2373.25
981.8734	2550.9885	3287.5	2391.05
982.0001	2552.3019	3261.25	2365.35
982.1267	2553.6146	3258.1	2364.15
982.2532	2554.9266	3251.25	2354.95
982.3798	2556.2379	3241.2	2345
982.5063	2557.5485	3237.15	2345.2
982.6327	2558.8585	3234.75	2334.3
982.7592	2560.1677	3223.15	2325.85
982.8856	2561.4762	3226.9	2331.15
983.0119	2562.7841	3208.3	2310.8
983.1383	2564.0913	3212.9	2319.9
983.2646	2565.3977	3194.85	2302.6
983.3908	2566.7035	3181.05	2285.3
983.517	2568.0086	3195.45	2298.2
983.6432	2569.313	3194.3	2298.25
983.7694	2570.6167	3182.55	2284.6
983.8955	2571.9197	3170.55	2274.75
984.0216	2573.222	3162.25	2266.1
984.1476	2574.5236	3153.25	2258.35
984.2737	2575.8246	3164.75	2267.5
984.3996	2577.1248	3151.05	2256
984.5256	2578.4244	3137.7	2245.5
984.6515	2579.7232	3149.15	2255.3
984.7774	2581.0214	3168.55	2246.15
984.9032	2582.3189	3123.65	2229.3
985.029	2583.6157	3138.95	2238.65
985.1548	2584.9118	3123.25	2228.75
985.2806	2586.2072	3125.15	2229.9
985.4063	2587.5019	3115.85	2221.65
985.5319	2588.7959	3109.15	2214.4
985.6576	2590.0893	3105	2208.8
985.7832	2591.3819	3103.95	2210.45
985.9087	2592.6739	3085.85	2189.1
986.0343	2593.9652	3087.85	2191.05
986.1597	2595.2557	3072.9	2178.45
986.2852	2596.5456	3073.4	2176.95
986.4106	2597.8348	3056.9	2163.05
986.536	2599.1234	3039.6	2146.1
986.6614	2600.4112	3038.25	2145.65
986.7867	2601.6983	3045.05	2148.4
986.912	2602.9848	3031.5	2137.25
987.0372	2604.2705	3026.2	2126.2
987.1624	2605.5556	3017.55	2123.7
987.2876	2606.84	2996.35	2104.15
987.4128	2608.1237	3000.55	2108.3
987.5379	2609.4067	2997.95	2104.45
987.6629	2610.689	2991.85	2088.85
987.788	2611.9707	2961.55	2063.55
987.913	2613.2516	2959.45	2060.2
988.0379	2614.5319	2953.9	2060.15
988.1629	2615.8115	2946.95	2053.45
988.2878	2617.0903	2943.4	2050.6
988.4126	2618.3685	2930.05	2035.3
988.5375	2619.6461	2923.45	2030.1
988.6622	2620.9229	2907.8	2015.35
988.787	2622.199	2908.05	2013.4
988.9117	2623.4745	2904.85	2011.2
989.0364	2624.7493	2891.75	1998.4
989.161	2626.0234	2885.75	1993.65
989.2857	2627.2968	2875.5	1981.5
989.4102	2628.5695	2866.5	1971.35
989.5348	2629.8415	2874.6	1982.05
989.6593	2631.1128	2854.9	1960.1
989.7837	2632.3835	2846.9	1955
989.9082	2633.6535	2838.4	1946.3
990.0326	2634.9228	2829.9	1937.45
990.1569	2636.1914	2832.05	1938.5
990.2812	2637.4593	2821.95	1926.65
990.4055	2638.7265	2811.9	1916.35
990.5298	2639.9931	2795.85	1903.65
990.654	2641.259	2804.9	1910.9
990.7782	2642.5242	2807.95	1914.2
990.9023	2643.7887	2776.8	1884.5
991.0264	2645.0525	2779.3	1885.3
991.1505	2646.3156	2778.7	1869.35
991.2745	2647.5781	2782.55	1889.7
991.3985	2648.8398	2770.9	1880.15
991.5225	2650.1009	2772	1854.45
991.6464	2651.3613	2754.75	1860.55
991.7703	2652.6211	2734.55	1843.2
991.8942	2653.8801	2731.15	1838.95
992.018	2655.1385	2725.5	1830.3
992.1418	2656.3961	2715	1821.05
992.2655	2657.6531	2733.35	1841.4
992.3892	2658.9094	2723.15	1830.85
992.5129	2660.1651	2711.65	1821.4
992.6366	2661.42	2715.4	1825
992.7602	2662.6743	2705.1	1812.85
992.8837	2663.9279	2700.15	1808.65
993.0073	2665.1808	2700.6	1808.4
993.1307	2666.433	2683.9	1787.75
993.2542	2667.6846	2687.45	1796.75
993.3776	2668.9354	2697.85	1801.1
993.501	2670.1856	2687.15	1794.95
993.6244	2671.4351	2683.2	1791.35
993.7477	2672.6839	2680.15	1786.5
993.8709	2673.9321	2669.45	1778.75
993.9942	2675.1795	2672.85	1777.75
994.1174	2676.4263	2669.2	1776.8
994.2405	2677.6724	2668.05	1777.25
994.3637	2678.9179	2647.7	1755.25
994.4868	2680.1626	2661.85	1770.85
994.6098	2681.4067	2650.5	1758.35
994.7328	2682.6501	2645.85	1753.6
994.8558	2683.8928	2633.4	1743.3
994.9788	2685.1348	2623.25	1731.15
995.1017	2686.3761	2613.55	1721.55
995.2245	2687.6168	2613.7	1722.25
995.3474	2688.8568	2610.15	1718
995.4702	2690.0961	2591.45	1702.1
995.5929	2691.3348	2598.3	1704.65
995.7156	2692.5727	2588.75	1697.6
995.8383	2693.81	2582.55	1690.05
995.961	2695.0466	2571.8	1681.05
996.0836	2696.2826	2573.05	1679.8
996.2062	2697.5178	2560.3	1667.9
996.3287	2698.7524	2559.2	1667.35
996.4512	2699.9863	2562.55	1667.95
996.5737	2701.2195	2545.9	1655.3
996.6961	2702.452	2558	1665.3
996.8185	2703.6839	2551	1658.45
996.9408	2704.9151	2537.85	1647
997.0631	2706.1456	2555.55	1663.2
997.1854	2707.3755	2537.55	1642.75
997.3077	2708.6046	2538.55	1646.35
997.4299	2709.8331	2537.3	1645.15
997.552	2711.0609	2541.4	1649.5
997.6742	2712.2881	2534.3	1642.2
997.7963	2713.5145	2532.2	1640.25
997.9183	2714.7403	2544.4	1652.75
998.0403	2715.9654	2539.45	1647.85
998.1623	2717.1899	2553.85	1646.85
998.2842	2718.4136	2536.2	1643.2
998.4062	2719.6367	2546.1	1654.65
998.528	2720.8591	2549.65	1650.3
998.6498	2722.0809	2552.55	1661.65
998.7716	2723.3019	2554.05	1661
998.8934	2724.5223	2552.9	1659.5
999.0151	2725.7421	2543.7	1648.6
999.1368	2726.9611	2544.05	1650.6
999.2584	2728.1795	2542.5	1644.3
999.38	2729.3972	2538.65	1648.3
999.5016	2730.6142	2527.35	1628.95
999.6231	2731.8306	2504.95	1611.25
999.7446	2733.0462	2484.25	1592.05
999.8661	2734.2612	2474	1577.45
999.9875	2735.4756	2452.35	1560.05
1000.1089	2736.6892	2444.35	1555.25
1000.2302	2737.9022	2431.5	1541.5
1000.3515	2739.1145	2407.6	1517.35
1000.4728	2740.3262	2403.55	1505.3
1000.594	2741.5372	2389.6	1498.95
1000.7152	2742.7475	2376.45	1484.35
1000.8363	2743.9571	2359.1	1466.3
1000.9575	2745.1661	2352.1	1457.8
1001.0785	2746.3744	2343.6	1451.3
1001.1996	2747.582	2345.2	1453.95
1001.3206	2748.7889	2327.5	1435.5
1001.4415	2749.9952	2313.7	1424.55
1001.5625	2751.2008	2307.7	1416.2
1001.6833	2752.4057	2297.05	1402.15
1001.8042	2753.61	2287.3	1394.3
1001.925	2754.8136	2285.85	1393.1
1002.0458	2756.0165	2273.25	1381.75
1002.1665	2757.2188	2279.25	1389.15
1002.2872	2758.4204	2283.5	1393.55
1002.4078	2759.6213	2278.3	1386.05
1002.5285	2760.8215	2266	1373.5
1002.649	2762.0211	2264.8	1372.45
1002.7696	2763.22	2271.7	1377
1002.8901	2764.4182	2255.5	1364.2
1003.0106	2765.6158	2256.65	1365.2
1003.131	2766.8127	2240.25	1348.8
1003.2514	2768.009	2242.6	1351.75
1003.3717	2769.2045	2236.8	1346.65
1003.492	2770.3994	2222.75	1331.7
1003.6123	2771.5936	2213.65	1322.15
1003.7325	2772.7872	2217.45	1328.35
1003.8527	2773.9801	2205.85	1314.25
1003.9729	2775.1723	2219.8	1313.15
1004.093	2776.3639	2192.95	1303.7
1004.2131	2777.5548	2200.8	1307.5
1004.3331	2778.745	2185.25	1293.95
1004.4531	2779.9346	2178.6	1289.75
1004.5731	2781.1235	2189.85	1300.65
1004.693	2782.3117	2183	1292.75
1004.8129	2783.4992	2174.5	1285.35
1004.9328	2784.6861	2171.7	1280.3
1005.0526	2785.8723	2176.25	1285.55
1005.1723	2787.0579	2174.85	1281.95
1005.2921	2788.2428	2159.4	1267.9
1005.4118	2789.427	2163.55	1274.2
1005.5314	2790.6106	2162.65	1274.7
1005.651	2791.7935	2171.85	1281.8
1005.7706	2792.9757	2166.8	1279.7
1005.8902	2794.1573	2169.2	1278.55
1006.0097	2795.3382	2175.95	1286.3
1006.1291	2796.5184	2175.75	1287.05
1006.2485	2797.698	2177.8	1288.15
1006.3679	2798.8769	2183.55	1295.6
1006.4873	2800.0551	2186.55	1296.45
1006.6066	2801.2327	2198.7	1307.05
1006.7258	2802.4096	2206.6	1317.9
1006.8451	2803.5859	2205	1314
1006.9642	2804.7615	2218.1	1327.75
1007.0834	2805.9364	2228.55	1339.55
1007.2025	2807.1106	2240.05	1353.1
1007.3216	2808.2842	2250.6	1359.75
1007.4406	2809.4572	2269.05	1380.55
1007.5596	2810.6294	2289.85	1399.25
1007.6785	2811.801	2308.8	1420.6
1007.7975	2812.972	2327.25	1436.85
1007.9163	2814.1423	2357.8	1469.85
1008.0352	2815.3119	2382.8	1493.95
1008.154	2816.4808	2421.05	1532.5
1008.2727	2817.6491	2452.9	1563.3
1008.3914	2818.8167	2476.2	1587.8
1008.5101	2819.9837	2510.85	1616.75
1008.6288	2821.15	2550.8	1661.3
1008.7474	2822.3157	2587.25	1698.35
1008.8659	2823.4807	2619.7	1731.75
1008.9844	2824.645	2662.95	1773.2
1009.1029	2825.8086	2701.3	1812.75
1009.2214	2826.9716	2733.25	1845.25
1009.3398	2828.134	2773.5	1882.45
1009.4581	2829.2957	2794.35	1904.05
1009.5764	2830.4567	2815.1	1926.6
1009.6947	2831.617	2841.35	1951.3
1009.813	2832.7767	2845.5	1955.95
1009.9312	2833.9358	2841.65	1953.7
1010.0493	2835.0941	2834.45	1943.8
1010.1675	2836.2519	2826.45	1938.75
1010.2855	2837.4089	2804.7	1914.65
1010.4036	2838.5653	2782.1	1894.7
1010.5216	2839.7211	2781.95	1894
1010.6396	2840.8761	2776.4	1886.2
1010.7575	2842.0306	2771.5	1882.4
1010.8754	2843.1843	2792	1903.4
1010.9932	2844.3374	2826	1937.35
1011.111	2845.4899	2838.75	1950.35
1011.2288	2846.6417	2881.35	1991.55
1011.3465	2847.7928	2916.05	2028.55
1011.4642	2848.9433	2966.05	2078.15
1011.5818	2850.0931	3006.55	2119.15
1011.6995	2851.2422	3056.7	2166.3
1011.817	2852.3907	3095.35	2207.4
1011.9345	2853.5385	3139.25	2250.15
1012.052	2854.6857	3176.45	2279.85
1012.1695	2855.8323	3197.7	2309.95
1012.2869	2856.9781	3225.5	2338.85
1012.4042	2858.1233	3260.4	2373.85
1012.5216	2859.2679	3293.3	2404.9
1012.6389	2860.4118	3319.7	2431.95
1012.7561	2861.555	3362.65	2470.3
1012.8733	2862.6976	3387.2	2496.5
1012.9905	2863.8395	3413.7	2526.05
1013.1076	2864.9808	3413.35	2525.2
1013.2247	2866.1214	3446.2	2559.05
1013.3417	2867.2614	3455	2566.05
1013.4587	2868.4007	3454.75	2567.3
1013.5757	2869.5393	3470.3	2578.55
1013.6926	2870.6773	3476.2	2583.7
1013.8095	2871.8146	3466.1	2572.35
1013.9263	2872.9513	3484.4	2591.75
1014.0431	2874.0874	3445.6	2556.45
1014.1599	2875.2227	3447.75	2560.1
1014.2766	2876.3574	3427.8	2541.6
1014.3933	2877.4915	3418.7	2533.55
1014.51	2878.6249	3385.85	2498.3
1014.6266	2879.7577	3371.75	2482.8
1014.7431	2880.8898	3368.55	2469.65
1014.8596	2882.0212	3334.05	2446.55
1014.9761	2883.152	3337	2448.25
1015.0925	2884.2821	3322.95	2435.65
1015.2089	2885.4116	3309.55	2421.7
1015.3253	2886.5405	3304	2415.5
1015.4416	2887.6686	3321.1	2432.2
1015.5579	2888.7962	3299.4	2412.75
1015.6741	2889.923	3310.95	2423.8
1015.7903	2891.0493	3318.2	2431.15
1015.9065	2892.1748	3315.45	2428.95
1016.0226	2893.2997	3328.85	2441.55
1016.1387	2894.424	3339.5	2453.15
1016.2547	2895.5476	3344.85	2457.9
1016.3707	2896.6706	3360.6	2474.8
1016.4866	2897.7929	3354.4	2466.65
1016.6025	2898.9145	3375.5	2487.55
1016.7184	2900.0355	3396.7	2511.05
1016.8342	2901.1559	3412.95	2523.6
1016.95	2902.2756	3437.45	2548.7
1017.0658	2903.3946	3466.55	2579.05
1017.1815	2904.513	3477.3	2587.35
1017.2971	2905.6308	3484.25	2597.6
1017.4127	2906.7479	3506.1	2619.55
1017.5283	2907.8643	3514.25	2625.05
1017.6439	2908.9801	3515.9	2629.75
1017.7594	2910.0953	3520.2	2634.1
1017.8748	2911.2098	3522.1	2631.35
1017.9902	2912.3236	3519.1	2623.95
1018.1056	2913.4368	3517.15	2626.35
1018.2209	2914.5494	3475.9	2589.5
1018.3362	2915.6613	3470.3	2576.45
1018.4515	2916.7725	3451.1	2562.9
1018.5667	2917.8831	3415.1	2528.8
1018.6819	2918.9931	3400.2	2512
1018.797	2920.1024	3368.1	2478.85
1018.9121	2921.211	3338.85	2451.75
1019.0271	2922.319	3340.35	2453.05
1019.1421	2923.4264	3314.45	2427.25
1019.2571	2924.5331	3302.6	2418
1019.372	2925.6391	3292.25	2405.15
1019.4869	2926.7445	3300.15	2414.7
1019.6017	2927.8493	3287.35	2400.85
1019.7165	2928.9534	3299.05	2412.95
1019.8313	2930.0569	3307.5	2417
1019.946	2931.1597	3298.55	2410.8
1020.0606	2932.2619	3295.55	2406.75
1020.1753	2933.3634	3314.1	2428.45
1020.2899	2934.4643	3302.1	2411.1
1020.4044	2935.5645	3299.35	2406.65
1020.5189	2936.6641	3270.2	2378.3
1020.6334	2937.763	3238	2352.45
1020.7478	2938.8613	3222.2	2336.6
1020.8622	2939.959	3172	2279.7
1020.9765	2941.056	3120.9	2235.25
1021.0908	2942.1523	3069.2	2181.35
1021.2051	2943.248	3029.95	2142.2
1021.3193	2944.3431	2953.9	2068
1021.4334	2945.4375	2891.65	2002.55
1021.5476	2946.5313	2824.2	1939.9
1021.6617	2947.6244	2748.45	1861.1
1021.7757	2948.7169	2662.6	1776.6
1021.8897	2949.8087	2611.75	1724.35
1022.0037	2950.8999	2531.65	1643.35
1022.1176	2951.9904	2473.85	1589
1022.2315	2953.0803	2410.25	1524.2
1022.3453	2954.1696	2377.35	1490.45
1022.4591	2955.2582	2341.05	1454.5
1022.5728	2956.3462	2299.9	1414
1022.6865	2957.4335	2270.1	1382.7
1022.8002	2958.5202	2250.9	1362.95
1022.9138	2959.6062	2224.2	1338.55
1023.0274	2960.6916	2210.25	1324.15
1023.141	2961.7764	2176	1288.25
1023.2545	2962.8605	2169.75	1284.3
1023.3679	2963.9439	2152.8	1267.6
1023.4813	2965.0267	2147.55	1261
1023.5947	2966.1089	2159.15	1249.1
1023.708	2967.1905	2130.05	1244.6
1023.8213	2968.2714	2119.95	1234.85
1023.9346	2969.3516	2128.85	1243.7
1024.0478	2970.4312	2135.7	1242.45
1024.1609	2971.5102	2131.15	1244.6
1024.274	2972.5885	2132.7	1247.8
1024.3871	2973.6662	2132.85	1242.4
1024.5002	2974.7432	2123.25	1236.15
1024.6132	2975.8196	2126.35	1241.8
1024.7261	2976.8954	2113	1229.1
1024.839	2977.9705	2112.55	1227.85
1024.9519	2979.045	2094.65	1208
1025.0647	2980.1188	2090.8	1205.8
1025.1775	2981.192	2073.55	1188.7
1025.2902	2982.2645	2058.35	1171.35
1025.4029	2983.3364	2035.35	1149.8
1025.5156	2984.4077	2019.05	1133.5
1025.6282	2985.4783	2012.35	1118.6
1025.7407	2986.5483	1975.55	1089.15
1025.8532	2987.6177	1951.15	1067.75
1025.9657	2988.6864	1919.1	1033.4
1026.0782	2989.7545	1910.1	1020.65
1026.1906	2990.8219	1873.25	988
1026.3029	2991.8887	1849.25	962.35
1026.4152	2992.9548	1829.7	943.7
1026.5275	2994.0204	1805.6	922.9
1026.6397	2995.0852	1775.4	888.65
1026.7519	2996.1495	1757.5	870.45
1026.864	2997.2131	1742.15	856.85
1026.9761	2998.276	1715.55	829.75
1027.0882	2999.3383	1699.75	812.1
1027.2002	3000.4	1684.3	798.4
1027.3122	3001.4611	1666.7	781.4
1027.4241	3002.5215	1653.4	766.2
1027.536	3003.5812	1642.25	755.8
1027.6478	3004.6404	1631.8	744.55
1027.7596	3005.6989	1625.2	737.8
1027.8714	3006.7567	1610	722.6
1027.9831	3007.8139	1616.8	714.45
1028.0947	3008.8705	1595.55	709.5
1028.2064	3009.9264	1600.2	698.15
1028.3179	3010.9818	1579.1	693.9
1028.4295	3012.0364	1576.65	692.6
1028.541	3013.0905	1568	683.05
1028.6524	3014.1439	1562.55	674.6
1028.7638	3015.1966	1556.4	670.65
1028.8752	3016.2487	1551.85	666.3
1028.9865	3017.3002	1554.4	665.65
1029.0978	3018.3511	1541.05	656.7
1029.209	3019.4013	1543.2	658.3
1029.3202	3020.4509	1534	649.8
1029.4314	3021.4998	1538.1	652.55
1029.5425	3022.5481	1529.65	642.7
1029.6535	3023.5958	1523.45	638.25
1029.7645	3024.6428	1531.35	643.9
1029.8755	3025.6892	1528.2	643.45
1029.9864	3026.735	1533.35	649.4
1030.0973	3027.7802	1529	643.8
1030.2082	3028.8247	1522.25	636.65
1030.319	3029.8685	1519.8	634.5
1030.4297	3030.9118	1524.85	641.5
1030.5404	3031.9544	1520.8	635.1
1030.6511	3032.9963	1520.3	634
1030.7617	3034.0376	1518	631.6
1030.8723	3035.0783	1517.05	629.2
1030.9829	3036.1184	1519.7	633.25
1031.0934	3037.1578	1521.25	636.85
1031.2038	3038.1966	1526.65	642.85
1031.3142	3039.2348	1518.3	634.2
1031.4246	3040.2723	1533.9	641.3
1031.5349	3041.3092	1512.45	628.4
1031.6452	3042.3455	1522.6	637
1031.7554	3043.3811	1512.7	628.25
1031.8656	3044.4161	1507.1	621.9
1031.9758	3045.4505	1500.6	616.95
1032.0859	3046.4842	1502.45	616.8
1032.1959	3047.5173	1498.55	614.45
1032.3059	3048.5498	1497.55	612.1
1032.4159	3049.5816	1490.85	607.15
1032.5258	3050.6128	1492.7	609.25
1032.6357	3051.6434	1491.2	605.3
1032.7455	3052.6734	1484.15	597.85
1032.8553	3053.7027	1475.8	591.65
1032.9651	3054.7314	1472.75	588.7
1033.0748	3055.7594	1464.7	581.05
1033.1845	3056.7868	1465.8	579.25
1033.2941	3057.8136	1458.4	573.2
1033.4037	3058.8398	1458.55	575
1033.5132	3059.8653	1453.05	566.8
1033.6227	3060.8902	1453.65	569.1
1033.7321	3061.9145	1444.9	558.75
1033.8415	3062.9381	1447.9	564.2
1033.9509	3063.9612	1460.3	558.6
1034.0602	3064.9835	1443.95	558.9
1034.1694	3066.0053	1437.7	551.25
1034.2787	3067.0264	1437.9	552.8
1034.3878	3068.0469	1429.75	542.75
1034.497	3069.0668	1428.7	541.75
1034.6061	3070.086	1417.3	531.7
1034.7151	3071.1046	1408.35	524.05
1034.8241	3072.1226	1409.05	523.95
1034.9331	3073.1399	1403.2	520.7
1035.042	3074.1567	1393.15	510.1
1035.1508	3075.1727	1389.75	500.45
1035.2597	3076.1882	1376.45	490.75
1035.3684	3077.203	1381.55	496.9
1035.4772	3078.2173	1368.5	483.25
1035.5859	3079.2308	1365.1	477.3
1035.6945	3080.2438	1358.65	472
1035.8031	3081.2561	1355.7	470.95
1035.9117	3082.2678	1351.35	468.2
1036.0202	3083.2789	1340.7	456.6
1036.1286	3084.2893	1337.65	454.45
1036.2371	3085.2991	1337	451.1
1036.3454	3086.3083	1333.25	444.75
1036.4538	3087.3169	1324.9	439.65
1036.562	3088.3248	1317.8	433.85
1036.6703	3089.3321	1320	435.1
1036.7785	3090.3388	1313.45	429.65
1036.8866	3091.3449	1307.7	422.75
1036.9948	3092.3503	1306.2	420.75
1037.1028	3093.3551	1302.45	419.2
1037.2108	3094.3593	1299.95	417.1
1037.3188	3095.3629	1289.7	407.65
1037.4267	3096.3658	1292.35	405.1
1037.5346	3097.3681	1286.9	403.35
1037.6425	3098.3698	1280.85	392.6
1037.7503	3099.3708	1283.6	393.2
1037.858	3100.3713	1271.5	387.8
1037.9657	3101.3711	1275.05	389.7
1038.0734	3102.3702	1410.75	385.9
1038.181	3103.3688	1267.15	380.5
1038.2886	3104.3667	1259.75	377.2
1038.3961	3105.364	1257.6	372.45
1038.5036	3106.3607	1256.5	369.95
1038.611	3107.3568	1258.4	372.6
1038.7184	3108.3522	1247.25	363.45
1038.8257	3109.347	1244.9	360.75
1038.933	3110.3412	1249.75	363.8
1039.0403	3111.3348	1243.75	358.35
1039.1475	3112.3277	1243.75	360.4
1039.2547	3113.32	1239.35	356.7
1039.3618	3114.3117	1238.4	352.5
1039.4689	3115.3028	1227.55	342.35
1039.5759	3116.2932	1232.75	346.75
1039.6829	3117.2831	1231.95	341.75
1039.7898	3118.2723	1229.75	346.15
1039.8967	3119.2608	1224.7	339.55
1040.0035	3120.2488	1220.55	336.8
1040.1103	3121.2361	1216.05	331.05
1040.2171	3122.2229	1214.6	331.9
1040.3238	3123.209	1212.55	328.5
1040.4305	3124.1944	1207.55	323.1
1040.5371	3125.1793	1214.25	328
1040.6437	3126.1635	1210.9	326.45
1040.7502	3127.1471	1205.5	321.8
1040.8567	3128.1301	1200.85	317.4
1040.9631	3129.1125	1202.35	318.5
1041.0695	3130.0942	1199.2	317.25
1041.1759	3131.0753	1205.05	312.15
1041.2822	3132.0558	1206.4	320.55
1041.3884	3133.0357	1193.45	307.95
1041.4946	3134.015	1191.3	307.5
1041.6008	3134.9936	1195.3	310.65
1041.7069	3135.9716	1213.05	307.55
1041.813	3136.949	1190.35	306.1
1041.919	3137.9258	1206.4	305.5
1042.025	3138.902	1195.85	306.35
1042.1309	3139.8775	1179.65	295.65
1042.2368	3140.8524	1178.2	294.85
1042.3427	3141.8267	1182.3	299
1042.4485	3142.8004	1179.2	294.45
1042.5542	3143.7735	1180	291.85
1042.6599	3144.7459	1180.8	293.95
1042.7656	3145.7178	1178.75	293.2
1042.8712	3146.689	1170.65	287.6
1042.9768	3147.6596	1171.8	287.35
1043.0823	3148.6295	1168.6	283.25
1043.1878	3149.5989	1157.55	274.6
1043.2932	3150.5676	1164.1	281.2
1043.3986	3151.5357	1161.75	279.3
1043.5039	3152.5032	1159.6	277.45
1043.6092	3153.4701	1162.2	281.4
1043.7145	3154.4364	1160.55	274.5
1043.8197	3155.402	1155.9	272.5
1043.9248	3156.367	1155.5	269.05
1044.03	3157.3315	1188.05	265.3
1044.135	3158.2952	1150.45	264.85
1044.24	3159.2584	1149.6	267.2
1044.345	3160.221	1152.2	269.75
1044.4499	3161.1829	1147.3	264.05
1044.5548	3162.1442	1145.65	261.25
1044.6596	3163.105	1145.6	261.35
1044.7644	3164.065	1146.15	262.1
1044.8692	3165.0245	1136.8	251.2
1044.9739	3165.9834	1137	255.15
1045.0785	3166.9416	1140.45	259.85
1045.1831	3167.8993	1137	250.7
1045.2877	3168.8563	1134.55	251.65
1045.3922	3169.8127	1137.85	255.75
1045.4966	3170.7684	1129.85	245.8
1045.6011	3171.7236	1133.25	248.45
1045.7054	3172.6782	1126.65	240.5
1045.8098	3173.6321	1128.6	244.4
1045.914	3174.5854	1130	241.15
1046.0183	3175.5381	1123.95	240.4
1046.1224	3176.4902	1123.35	238.5
1046.2266	3177.4417	1127.75	247.25
1046.3307	3178.3926	1120.05	237.4
1046.4347	3179.3428	1116.7	234.6
1046.5387	3180.2924	1119.7	238.6
1046.6427	3181.2415	1113.6	231.3
1046.7466	3182.1899	1115.7	230.7
1046.8504	3183.1377	1114.1	230.65
1046.9542	3184.0848	1116.45	231.2
1047.058	3185.0314	1111.35	228.1
1047.1617	3185.9773	1114.45	231.55
1047.2654	3186.9227	1108.45	222.9
1047.369	3187.8674	1106.8	223
1047.4726	3188.8115	1107.3	220.15
1047.5761	3189.755	1105.55	223.2
1047.6796	3190.6979	1103.05	220.45
1047.783	3191.6402	1104.8	222.6
1047.8864	3192.5818	1102.95	219.4
1047.9898	3193.5229	1100.8	209.85
1048.0931	3194.4633	1099.35	216.05
1048.1963	3195.4031	1101	217.85
1048.2995	3196.3423	1096.4	214.7
1048.4027	3197.2809	1092.6	208.6
1048.5058	3198.2189	1096.1	211.15
1048.6089	3199.1563	1101.85	213.85
1048.7119	3200.0931	1090.45	208.65
1048.8148	3201.0292	1088.55	206.85
1048.9178	3201.9648	1087	203.95
1049.0206	3202.8997	1088.85	202.75
1049.1235	3203.834	1087.95	205.7
1049.2262	3204.7677	1084.9	201.65
1049.329	3205.7008	1082.3	198.15
1049.4317	3206.6333	1081.7	197.9
1049.5343	3207.5652	1093.05	207.75
1049.6369	3208.4964	1079.1	196.05
1049.7394	3209.4271	1082.7	201.05
1049.8419	3210.3571	1079.5	196.85
1049.9444	3211.2865	1079.85	196.3
1050.0468	3212.2154	1077.8	192.95
1050.1491	3213.1436	1085.25	199.3
1050.2514	3214.0712	1081.55	192.8
1050.3537	3214.9982	1073.55	191.5
1050.4559	3215.9246	1079.15	197.65
1050.5581	3216.8503	1073.3	191
1050.6602	3217.7755	1074.45	191.25
1050.7623	3218.7001	1069.45	189.3
1050.8643	3219.624	1071.3	187.45
1050.9663	3220.5473	1069.25	187.15
1051.0682	3221.4701	1071.45	185.7
1051.1701	3222.3922	1067.55	182.3
1051.2719	3223.3137	1066.4	181.5
1051.3737	3224.2346	1072.15	189.55
1051.4754	3225.1549	1061.6	176.5
1051.5771	3226.0746	1062.8	178.75
1051.6788	3226.9937	1062.05	179.45
1051.7804	3227.9121	1062.45	179.65
1051.8819	3228.83	1059.7	176.9
1051.9834	3229.7473	1055.05	170.1
1052.0849	3230.6639	1060.25	178.05
1052.1863	3231.5799	1056.5	173.55
1052.2876	3232.4954	1055.7	173.75
1052.3889	3233.4102	1054.6	172.2
1052.4902	3234.3244	1057.9	174.2
1052.5914	3235.238	1053	169.85
1052.6926	3236.151	1079.85	172.45
1052.7937	3237.0634	1050.9	167.85
1052.8948	3237.9752	1049.6	167.85
1052.9958	3238.8864	1054.5	169.3
1053.0968	3239.797	1048.75	166.95
1053.1977	3240.7069	1049.25	166.6
1053.2986	3241.6163	1047.8	164.75
1053.3994	3242.5251	1041.2	157.95
1053.5002	3243.4332	1047.05	164.85
1053.6009	3244.3408	1042.7	159
1053.7016	3245.2477	1043.15	161.05
1053.8022	3246.154	1045.55	161.2
1053.9028	3247.0598	1040.15	155
1054.0034	3247.9649	1037.35	154.75
1054.1039	3248.8694	1038.05	155.25
1054.2043	3249.7733	1037.65	155.05
1054.3047	3250.6766	1036.15	154.35
1054.4051	3251.5793	1034.3	148.25
1054.5054	3252.4814	1034.35	153.95
1054.6056	3253.3829	1032.8	149.45
1054.7058	3254.2838	1032.05	150.05
1054.806	3255.1841	1034.15	150.4
1054.9061	3256.0838	1027.05	143.2
1055.0061	3256.9829	1022.5	142.15
1055.1062	3257.8814	1028.3	144.35
1055.2061	3258.7792	1027.7	141.95
1055.306	3259.6765	1029.75	145.45
1055.4059	3260.5731	1026.15	143.2
1055.5057	3261.4692	1020.1	137.7
1055.6055	3262.3647	1020.6	136.5
1055.7052	3263.2595	1015.7	133.15
1055.8049	3264.1538	1015.55	134.35
1055.9045	3265.0474	1014.75	133
1056.0041	3265.9404	1016.25	134.8
1056.1036	3266.8329	1011.15	129.5
1056.2031	3267.7247	1018.15	125.55
1056.3025	3268.616	1005	123.8
1056.4019	3269.5066	1004.6	122.25
1056.5013	3270.3966	998.35	114.8
1056.6005	3271.286	991.85	108.8
