Software Version:	3.9.2.0
Unit SN:	10000200
Spectrometer SN:	6960
Date:	3/26/2024 2:23:52 PM
Data Line Index:	25
Spectral Points:	2048
Integration time (ms):	125
Averages:	20
Delay (ms):	30000
Sequence Number:	1
Processing:	dark subtract
Laser Power (mW):	305
Laser Current (mA):	819
Laser Diode Temp (C):	25
Laser Case Temp (C):	27.7
System Temp (C):	27.7
Spectrometer Temp (C):	25.6
CCD Temp (C):	0.007
Secondary Temp (C):	20.004
Heatsink Temp (C):	23.436
CCDPCB Temp (C):	37.107
SecondaryPCB Temp (C):	34.673

Wavelength	RamanShift	Raw Counts	Dark Subtracted
787.061	30.1047	673.55	265.05
787.2016	32.3739	685.25	275.8
787.3422	34.6426	704.55	294.75
787.4828	36.9109	721.95	308.85
787.6235	39.1787	746.4	330.6
787.7642	41.4461	774.45	353.7
787.9049	43.7131	799.55	375.7
788.0456	45.9796	823.45	396.2
788.1863	48.2456	853.4	419.2
788.3271	50.5112	885.3	450.7
788.4679	52.7764	911.55	474.4
788.6087	55.0411	945.75	507.45
788.7496	57.3054	983.65	538.6
788.8904	59.5692	1019.2	569.85
789.0313	61.8326	1059.2	605.55
789.1722	64.0955	1112.8	654.5
789.3132	66.3579	1161.75	698.8
789.4541	68.6199	1220.25	755.1
789.5951	70.8815	1336.8	870.5
789.7361	73.1426	1557.7	1085.6
789.8771	75.4032	2115.35	1637.9
790.0181	77.6634	3521.5	3035.75
790.1592	79.9231	7059.55	6565.8
790.3003	82.1824	15210.95	14700
790.4414	84.4412	36400.4	35855.25
790.5825	86.6995	63707	63112
790.7237	88.9574	65535	64896.65
790.8648	91.2148	65535	64864.6
791.006	93.4717	65535	64847
791.1472	95.7282	65535	64839.35
791.2885	97.9842	65535	64831.1
791.4297	100.2398	65535	64829.45
791.571	102.4949	65535	64824.1
791.7123	104.7495	65535	64823.05
791.8536	107.0036	65535	64822.55
791.9949	109.2573	65535	64822.65
792.1363	111.5105	65535	64819.75
792.2777	113.7632	65535	64822.6
792.4191	116.0154	65535	64809.4
792.5605	118.2672	65535	64814.2
792.7019	120.5185	65535	64817.7
792.8434	122.7693	65535	64811.3
792.9849	125.0197	65535	64807.65
793.1264	127.2696	65535	64804.3
793.2679	129.519	65535	64800.35
793.4094	131.7679	65535	64796.25
793.551	134.0163	65535	64792.5
793.6926	136.2642	65535	64795.75
793.8342	138.5117	65535	64785.05
793.9758	140.7587	65535	64784.85
794.1175	143.0052	65535	64784
794.2591	145.2512	65535	64783.9
794.4008	147.4967	65535	64785.55
794.5425	149.7417	65535	64786.55
794.6842	151.9863	65535	64775.2
794.826	154.2304	65535	64770.4
794.9677	156.4739	65535	64771.1
795.1095	158.717	65535	64766.45
795.2513	160.9596	65535	64763.65
795.3931	163.2017	65535	64763.3
795.535	165.4433	65535	64760.45
795.6768	167.6844	65535	64763
795.8187	169.925	65535	64757.3
795.9606	172.1651	65535	64758.85
796.1025	174.4047	65535	64754.5
796.2445	176.6439	65535	64754.85
796.3864	178.8825	65535	64747.8
796.5284	181.1206	65535	64743.1
796.6704	183.3582	65535	64740.8
796.8124	185.5954	65535	64737.9
796.9544	187.832	65535	64735.7
797.0965	190.0681	65535	64729.8
797.2386	192.3037	65535	64730.85
797.3806	194.5388	65535	64727.7
797.5228	196.7734	65535	64724.9
797.6649	199.0075	65535	64722.75
797.807	201.2411	65535	64718.8
797.9492	203.4742	65535	64718.15
798.0914	205.7068	65535	64715.9
798.2336	207.9389	65535	64712.6
798.3758	210.1704	65535	64709.8
798.518	212.4015	65535	64705.7
798.6603	214.632	65535	64715.4
798.8025	216.862	65535	64721.75
798.9448	219.0915	65535	64727.5
799.0871	221.3205	65535	64731.3
799.2294	223.549	65535	64737.8
799.3718	225.777	65535	64733.35
799.5141	228.0044	65535	64730.2
799.6565	230.2314	65535	64730.5
799.7989	232.4578	65535	64730.95
799.9413	234.6837	65535	64725.45
800.0837	236.909	65535	64723.3
800.2262	239.1339	65535	64697.9
800.3687	241.3582	65535	64706.9
800.5111	243.582	65535	64681.95
800.6536	245.8053	65535	64693.85
800.7961	248.0281	65535	64696.8
800.9387	250.2503	65535	64695.1
801.0812	252.472	65535	64685.65
801.2238	254.6932	65535	64690.25
801.3664	256.9139	65535	64686.9
801.509	259.134	65535	64685.6
801.6516	261.3536	65535	64683.2
801.7942	263.5727	65535	64681.3
801.9369	265.7912	65535	64682.55
802.0795	268.0092	65535	64684.9
802.2222	270.2267	65535	64680.55
802.3649	272.4436	65535	64681.35
802.5076	274.6601	65535	64678.55
802.6504	276.8759	65535	64679.8
802.7931	279.0913	65535	64674.55
802.9359	281.3061	65535	64677.1
803.0787	283.5204	65535	64674.05
803.2215	285.7341	65535	64670.45
803.3643	287.9473	65535	64659.6
803.5071	290.16	65535	64664.45
803.6499	292.3721	65535	64669.05
803.7928	294.5837	65535	64665.75
803.9357	296.7947	65535	64669.95
804.0786	299.0052	65535	64662.65
804.2215	301.2152	65535	64666.6
804.3644	303.4246	65535	64674
804.5074	305.6334	65535	64673.4
804.6503	307.8418	65535	64668.75
804.7933	310.0495	65535	64665
804.9363	312.2568	65535	64662.05
805.0793	314.4635	65535	64662.85
805.2223	316.6696	65535	64666.3
805.3653	318.8752	65535	64656.75
805.5084	321.0802	65535	64660.45
805.6514	323.2847	65535	64664
805.7945	325.4887	65535	64658.6
805.9376	327.692	65535	64657.6
806.0807	329.8949	65535	64654.65
806.2238	332.0972	65535	64654.6
806.367	334.2989	65535	64653.85
806.5101	336.5001	65535	64650.65
806.6533	338.7007	65535	64652.6
806.7965	340.9008	65535	64644.5
806.9397	343.1003	65535	64646.1
807.0829	345.2992	65535	64649.3
807.2261	347.4976	65535	64648.15
807.3693	349.6955	65535	64641.8
807.5126	351.8927	65535	64640.55
807.6559	354.0895	65535	64630.2
807.7991	356.2856	65535	64637.25
807.9424	358.4812	65535	64640.9
808.0857	360.6763	65535	64640.2
808.2291	362.8707	65535	64641.45
808.3724	365.0646	65535	64640.15
808.5158	367.258	65535	64638.7
808.6591	369.4508	65535	64632.05
808.8025	371.643	65535	64633.55
808.9459	373.8346	65535	64633.75
809.0893	376.0257	65535	64628.1
809.2327	378.2162	65535	64630.45
809.3762	380.4062	65535	64629.35
809.5196	382.5956	65535	64629
809.6631	384.7844	65535	64630
809.8066	386.9726	65535	64629.55
809.9501	389.1603	65535	64629.25
810.0936	391.3474	65535	64595.1
810.2371	393.5339	65535	64630.9
810.3806	395.7199	65535	64633.85
810.5241	397.9052	65535	64637.2
810.6677	400.09	65535	64635.9
810.8113	402.2743	65535	64640.15
810.9548	404.4579	65535	64641.5
811.0984	406.641	65535	64639.35
811.2421	408.8235	65535	64636.3
811.3857	411.0054	65535	64640.25
811.5293	413.1868	65535	64633.2
811.673	415.3675	65535	64631.75
811.8166	417.5477	65535	64630.1
811.9603	419.7273	65535	64628.55
812.104	421.9064	65535	64620.95
812.2477	424.0848	65535	64625.15
812.3914	426.2627	65535	64624.2
812.5351	428.4399	65535	64622.2
812.6788	430.6166	65535	64616.8
812.8226	432.7928	65535	64618.85
812.9663	434.9683	65535	64622.8
813.1101	437.1432	65535	64625.05
813.2539	439.3176	65535	64626.65
813.3977	441.4914	65535	64631
813.5415	443.6645	65535	64624.6
813.6853	445.8371	65535	64618.8
813.8291	448.0091	65535	64621.65
813.973	450.1806	65535	64621.6
814.1168	452.3514	65535	64624.7
814.2607	454.5216	65535	64620
814.4046	456.6913	65535	64621.8
814.5485	458.8603	65535	64626.25
814.6924	461.0288	65535	64632.35
814.8363	463.1967	65535	64631.85
814.9802	465.3639	65535	64624
815.1241	467.5306	65535	64625.85
815.2681	469.6967	65535	64626.75
815.412	471.8622	65535	64627.05
815.556	474.0271	65535	64625.45
815.7	476.1914	65535	64618.65
815.844	478.3551	65535	64618.3
815.988	480.5182	65535	64621.8
816.132	482.6807	65535	64630.9
816.276	484.8426	65535	64638.5
816.4201	487.0039	65535	64628.45
816.5641	489.1647	65535	64621.95
816.7082	491.3248	65535	64618.45
816.8522	493.4843	65535	64623
816.9963	495.6432	65535	64623.3
817.1404	497.8015	65535	64614.85
817.2845	499.9592	65535	64610.85
817.4286	502.1163	65535	64614.45
817.5727	504.2728	65535	64625.2
817.7168	506.4287	65535	64629
817.861	508.5839	65535	64627.4
818.0051	510.7386	65535	64625.45
818.1493	512.8927	65535	64611.5
818.2935	515.0461	65535	64614.55
818.4377	517.199	65535	64611.7
818.5818	519.3512	65535	64611.65
818.726	521.5029	65535	64610.95
818.8703	523.6539	65535	64615.35
819.0145	525.8043	65535	64614.7
819.1587	527.9541	65535	64609.4
819.303	530.1033	65535	64614
819.4472	532.2519	65535	64611.95
819.5915	534.3999	65535	64611.7
819.7357	536.5472	65535	64613.4
819.88	538.694	65535	64616.3
820.0243	540.8401	65535	64610.25
820.1686	542.9856	65535	64608.8
820.3129	545.1305	65535	64593.05
820.4572	547.2748	65535	64593.5
820.6016	549.4185	65535	64592.15
820.7459	551.5615	65535	64597.3
820.8902	553.704	65535	64596.2
821.0346	555.8458	65535	64605.8
821.1789	557.987	65535	64603.8
821.3233	560.1276	65535	64606.25
821.4677	562.2675	65535	64605.7
821.6121	564.4069	65535	64601.2
821.7565	566.5456	65535	64602.6
821.9009	568.6837	65535	64605.45
822.0453	570.8212	65535	64606.95
822.1897	572.958	65535	64604.3
822.3342	575.0942	65535	64612.5
822.4786	577.2299	65535	64612.2
822.6231	579.3648	65535	64623.25
822.7675	581.4992	65535	64630.5
822.912	583.6329	65535	64629.35
823.0565	585.766	65535	64627.25
823.201	587.8985	65535	64618.7
823.3454	590.0304	65535	64597.3
823.4899	592.1616	65535	64606.8
823.6345	594.2922	65535	64601.8
823.779	596.4222	65535	64601.8
823.9235	598.5515	65535	64594.5
824.068	600.6802	65535	64596.15
824.2126	602.8083	65535	64601.55
824.3571	604.9358	65535	64601.35
824.5017	607.0626	65535	64598.25
824.6462	609.1888	65535	64590.55
824.7908	611.3144	65535	64597.95
824.9354	613.4393	65535	64595.75
825.08	615.5636	65535	64590.85
825.2246	617.6873	65535	64596.95
825.3692	619.8103	65535	64597.95
825.5138	621.9327	65535	64596.4
825.6584	624.0544	65535	64603.75
825.803	626.1756	65535	64600.2
825.9477	628.2961	65535	64596.95
826.0923	630.4159	65535	64593.75
826.237	632.5351	65535	64593.95
826.3816	634.6537	65535	64596
826.5263	636.7716	65535	64589.7
826.6709	638.8889	65535	64589.85
826.8156	641.0056	65535	64589.8
826.9603	643.1216	65535	64590.2
827.105	645.237	65535	64591.1
827.2497	647.3518	65535	64599.65
827.3944	649.4659	65535	64604.1
827.5391	651.5793	65535	64604.9
827.6838	653.6922	65535	64600.9
827.8285	655.8043	65535	64600.6
827.9733	657.9159	65535	64600.6
828.118	660.0268	65535	64599.8
828.2627	662.137	65535	64593.4
828.4075	664.2466	65535	64587.35
828.5522	666.3556	65535	64592.4
828.697	668.4639	65535	64593.85
828.8418	670.5716	65535	64596.75
828.9865	672.6786	65535	64596.1
829.1313	674.785	65535	64589.3
829.2761	676.8907	65535	64595.3
829.4209	678.9958	65535	64598.95
829.5657	681.1002	65535	64594.25
829.7105	683.204	65535	64586.6
829.8553	685.3072	65535	64585.15
830.0001	687.4097	65535	64589.7
830.1449	689.5115	65535	64587.35
830.2898	691.6127	65535	64593.55
830.4346	693.7132	65535	64593.7
830.5794	695.8131	65535	64573.2
830.7243	697.9123	65535	64588.05
830.8691	700.0109	65535	64583.2
831.014	702.1089	65535	64590.65
831.1588	704.2061	65535	64591.3
831.3037	706.3028	65535	64583.1
831.4486	708.3987	65535	64587.75
831.5935	710.4941	65535	64590.45
831.7383	712.5887	65535	64593.65
831.8832	714.6827	65535	64587.05
832.0281	716.7761	65535	64593.3
832.173	718.8688	65535	64592.05
832.3179	720.9608	65535	64585
832.4628	723.0522	65535	64578.35
832.6077	725.1429	65535	64584.7
832.7527	727.233	65535	64584.4
832.8976	729.3224	65535	64589.3
833.0425	731.4112	65535	64589.5
833.1874	733.4993	65535	64586.5
833.3324	735.5867	65535	64588.05
833.4773	737.6735	65535	64587
833.6222	739.7596	65535	64583.65
833.7672	741.845	65535	64587.4
833.9122	743.9298	65535	64585.85
834.0571	746.014	65535	64583.3
834.2021	748.0974	65535	64579.6
834.347	750.1802	65535	64581.7
834.492	752.2624	65535	64582.15
834.637	754.3439	65535	64585.5
834.782	756.4247	65535	64574.85
834.9269	758.5048	65535	64583.85
835.0719	760.5843	65535	64579.9
835.2169	762.6631	65535	64581.05
835.3619	764.7413	65535	64583.7
835.5069	766.8188	65535	64584.2
835.6519	768.8956	65535	64581.35
835.7969	770.9718	65535	64583.1
835.9419	773.0473	65535	64582.6
836.0869	775.1221	65535	64581.85
836.232	777.1962	65535	64583.45
836.377	779.2697	65535	64579.55
836.522	781.3426	65535	64562.2
836.667	783.4147	65535	64581.3
836.8121	785.4862	65535	64583.4
836.9571	787.557	65535	64577.85
837.1021	789.6271	65535	64580.35
837.2472	791.6966	65535	64580.35
837.3922	793.7654	65535	64580.6
837.5373	795.8335	65535	64583.9
837.6823	797.901	65535	64582.75
837.8274	799.9678	65535	64578.2
837.9724	802.0339	65535	64576.6
838.1175	804.0993	65535	64565.85
838.2626	806.1641	65533	64577.35
838.4076	808.2282	65528.8	64573.85
838.5527	810.2916	65525.7	64570.35
838.6978	812.3544	65535	64586
838.8428	814.4164	65520.45	64567.5
838.9879	816.4778	65519.4	64561
839.133	818.5385	65521.45	64558.75
839.2781	820.5986	65519.05	64562.15
839.4232	822.658	65522.85	64567
839.5682	824.7166	65525.4	64571.65
839.7133	826.7747	65506.3	64548.2
839.8584	828.832	65512.85	64557.5
840.0035	830.8886	65522.5	64567.1
840.1486	832.9446	65526.75	64569.75
840.2937	834.9999	65467.05	64510.1
840.4388	837.0545	65509.65	64550.2
840.5839	839.1085	65524.45	64566.7
840.729	841.1618	65517.35	64556.65
840.8741	843.2143	65459.15	64503.75
841.0192	845.2662	65464.05	64509.35
841.1643	847.3175	65491.85	64535.45
841.3095	849.368	65413	64455
841.4546	851.4179	65473.75	64516.25
841.5997	853.467	65421.25	64464.95
841.7448	855.5155	65448.25	64493.4
841.8899	857.5633	65403.45	64443.5
842.0351	859.6105	65389.5	64431.7
842.1802	861.6569	65403.95	64445.75
842.3253	863.7027	65346.75	64387.1
842.4704	865.7478	65375.7	64415.7
842.6156	867.7922	65354.25	64398.65
842.7607	869.8359	65398.8	64441.65
842.9058	871.8789	65327.95	64368.55
843.0509	873.9212	65370.1	64378
843.1961	875.9629	65383.15	64426.7
843.3412	878.0039	65384.15	64427.75
843.4863	880.0441	65360.75	64403.25
843.6315	882.0837	65356.7	64398.45
843.7766	884.1226	65347.55	64392.75
843.9218	886.1609	65328.75	64372.55
844.0669	888.1984	65298.85	64338.6
844.212	890.2352	65340.7	64381.3
844.3572	892.2714	65265.9	64302.4
844.5023	894.3069	65313.05	64352.55
844.6475	896.3416	65286.05	64327.15
844.7926	898.3757	65272.7	64314.4
844.9377	900.4091	65136.4	64174.45
845.0829	902.4418	65286.65	64319.85
845.228	904.4739	65201.45	64239.95
845.3732	906.5052	65205.5	64247.1
845.5183	908.5358	65148.9	64189.05
845.6635	910.5658	65121.55	64163.15
845.8086	912.595	65117	64157.9
845.9538	914.6236	64932	63971.55
846.0989	916.6515	65185.7	64228.45
846.2441	918.6786	64945.7	63984.9
846.3892	920.7051	65022.9	64057.65
846.5344	922.7309	64973.15	64010.75
846.6795	924.756	65028.5	64071.85
846.8246	926.7804	64954.95	63995.85
846.9698	928.8041	64728.95	63772.5
847.1149	930.8272	64915.9	63956.85
847.2601	932.8495	64918.15	63955.65
847.4052	934.8711	64744.1	63782.55
847.5504	936.892	64547.5	63587.65
847.6955	938.9123	64663.4	63702.1
847.8407	940.9318	64489.15	63529.05
847.9858	942.9506	64433.1	63473.8
848.131	944.9688	64461.9	63501.75
848.2761	946.9862	63957.2	62996.85
848.4213	949.003	64193.4	63235.55
848.5664	951.019	63684.3	62723.1
848.7115	953.0344	63818.55	62858.6
848.8567	955.0491	63780.25	62818.85
849.0018	957.063	63958.9	62997.1
849.147	959.0763	64003.6	63039.9
849.2921	961.0888	63552.15	62589.35
849.4373	963.1007	63864.95	62909.55
849.5824	965.1119	63874.65	62923.55
849.7275	967.1223	63530.9	62584.9
849.8727	969.1321	63899.75	62956.3
850.0178	971.1412	63359.7	62408.35
850.1629	973.1495	63146.8	62191.15
850.3081	975.1572	63454.4	62447.25
850.4532	977.1641	63157.6	62198.25
850.5983	979.1704	63135.45	62177.4
850.7435	981.1759	63184.05	62222.8
850.8886	983.1808	62810.5	61847.3
851.0337	985.1849	62843.4	61869.75
851.1788	987.1884	63057.25	62100.9
851.324	989.1911	63395.5	62438.25
851.4691	991.1932	62383.7	61425.75
851.6142	993.1945	62638.35	61685.1
851.7593	995.1951	62912.2	61956.45
851.9045	997.1951	62291.9	61329.8
852.0496	999.1943	62103.8	61144.8
852.1947	1001.1928	61834.85	60874.9
852.3398	1003.1906	62045.55	61086.75
852.4849	1005.1877	61105.95	60147.65
852.63	1007.1841	60808.35	59848.15
852.7751	1009.1798	60853.05	59898.95
852.9202	1011.1748	60724	59767.2
853.0653	1013.1691	60517.65	59560.65
853.2104	1015.1627	58827.35	57871.2
853.3555	1017.1556	59342.1	58386.95
853.5006	1019.1477	59528.2	58575.3
853.6457	1021.1392	58698.6	57746.85
853.7908	1023.1299	57850.85	56901.85
853.9359	1025.12	58377.6	57436.75
854.081	1027.1093	57940.55	57010.9
854.2261	1029.0979	57914	56985.7
854.3712	1031.0859	57746	56812.95
854.5163	1033.0731	56982.95	56040.05
854.6613	1035.0596	57207.45	56261.35
854.8064	1037.0454	57031.35	56079.75
854.9515	1039.0304	56495.3	55543.1
855.0965	1041.0148	55708.2	54755.45
855.2416	1042.9985	55811	54855.85
855.3867	1044.9814	56101.6	55150.25
855.5317	1046.9636	55323.5	54367.75
855.6768	1048.9452	55296.35	54342.8
855.8219	1050.926	55080.55	54125.35
855.9669	1052.9061	54966.2	54010.85
856.112	1054.8855	55025.95	54072.65
856.257	1056.8642	54575.45	53621.45
856.4021	1058.8421	54312.85	53353.6
856.5471	1060.8194	54279.85	53322.4
856.6921	1062.7959	53989.45	53034.2
856.8372	1064.7717	54173.2	53219.65
856.9822	1066.7469	53957.75	53000.9
857.1272	1068.7213	53848.55	52891.7
857.2723	1070.695	53527.7	52575.5
857.4173	1072.6679	53069.6	52116.6
857.5623	1074.6402	53122.2	52167.95
857.7073	1076.6117	52857.4	51897.9
857.8523	1078.5826	52864.45	51909.1
857.9973	1080.5527	52739.8	51782
858.1423	1082.5221	52629.5	51672.55
858.2873	1084.4908	52803.6	51848.85
858.4323	1086.4587	52827.75	51872
858.5773	1088.426	52909.7	51952.45
858.7223	1090.3925	52744.45	51784
858.8673	1092.3584	52502.5	51550.65
859.0123	1094.3235	52001.8	51051.1
859.1573	1096.2879	51732.6	50777.65
859.3022	1098.2515	51599.85	50645
859.4472	1100.2145	51494.85	50544.75
859.5922	1102.1767	51366.5	50410.6
859.7371	1104.1382	51483.25	50532.95
859.8821	1106.099	51451.1	50496.05
860.027	1108.0591	51413.55	50461.95
860.172	1110.0185	51201.4	50247.4
860.3169	1111.9771	51295.3	50347.25
860.4619	1113.9351	50835.95	49884.9
860.6068	1115.8923	50296.95	49346.4
860.7517	1117.8488	49741.6	48785.7
860.8967	1119.8045	49184.8	48232
861.0416	1121.7596	49051.8	48096.7
861.1865	1123.7139	48790.4	47840
861.3314	1125.6675	48669.85	47716.3
861.4763	1127.6204	48657.4	47705.8
861.6212	1129.5726	48494.05	47541.6
861.7661	1131.524	48490.75	47537.2
861.911	1133.4748	48498.25	47547.8
862.0559	1135.4248	48280.2	47328.7
862.2008	1137.3741	48243	47293.5
862.3457	1139.3226	48089.85	47139.3
862.4905	1141.2705	48024.5	47072.75
862.6354	1143.2176	47695.4	46738.75
862.7803	1145.164	47593.7	46638.7
862.9251	1147.1097	47413.25	46461.85
863.07	1149.0546	47412.15	46460.45
863.2148	1150.9989	47192.25	46240.55
863.3597	1152.9424	46974.7	46022.2
863.5045	1154.8852	46668.3	45715.95
863.6493	1156.8272	46358.35	45405.9
863.7942	1158.7686	46271.65	45310.95
863.939	1160.7092	45982.85	45033
864.0838	1162.6491	45765.15	44813.75
864.2286	1164.5883	45820.6	44870.3
864.3734	1166.5267	45716.4	44763.65
864.5182	1168.4644	45805.95	44855
864.663	1170.4014	45808.45	44857
864.8078	1172.3377	46021.8	45074.9
864.9526	1174.2732	46120.9	45174.1
865.0974	1176.2081	46205.25	45253.45
865.2421	1178.1421	46224.25	45270.95
865.3869	1180.0755	46300.45	45350.7
865.5317	1182.0082	46058.15	45110.75
865.6764	1183.9401	45939.45	44990.2
865.8212	1185.8713	45530.5	44588.7
865.9659	1187.8017	45174.05	44238.25
866.1106	1189.7315	44850	43921.6
866.2554	1191.6605	44319.75	43388.45
866.4001	1193.5888	43992.35	43056.05
866.5448	1195.5163	43825.4	42885
866.6895	1197.4432	43610.5	42662.15
866.8342	1199.3693	43315.9	42370.8
866.9789	1201.2947	43070.65	42115.3
867.1236	1203.2193	42873.65	41922.35
867.2683	1205.1432	42858.65	41910.95
867.413	1207.0664	42769.9	41828
867.5576	1208.9889	42693.55	41744.5
867.7023	1210.9106	42560.35	41614.35
867.847	1212.8316	42521.05	41574.25
867.9916	1214.7519	42484.1	41528.2
868.1363	1216.6715	42285.15	41338.35
868.2809	1218.5903	42221.75	41275.8
868.4255	1220.5084	42058.3	41112.3
868.5701	1222.4257	41916.55	40969.65
868.7148	1224.3424	41603	40658.45
868.8594	1226.2583	41579.5	40627.65
869.004	1228.1735	41566.45	40620.85
869.1486	1230.0879	41514.2	40569.1
869.2932	1232.0016	41478.45	40532.4
869.4377	1233.9146	41409.8	40461.1
869.5823	1235.8269	41156.7	40210.6
869.7269	1237.7384	40976.4	40028.35
869.8715	1239.6492	40567.8	39625.2
870.016	1241.5592	40430.9	39484.05
870.1606	1243.4686	40165.1	39218.15
870.3051	1245.3772	39996.25	39050
870.4496	1247.285	39763.15	38814.8
870.5941	1249.1922	39592.25	38648.9
870.7387	1251.0986	39517.5	38570.4
870.8832	1253.0042	39279.1	38335.7
871.0277	1254.9092	39312.7	38368.05
871.1722	1256.8134	39255.55	38312.95
871.3167	1258.7169	39384.35	38440.7
871.4611	1260.6196	39444	38501.8
871.6056	1262.5216	39548.95	38605.05
871.7501	1264.4229	39572.3	38632.55
871.8945	1266.3234	39549.75	38607.75
872.039	1268.2232	39552.25	38608.85
872.1834	1270.1223	39421	38475.45
872.3278	1272.0207	39313.65	38368.9
872.4723	1273.9183	39125.4	38176.9
872.6167	1275.8151	38964.25	38023.75
872.7611	1277.7113	38762.8	37818.55
872.9055	1279.6067	38490.55	37546.6
873.0499	1281.5014	38215.25	37269.4
873.1943	1283.3953	37980.05	37034
873.3386	1285.2885	37831.25	36891.25
873.483	1287.181	37653.95	36711.3
873.6274	1289.0727	37660.8	36720.5
873.7717	1290.9637	37531.45	36589.4
873.9161	1292.854	37669.8	36727.3
874.0604	1294.7435	37642.05	36698.35
874.2047	1296.6323	37758.45	36815.95
874.349	1298.5204	37928.95	36983.65
874.4933	1300.4077	38124.9	37181.1
874.6376	1302.2943	38207.45	37261.4
874.7819	1304.1802	38328.45	37390.05
874.9262	1306.0653	38096.8	37153
875.0705	1307.9497	37888.1	36948.45
875.2147	1309.8333	37773.65	36835.05
875.359	1311.7162	37664.6	36722.75
875.5032	1313.5984	37670.05	36725.05
875.6475	1315.4798	37724.7	36765.5
875.7917	1317.3605	37804	36845.05
875.9359	1319.2405	37938.25	36993.4
876.0801	1321.1197	37886.75	36941
876.2243	1322.9982	37742.85	36796.7
876.3685	1324.876	37724.5	36783.15
876.5127	1326.753	37579.5	36634.35
876.6569	1328.6293	37620.85	36675.8
876.801	1330.5048	37618	36675.6
876.9452	1332.3796	37444.75	36505.9
877.0893	1334.2537	37405	36439.4
877.2335	1336.127	37189.7	36248.2
877.3776	1337.9996	37090.4	36148.65
877.5217	1339.8714	36951.55	36010.7
877.6658	1341.7426	36803.35	35816.8
877.8099	1343.6129	36643.55	35698.65
877.954	1345.4826	36436.3	35493.45
878.0981	1347.3515	36431.1	35486.5
878.2422	1349.2196	36248.05	35303.55
878.3862	1351.087	36208.5	35265.15
878.5303	1352.9537	36180.1	35235.65
878.6743	1354.8197	36255.65	35314.65
878.8184	1356.6849	36421.55	35474.55
878.9624	1358.5493	36350.35	35405.3
879.1064	1360.4131	36282.6	35343.5
879.2504	1362.276	36068.7	35129.45
879.3944	1364.1383	35786.5	34843.9
879.5384	1365.9998	35475.75	34527.6
879.6823	1367.8606	35046.3	34101.8
879.8263	1369.7206	34739.05	33794.15
879.9702	1371.5799	34514.8	33570.85
880.1142	1373.4384	34276.55	33334.95
880.2581	1375.2962	34101.2	33160.9
880.402	1377.1533	33749.6	32811.05
880.5459	1379.0096	33316.5	32379.1
880.6898	1380.8652	32999	32064
880.8337	1382.7201	32704.85	31768.65
880.9776	1384.5742	32282.5	31342.95
881.1215	1386.4275	32042.75	31103.5
881.2653	1388.2802	31867.15	30926
881.4092	1390.132	31655.3	30712.7
881.553	1391.9832	31631.7	30689.3
881.6968	1393.8336	31341.95	30401.25
881.8406	1395.6832	31210.9	30271.25
881.9844	1397.5322	31088.5	30147.95
882.1282	1399.3803	30945.1	30000.5
882.272	1401.2278	30747.15	29806.7
882.4158	1403.0745	30719.85	29781.9
882.5595	1404.9204	30564.65	29628.2
882.7033	1406.7656	30498.95	29559.05
882.847	1408.6101	30434	29495.9
882.9908	1410.4538	30213.8	29271.9
883.1345	1412.2968	30212.35	29272.4
883.2782	1414.139	30133.2	29193.75
883.4219	1415.9805	30137.6	29202.1
883.5656	1417.8213	30143.3	29184.1
883.7092	1419.6613	30159.05	29223.3
883.8529	1421.5006	30293.15	29355.85
883.9965	1423.3391	30447.55	29507.75
884.1402	1425.1769	30685.2	29745.2
884.2838	1427.0139	31187.9	30248.05
884.4274	1428.8502	31748.45	30808.55
884.571	1430.6858	32219.05	31280.4
884.7146	1432.5206	32511.8	31575.25
884.8582	1434.3547	32765.2	31824.75
885.0018	1436.188	32760	31821.3
885.1453	1438.0206	32648.3	31711.65
885.2889	1439.8524	32420.8	31483.8
885.4324	1441.6835	32234.8	31298.4
885.5759	1443.5139	32043.85	31105.25
885.7194	1445.3435	31881.35	30944.55
885.8629	1447.1724	31814.3	30881.25
886.0064	1449.0005	31669.5	30733.65
886.1499	1450.8279	31533	30593.95
886.2933	1452.6545	31422	30488
886.4368	1454.4804	31443.7	30513.05
886.5802	1456.3056	31344.35	30405.65
886.7237	1458.13	31187.65	30255.05
886.8671	1459.9536	30966.15	30032.5
887.0105	1461.7766	30536.9	29603.5
887.1539	1463.5987	30027.85	29090.2
887.2972	1465.4202	29555.65	28619.9
887.4406	1467.2409	29131.45	28194.6
887.584	1469.0608	28828.35	27894.7
887.7273	1470.88	28514.9	27578.1
887.8706	1472.6984	28239.1	27304.55
888.0139	1474.5161	27913.25	26974.7
888.1572	1476.3331	27700.75	26766.5
888.3005	1478.1493	27604.2	26670.4
888.4438	1479.9648	27492.7	26557.25
888.5871	1481.7795	27269.65	26332.1
888.7303	1483.5935	27195.1	26259.75
888.8736	1485.4067	27059.55	26122.85
889.0168	1487.2192	27033.95	26095.5
889.16	1489.031	26933.75	25992.9
889.3032	1490.842	26803.05	25870.05
889.4464	1492.6522	26731.8	25797
889.5896	1494.4618	26631.95	25698.2
889.7327	1496.2705	26555	25620.9
889.8759	1498.0785	26463.05	25530.2
890.019	1499.8858	26405.5	25468.65
890.1622	1501.6924	26283.7	25349.4
890.3053	1503.4981	26262.15	25328.2
890.4484	1505.3032	26174.65	25239.2
890.5914	1507.1075	26082.4	25149.3
890.7345	1508.911	25973.15	25039.9
890.8776	1510.7138	25921.75	24986.65
891.0206	1512.5159	25795.25	24862.7
891.1637	1514.3172	25683.8	24751.7
891.3067	1516.1178	25555.2	24625.15
891.4497	1517.9176	25525.7	24591.25
891.5927	1519.7166	25381.15	24447.85
891.7357	1521.515	25327.5	24389.6
891.8786	1523.3126	25298.95	24367.35
892.0216	1525.1094	25165.9	24232.3
892.1645	1526.9055	25035.3	24106.8
892.3074	1528.7008	24956.6	24028.2
892.4503	1530.4954	24802.9	23866.45
892.5932	1532.2893	24799.5	23871.25
892.7361	1534.0824	24636.85	23706.55
892.879	1535.8747	24561.25	23634.75
893.0218	1537.6663	24484.7	23555.6
893.1647	1539.4572	24417.05	23485.65
893.3075	1541.2473	24357.05	23429.2
893.4503	1543.0367	24293.55	23370.55
893.5931	1544.8253	24178.7	23246.35
893.7359	1546.6132	24152.6	23219.15
893.8787	1548.4003	24034.05	23095.95
894.0214	1550.1867	24000.75	23064.55
894.1642	1551.9723	23940.4	23008.3
894.3069	1553.7572	23935.9	23011.45
894.4496	1555.5414	23861.1	22936.95
894.5923	1557.3247	23845.1	22923.05
894.735	1559.1074	23811.15	22890.85
894.8777	1560.8893	23774.05	22854.65
895.0204	1562.6705	23759.15	22837.95
895.163	1564.4509	23731.4	22810.9
895.3056	1566.2305	23693.1	22776.9
895.4482	1568.0094	23863.25	22948.5
895.5908	1569.7876	23903.65	22983.45
895.7334	1571.565	23893.3	22973.8
895.876	1573.3417	23925.75	23004.95
896.0186	1575.1176	23879.85	22957.4
896.1611	1576.8928	23799.85	22884.75
896.3036	1578.6672	23624.25	22712.6
896.4461	1580.4409	23479.5	22567.25
896.5886	1582.2138	23244.1	22326.5
896.7311	1583.986	23070.2	22154.6
896.8736	1585.7575	22948.75	22031.2
897.0161	1587.5282	22804.2	21890.1
897.1585	1589.2981	22708.55	21798.45
897.3009	1591.0673	22514.8	21603.25
897.4433	1592.8358	22463.85	21550.75
897.5857	1594.6035	22415.45	21497.75
897.7281	1596.3704	22313.05	21397.55
897.8705	1598.1366	22248.85	21330.95
898.0128	1599.9021	22252.7	21337.9
898.1551	1601.6668	22210.85	21292.15
898.2975	1603.4308	22184.85	21264.85
898.4398	1605.194	22222.75	21301.7
898.5821	1606.9564	22180.9	21271.3
898.7243	1608.7182	22273.45	21366.75
898.8666	1610.4791	22285.35	21385.3
899.0088	1612.2394	22358	21456.45
899.1511	1613.9988	22505.05	21600.8
899.2933	1615.7576	22693.35	21784.8
899.4355	1617.5156	22905.75	21985.4
899.5776	1619.2728	23144.45	22228
899.7198	1621.0293	23266.05	22350.6
899.862	1622.785	23259.25	22344.45
900.0041	1624.54	23130.75	22221.95
900.1462	1626.2942	22925.5	22019.85
900.2883	1628.0477	22591.15	21681.2
900.4304	1629.8005	22327.15	21413.05
900.5725	1631.5525	22032.25	21123.8
900.7145	1633.3037	21760.95	20851.9
900.8566	1635.0542	21557.85	20649.8
900.9986	1636.804	21351.4	20438.6
901.1406	1638.553	21253.9	20299.35
901.2826	1640.3013	21094.55	20186.65
901.4245	1642.0488	20952.05	20042.8
901.5665	1643.7955	20933.55	20027.05
901.7085	1645.5416	20873.4	19965.25
901.8504	1647.2868	20878.15	19970.95
901.9923	1649.0313	20857.75	19948.25
902.1342	1650.7751	20992.4	20080.2
902.2761	1652.5181	21090.65	20186.6
902.4179	1654.2604	21267.1	20361.3
902.5598	1656.0019	21518.55	20611.65
902.7016	1657.7427	21864.4	20956.4
902.8434	1659.4828	22182.55	21271
902.9852	1661.222	22396.15	21485.8
903.127	1662.9606	22402.95	21495.95
903.2687	1664.6984	22254.8	21342.65
903.4105	1666.4354	21916.8	21003.4
903.5522	1668.1717	21395.35	20482.3
903.6939	1669.9072	20886.9	19975.15
903.8356	1671.642	20447.6	19534.3
903.9773	1673.3761	20167.9	19256.85
904.119	1675.1094	19854	18945.25
904.2606	1676.8419	19608.1	18699.25
904.4022	1678.5737	19432.8	18523.85
904.5439	1680.3048	19266.8	18355.85
904.6855	1682.0351	19121.05	18213.5
904.827	1683.7646	18973.8	18060.2
904.9686	1685.4934	18891.95	17983.15
905.1101	1687.2215	18809.85	17900.4
905.2517	1688.9488	18688.7	17780
905.3932	1690.6754	18604.3	17697.2
905.5347	1692.4012	18575.4	17667.05
905.6761	1694.1263	18469.15	17558.15
905.8176	1695.8506	18400.15	17493.1
905.9591	1697.5742	18327.1	17422.55
906.1005	1699.297	18216.05	17312.9
906.2419	1701.0191	18123.2	17224.45
906.3833	1702.7404	18076.55	17173.25
906.5246	1704.461	17948.2	17041.8
906.666	1706.1808	17885.75	16978.75
906.8073	1707.8999	17831.8	16928.2
906.9487	1709.6182	17767.15	16868.15
907.09	1711.3358	17732.75	16832.3
907.2313	1713.0527	17655.7	16758.9
907.3725	1714.7688	17596.2	16689.55
907.5138	1716.4841	17493.35	16586.4
907.655	1718.1987	17465.2	16556.45
907.7962	1719.9126	17382.65	16481.75
907.9374	1721.6257	17347.15	16443.1
908.0786	1723.338	17295.65	16395.9
908.2198	1725.0496	17211.4	16308
908.3609	1726.7605	17172.7	16271.15
908.502	1728.4706	17088.6	16186.4
908.6431	1730.18	16997.5	16097.55
908.7842	1731.8886	16930.15	16034.55
908.9253	1733.5964	16917.2	15994.6
909.0664	1735.3036	16831.85	15929.2
909.2074	1737.0099	16810.9	15910.2
909.3484	1738.7156	16761.5	15863.2
909.4894	1740.4204	16682.2	15780.7
909.6304	1742.1246	16673.95	15772.5
909.7714	1743.8279	16632.85	15733.25
909.9123	1745.5306	16574.6	15676.4
910.0532	1747.2325	16518	15620.7
910.1941	1748.9336	16465.2	15566
910.335	1750.634	16414.05	15512.65
910.4759	1752.3336	16397.8	15499.75
910.6168	1754.0325	16357.85	15462.35
910.7576	1755.7307	16299.05	15404.6
910.8984	1757.4281	16311.55	15414.35
911.0392	1759.1247	16286.8	15375.95
911.18	1760.8206	16234.9	15328.1
911.3208	1762.5158	16164.1	15256.55
911.4615	1764.2102	16109.25	15211.3
911.6022	1765.9039	16022.7	15124.5
911.7429	1767.5968	16003.15	15106.1
911.8836	1769.289	15937.45	15041.05
912.0243	1770.9804	15905.85	15005.35
912.1649	1772.6711	15887.15	14982.45
912.3056	1774.361	15836.05	14933.6
912.4462	1776.0502	15829.75	14930.05
912.5868	1777.7386	15777.1	14874.55
912.7274	1779.4263	15728.65	14833.6
912.8679	1781.1132	15698.15	14802.5
913.0084	1782.7994	15626.25	14729.95
913.149	1784.4849	15570.95	14676.1
913.2895	1786.1696	15531.85	14616.3
913.4299	1787.8535	15477.4	14580.95
913.5704	1789.5367	15442.15	14548.45
913.7108	1791.2192	15428.45	14533.8
913.8513	1792.9009	15398.45	14475.35
913.9917	1794.5818	15338.2	14438.35
914.132	1796.2621	15298.45	14400.8
914.2724	1797.9415	15251.2	14353.3
914.4128	1799.6202	15206.85	14309.05
914.5531	1801.2982	15213.3	14314.6
914.6934	1802.9755	15159.65	14257.95
914.8337	1804.6519	15158.75	14261.45
914.9739	1806.3277	15046.6	14149.4
915.1142	1808.0027	15009.1	14116.65
915.2544	1809.6769	14993.95	14098.7
915.3946	1811.3504	14948.7	14056.1
915.5348	1813.0231	14924.45	14033.35
915.675	1814.6951	14856.4	13961.25
915.8151	1816.3664	14844.15	13944.5
915.9553	1818.0369	14813.8	13914.75
916.0954	1819.7067	14754.45	13854.6
916.2355	1821.3757	14710.75	13812.3
916.3755	1823.044	14704.85	13806.3
916.5156	1824.7115	14693.35	13795.45
916.6556	1826.3783	14592.05	13694.85
916.7956	1828.0443	14540.4	13644.7
916.9356	1829.7096	14547.5	13651.2
917.0756	1831.3741	14494.6	13595.4
917.2155	1833.0379	14445.45	13550.15
917.3555	1834.701	14412.6	13518.1
917.4954	1836.3633	14413.85	13518.95
917.6353	1838.0248	14322.95	13426.55
917.7751	1839.6856	14307.7	13411.65
917.915	1841.3457	14308.1	13410.6
918.0548	1843.005	14262	13368.75
918.1946	1844.6636	14253.55	13356.9
918.3344	1846.3214	14189.7	13293.3
918.4742	1847.9785	14197.35	13302.65
918.6139	1849.6349	14159.4	13260.15
918.7537	1851.2904	14116	13209.3
918.8934	1852.9453	14086.55	13188.6
919.0331	1854.5994	14038.15	13136.1
919.1727	1856.2528	14040.45	13137.1
919.3124	1857.9054	13997.9	13101.85
919.452	1859.5572	13968.5	13072.55
919.5916	1861.2083	13953.6	13056.3
919.7312	1862.8587	13952.7	13054.5
919.8708	1864.5084	13897.95	12996
920.0103	1866.1572	13829.35	12930.3
920.1498	1867.8054	13782.65	12882.35
920.2893	1869.4528	13788.45	12887.1
920.4288	1871.0994	13742.85	12844.85
920.5683	1872.7453	13674.7	12775.7
920.7077	1874.3905	13661.95	12747.5
920.8471	1876.0349	13591.75	12694.85
920.9865	1877.6786	13610.75	12712.3
921.1259	1879.3215	13578.85	12681.45
921.2653	1880.9637	13551	12654.3
921.4046	1882.6051	13534.3	12638.35
921.5439	1884.2458	13475.55	12576.9
921.6832	1885.8858	13432.2	12535.7
921.8225	1887.525	13401.05	12505
921.9617	1889.1634	13327.4	12428.8
922.101	1890.8011	13267.4	12368.1
922.2402	1892.4381	13286.65	12389.6
922.3794	1894.0743	13265.65	12370.95
922.5185	1895.7098	13226.4	12331.5
922.6577	1897.3446	13201	12303.3
922.7968	1898.9786	13137.4	12237.6
922.9359	1900.6118	13140.15	12245.1
923.075	1902.2443	13046.75	12146.95
923.214	1903.8761	13003.9	12105.4
923.3531	1905.5071	12952.6	12056.55
923.4921	1907.1374	12922.45	12027.8
923.6311	1908.7669	12901.75	12005.5
923.77	1910.3957	12864.45	11969.5
923.909	1912.0237	12789.25	11893.35
924.0479	1913.651	12781.75	11885.15
924.1868	1915.2776	12733.5	11839.45
924.3257	1916.9034	12692.6	11801.15
924.4646	1918.5285	12632.7	11738.9
924.6034	1920.1528	12589.8	11694.25
924.7422	1921.7764	12563.95	11668.3
924.881	1923.3992	12528.3	11630.75
925.0198	1925.0213	12432.8	11537.95
925.1586	1926.6427	12393.9	11499.65
925.2973	1928.2633	12447.55	11484.75
925.436	1929.8832	12333.6	11436.45
925.5747	1931.5023	12257.85	11361.4
925.7134	1933.1207	12261.75	11366.55
925.852	1934.7383	12221.15	11326.9
925.9906	1936.3552	12188.2	11293
926.1292	1937.9714	12154.35	11258.85
926.2678	1939.5868	12112.65	11215.45
926.4064	1941.2015	12055.5	11159.2
926.5449	1942.8154	12012.7	11116.45
926.6834	1944.4286	11922.7	11026.05
926.8219	1946.041	11899.75	10980.35
926.9604	1947.6528	11842.5	10940.85
927.0988	1949.2637	11790	10896.3
927.2372	1950.8739	11797.5	10903.25
927.3756	1952.4834	11768.25	10872.3
927.514	1954.0921	11723.55	10830.55
927.6523	1955.7001	11655.5	10758.05
927.7907	1957.3074	11628.4	10736.6
927.929	1958.9139	11577.25	10686.35
928.0673	1960.5197	11580.2	10688.4
928.2055	1962.1247	11517.85	10624.55
928.3438	1963.729	11457.95	10566.35
928.482	1965.3325	11466.05	10549.75
928.6202	1966.9353	11411.85	10521.5
928.7584	1968.5374	11361.05	10468.75
928.8965	1970.1387	11304.05	10413.15
929.0346	1971.7393	11285.65	10393.05
929.1727	1973.3392	11231.9	10341.95
929.3108	1974.9383	11192.15	10301.65
929.4489	1976.5366	11128	10238.05
929.5869	1978.1342	11136.45	10247.65
929.7249	1979.7311	11117	10225.6
929.8629	1981.3273	11053.1	10164.15
930.0009	1982.9227	11032.1	10143.85
930.1388	1984.5173	10992.6	10105.95
930.2767	1986.1112	10934.85	10046.4
930.4146	1987.7044	10911.65	10022.45
930.5525	1989.2968	10894.85	10003.1
930.6904	1990.8885	10866.45	9975.05
930.8282	1992.4795	10842.95	9954.85
930.966	1994.0697	10789	9900.7
931.1038	1995.6592	10780.75	9892.45
931.2415	1997.2479	10720.6	9831.1
931.3793	1998.8359	10684.85	9798.6
931.517	2000.4232	10631.3	9746.05
931.6547	2002.0097	10623.7	9740.85
931.7923	2003.5955	10559.05	9672.95
931.93	2005.1805	10564.8	9676.9
932.0676	2006.7648	10532.95	9647.85
932.2052	2008.3484	10521.55	9636.3
932.3427	2009.9312	10494	9609.1
932.4803	2011.5133	10450.7	9567.9
932.6178	2013.0946	10418.1	9532.3
932.7553	2014.6752	10399.2	9515.3
932.8928	2016.2551	10379	9491.45
933.0302	2017.8342	10334.1	9447.5
933.1676	2019.4126	10303.7	9415.9
933.305	2020.9902	10255.6	9371.05
933.4424	2022.5672	10221.55	9335.8
933.5798	2024.1433	10205.7	9313.5
933.7171	2025.7188	10156.25	9273.95
933.8544	2027.2935	10109.55	9223.35
933.9917	2028.8674	10064.85	9181.45
934.129	2030.4406	10069.55	9187.4
934.2662	2032.0131	10008.9	9126.9
934.4034	2033.5849	9991.65	9103.75
934.5406	2035.1559	9966.35	9082.75
934.6778	2036.7261	9988.7	9105.4
934.8149	2038.2957	9933.4	9045.6
934.952	2039.8645	9905.15	9015.65
935.0891	2041.4325	9909.05	9018.45
935.2262	2042.9998	9856.1	8971.35
935.3632	2044.5664	9806.95	8920.6
935.5002	2046.1323	9797.05	8912.8
935.6372	2047.6974	9756.4	8873.85
935.7742	2049.2617	9742.9	8859.85
935.9111	2050.8254	9740.25	8850.05
936.048	2052.3883	9731.35	8842.8
936.1849	2053.9504	9664.5	8776.9
936.3218	2055.5118	9637.3	8750.1
936.4586	2057.0725	9604.05	8715.65
936.5955	2058.6325	9604.25	8720.05
936.7323	2060.1917	9558.45	8674.8
936.869	2061.7502	9542.25	8656.65
937.0058	2063.3079	9479.3	8595.85
937.1425	2064.8649	9457.3	8570.25
937.2792	2066.4212	9438.8	8552.5
937.4159	2067.9767	9407.1	8522.25
937.5525	2069.5315	9370.35	8483.95
937.6891	2071.0856	9365.25	8479.8
937.8257	2072.6389	9304.8	8417.9
937.9623	2074.1915	9259.65	8378.8
938.0989	2075.7433	9212.8	8323.65
938.2354	2077.2945	9199.1	8314.25
938.3719	2078.8448	9176.9	8289.8
938.5084	2080.3945	9126.95	8238.15
938.6448	2081.9434	9138.5	8251.6
938.7812	2083.4916	9122.65	8232
938.9176	2085.039	9075.1	8182.6
939.054	2086.5857	9049.5	8157.65
939.1903	2088.1317	9027.8	8133.35
939.3267	2089.677	9009.45	8116.75
939.463	2091.2215	8971.25	8079.2
939.5992	2092.7652	8953.65	8059.6
939.7355	2094.3083	8956.7	8064.65
939.8717	2095.8506	8931.8	8042.85
940.0079	2097.3921	8912.6	8024.2
940.1441	2098.933	8878.6	7988.3
940.2802	2100.4731	8851.65	7962.25
940.4163	2102.0124	8850.55	7955.65
940.5524	2103.5511	8811.6	7921.65
940.6885	2105.089	8790.5	7901
940.8245	2106.6261	8780.2	7888.95
940.9606	2108.1626	8747	7858.4
941.0965	2109.6983	8746.2	7827.9
941.2325	2111.2332	8694.1	7803.2
941.3684	2112.7675	8659	7768.1
941.5044	2114.301	8646.45	7754.4
941.6403	2115.8337	8654.7	7765.2
941.7761	2117.3657	8620.6	7732.25
941.912	2118.897	8600.15	7708.5
942.0478	2120.4276	8584.6	7689.8
942.1835	2121.9575	8523	7630.55
942.3193	2123.4866	8537.65	7644.15
942.455	2125.0149	8512.65	7621.4
942.5907	2126.5426	8458	7571.4
942.7264	2128.0695	8445.45	7556.4
942.8621	2129.5956	8433.1	7547.95
942.9977	2131.1211	8419.5	7525.7
943.1333	2132.6458	8394.6	7506.8
943.2689	2134.1698	8371.9	7481.15
943.4044	2135.693	8359.5	7466
943.54	2137.2155	8329.85	7434.2
943.6755	2138.7373	8297.75	7409.55
943.8109	2140.2584	8267.25	7381.25
943.9464	2141.7787	8238.55	7347.3
944.0818	2143.2983	8203	7318.7
944.2172	2144.8171	8182.9	7300.2
944.3526	2146.3353	8148.7	7260.6
944.4879	2147.8527	8138.75	7253
944.6232	2149.3693	8149.5	7257.95
944.7585	2150.8853	8101.3	7211.3
944.8938	2152.4005	8069.5	7177.3
945.029	2153.9149	8035.8	7144.45
945.1642	2155.4287	8105.05	7106.85
945.2994	2156.9417	8047.5	7155.3
945.4346	2158.454	8003.85	7114.25
945.5697	2159.9655	7960.2	7071.85
945.7048	2161.4764	7961.3	7072.15
945.8399	2162.9865	7939.35	7052.3
945.9749	2164.4958	7889.2	7000.1
946.1099	2166.0045	7875.85	6985.25
946.2449	2167.5124	7842.3	6953.3
946.3799	2169.0195	7842.6	6951.25
946.5148	2170.526	7838.55	6949.9
946.6498	2172.0317	7809.5	6920.4
946.7846	2173.5367	7781.75	6892.4
946.9195	2175.0409	7757.1	6869.55
947.0543	2176.5445	7762.05	6872.15
947.1891	2178.0473	7721.05	6830.8
947.3239	2179.5494	7682.2	6787.45
947.4587	2181.0507	7661.3	6772.85
947.5934	2182.5513	7639.65	6752.1
947.7281	2184.0512	7635.55	6744.5
947.8628	2185.5504	7595.4	6705.15
947.9974	2187.0488	7556.7	6667.85
948.132	2188.5465	7537.4	6650.2
948.2666	2190.0435	7513.7	6623.95
948.4012	2191.5397	7487.95	6597.15
948.5357	2193.0353	7489.15	6599.25
948.6702	2194.5301	7427.3	6533.9
948.8047	2196.0241	7431.4	6537.35
948.9392	2197.5175	7386.05	6492.5
949.0736	2199.0101	7368.6	6472.4
949.208	2200.502	7331.2	6441.8
949.3424	2201.9931	7302.15	6413.25
949.4767	2203.4835	7257.65	6368.2
949.611	2204.9733	7272.4	6370.9
949.7453	2206.4622	7251.25	6364.55
949.8796	2207.9505	7241.1	6354.45
950.0138	2209.438	7187.75	6304.95
950.148	2210.9248	7152.35	6265.05
950.2822	2212.4109	7176.1	6286.85
950.4164	2213.8962	7140.9	6244.6
950.5505	2215.3809	7115.35	6220.45
950.6846	2216.8648	7107.1	6213.4
950.8186	2218.3479	7070.65	6172.65
950.9527	2219.8304	7060.8	6163
951.0867	2221.3121	7054.35	6156.55
951.2207	2222.7931	7007.75	6113.15
951.3546	2224.2733	6988.5	6098.05
951.4886	2225.7529	6948.35	6057.95
951.6225	2227.2317	6938.85	6048.1
951.7563	2228.7098	6911.7	6026.4
951.8902	2230.1872	6867.75	5980.45
952.024	2231.6638	6868.25	5980.85
952.1578	2233.1397	6860.85	5970
952.2916	2234.6149	6829	5940.75
952.4253	2236.0894	6828.25	5939.1
952.559	2237.5632	6813.25	5922.55
952.6927	2239.0362	6760.55	5871.15
952.8263	2240.5085	6754.75	5865.65
952.9599	2241.9801	6728.95	5837.35
953.0935	2243.4509	6717.45	5826.65
953.2271	2244.921	6679.25	5787.4
953.3606	2246.3904	6666.55	5771
953.4941	2247.8591	6642.4	5751.6
953.6276	2249.3271	6626.25	5733.5
953.7611	2250.7943	6580.4	5688.7
953.8945	2252.2608	6576.8	5686.2
954.0279	2253.7266	6554.5	5662.55
954.1612	2255.1917	6546.5	5656.4
954.2946	2256.656	6511.3	5622.3
954.4279	2258.1197	6495.3	5608.7
954.5612	2259.5826	6471.8	5581.8
954.6944	2261.0447	6467.15	5576.5
954.8276	2262.5062	6441.3	5548.05
954.9608	2263.9669	6454.25	5561.55
955.094	2265.4269	6413.05	5523.1
955.2271	2266.8862	6410.65	5519.1
955.3602	2268.3448	6404.1	5515.2
955.4933	2269.8026	6375	5485.15
955.6264	2271.2598	6344.8	5456.3
955.7594	2272.7162	6338.2	5450.5
955.8924	2274.1719	6333.75	5443.9
956.0253	2275.6268	6293.2	5399.65
956.1583	2277.0811	6294.9	5400.9
956.2912	2278.5346	6262.4	5371.85
956.4241	2279.9874	6273	5385.05
956.5569	2281.4395	6250.1	5363.5
956.6897	2282.8908	6220.5	5328.2
956.8225	2284.3414	6210.4	5316.6
956.9553	2285.7914	6210.45	5321.7
957.088	2287.2406	6163.95	5270.4
957.2207	2288.689	6169.25	5277.55
957.3534	2290.1368	6159.05	5261.7
957.486	2291.5838	6144.4	5244.95
957.6186	2293.0302	6130.2	5232.9
957.7512	2294.4758	6111	5217.3
957.8838	2295.9206	6073.85	5182.5
958.0163	2297.3648	6063.65	5175.8
958.1488	2298.8082	6045.15	5155.55
958.2813	2300.251	6028.85	5138.45
958.4137	2301.693	6009.9	5114.1
958.5461	2303.1343	6007.4	5114.55
958.6785	2304.5748	5969.1	5077.25
958.8108	2306.0147	5944	5054.35
958.9432	2307.4538	5912.75	5022.7
959.0754	2308.8922	5915.4	5028.25
959.2077	2310.3299	5899.75	5012.6
959.3399	2311.7669	5872	4984.75
959.4721	2313.2031	5861.05	4970.5
959.6043	2314.6387	5834.55	4941.8
959.7365	2316.0735	5822.65	4931.25
959.8686	2317.5076	5824.75	4932
960.0006	2318.941	5792.95	4901.95
960.1327	2320.3737	5761.35	4867.45
960.2647	2321.8056	5764.7	4871.3
960.3967	2323.2369	5755.4	4861.85
960.5287	2324.6674	5741.1	4848.65
960.6606	2326.0972	5719.7	4827.8
960.7925	2327.5263	5687.25	4795.7
960.9244	2328.9547	5681.2	4789.5
961.0562	2330.3823	5667.15	4773.3
961.1881	2331.8092	5662.85	4763.8
961.3198	2333.2355	5648.4	4755.5
961.4516	2334.661	5622.9	4727.4
961.5833	2336.0858	5623.35	4727.95
961.715	2337.5098	5607.1	4715.7
961.8467	2338.9332	5586.35	4693.65
961.9783	2340.3558	5560.75	4668.05
962.1099	2341.7778	5543.6	4653.6
962.2415	2343.199	5536.7	4643.9
962.373	2344.6195	5522.85	4634.5
962.5045	2346.0393	5497.15	4608.9
962.636	2347.4583	5490.45	4598.9
962.7675	2348.8767	5475.9	4582.95
962.8989	2350.2943	5446.65	4554.65
963.0303	2351.7113	5457.45	4562.45
963.1617	2353.1275	5440.95	4547.8
963.293	2354.543	5423.45	4522.95
963.4243	2355.9578	5400.45	4506.3
963.5556	2357.3718	5356.3	4465.25
963.6868	2358.7852	5345.25	4454.6
963.818	2360.1978	5341.5	4452.35
963.9492	2361.6098	5327.05	4437.6
964.0803	2363.021	5312.2	4417.5
964.2114	2364.4315	5292.25	4401.2
964.3425	2365.8413	5283.6	4392.3
964.4736	2367.2504	5254.75	4367.1
964.6046	2368.6587	5232.65	4343.65
964.7356	2370.0664	5207.05	4318.7
964.8666	2371.4733	5200.8	4308.05
964.9975	2372.8795	5194.4	4303.65
965.1284	2374.285	5156.35	4265.05
965.2593	2375.6899	5126.95	4236.6
965.3901	2377.0939	5112.1	4222.45
965.5209	2378.4973	5105.8	4216.15
965.6517	2379.9	5096.05	4207.6
965.7825	2381.3019	5072.35	4182
965.9132	2382.7032	5073.3	4183.45
966.0439	2384.1037	5070.55	4184.4
966.1745	2385.5035	5033.95	4147.2
966.3051	2386.9027	5024.3	4139.3
966.4357	2388.3011	5002.75	4113.45
966.5663	2389.6987	5013.1	4125.1
966.6968	2391.0957	4969.55	4081.5
966.8273	2392.492	4949.35	4060.7
966.9578	2393.8876	4926.75	4038.8
967.0882	2395.2824	4900.5	4012.45
967.2186	2396.6765	4896.6	4007.45
967.349	2398.07	4868.85	3979.1
967.4793	2399.4627	4875.45	3982.55
967.6097	2400.8547	4878.55	3988.05
967.7399	2402.246	4867.2	3971.6
967.8702	2403.6366	4829.7	3940.65
968.0004	2405.0265	4813.05	3926.55
968.1306	2406.4156	4787.9	3894.6
968.2607	2407.8041	4774.75	3882.55
968.3909	2409.1918	4772.7	3880.6
968.521	2410.5789	4745.45	3854.75
968.651	2411.9652	4745.95	3853.3
968.781	2413.3508	4716.15	3825.85
968.911	2414.7358	4710.75	3821.1
969.041	2416.12	4654	3765.4
969.1709	2417.5035	4665.55	3776.1
969.3008	2418.8863	4659.75	3770.35
969.4307	2420.2684	4643.35	3751.9
969.5606	2421.6497	4625.4	3734.8
969.6904	2423.0304	4595.5	3706.65
969.8201	2424.4104	4584.05	3691.95
969.9499	2425.7896	4584.25	3693.25
970.0796	2427.1682	4563.1	3671.5
970.2093	2428.546	4567.35	3677.75
970.3389	2429.9232	4559.6	3668.85
970.4685	2431.2996	4533.05	3642.25
970.5981	2432.6753	4523.4	3634.6
970.7277	2434.0503	4497.7	3608.2
970.8572	2435.4246	4492.45	3601.3
970.9867	2436.7982	4485.9	3591.65
971.1161	2438.1711	4463	3570.95
971.2456	2439.5433	4454.55	3563.05
971.375	2440.9148	4436.8	3538.75
971.5043	2442.2856	4409.9	3520.6
971.6336	2443.6557	4427.35	3536.45
971.7629	2445.025	4392	3501.85
971.8922	2446.3937	4396.3	3505.9
972.0214	2447.7617	4373.95	3482.8
972.1506	2449.1289	4368.75	3478.4
972.2798	2450.4955	4353.8	3459.45
972.4089	2451.8613	4353.75	3464.35
972.538	2453.2265	4335.8	3446.05
972.6671	2454.5909	4333.15	3443.65
972.7961	2455.9546	4336.55	3447.9
972.9251	2457.3177	4312.15	3423.95
973.0541	2458.68	4286.4	3394.1
973.1831	2460.0416	4279.85	3390.65
973.312	2461.4025	4280.15	3387.5
973.4408	2462.7627	4274.65	3372.45
973.5697	2464.1222	4263.15	3376.2
973.6985	2465.4811	4228.4	3339.7
973.8273	2466.8392	4243.6	3354.15
973.956	2468.1966	4231.65	3338.9
974.0847	2469.5533	4223.5	3329.5
974.2134	2470.9093	4220.35	3332.25
974.3421	2472.2645	4186.3	3295.75
974.4707	2473.6191	4185.45	3295.75
974.5993	2474.973	4170.45	3281.1
974.7278	2476.3262	4160.25	3269.05
974.8563	2477.6787	4145.3	3257.75
974.9848	2479.0305	4124.9	3234.9
975.1132	2480.3816	4111.2	3218.65
975.2417	2481.7319	4113.7	3225
975.37	2483.0816	4089.1	3199.45
975.4984	2484.4306	4085.1	3195.9
975.6267	2485.7789	4073.65	3186.5
975.755	2487.1264	4055.6	3165.65
975.8833	2488.4733	4019.5	3132.45
976.0115	2489.8195	4038.95	3132.75
976.1397	2491.165	4014.35	3123
976.2678	2492.5097	4013.35	3123.3
976.3959	2493.8538	3997.4	3108.7
976.524	2495.1972	3969.5	3080.5
976.6521	2496.5398	3967.8	3076.9
976.7801	2497.8818	3958.95	3065.25
976.9081	2499.2231	3946.7	3056.55
977.036	2500.5637	3931.9	3038.45
977.164	2501.9035	3916.35	3025.3
977.2918	2503.2427	3903.05	3008.65
977.4197	2504.5812	3897.15	3006.85
977.5475	2505.919	3900.2	3008.5
977.6753	2507.256	3883.05	2991.3
977.8031	2508.5924	3861.3	2971.05
977.9308	2509.9281	3870.45	2976
978.0585	2511.2631	3837.2	2948.3
978.1861	2512.5974	3838.75	2950.45
978.3137	2513.9309	3825.75	2933.2
978.4413	2515.2638	3825.65	2909.35
978.5689	2516.596	3809.4	2918
978.6964	2517.9275	3790.2	2899.6
978.8239	2519.2583	3783.35	2892.65
978.9513	2520.5884	3762.4	2872.65
979.0788	2521.9178	3741.6	2852.8
979.2062	2523.2465	3748.9	2860.25
979.3335	2524.5745	3728.45	2838.35
979.4608	2525.9018	3721.45	2832.75
979.5881	2527.2284	3718.05	2828.3
979.7154	2528.5543	3712.25	2823.4
979.8426	2529.8796	3703.35	2814.15
979.9698	2531.2041	3690.9	2799.75
980.0969	2532.5279	3686.85	2798.25
980.224	2533.851	3692.25	2801.75
980.3511	2535.1735	3685.5	2797.05
980.4781	2536.4952	3675.95	2785.75
980.6052	2537.8163	3641.3	2750
980.7321	2539.1366	3632	2740.15
980.8591	2540.4562	3632.65	2740.65
980.986	2541.7752	3627.05	2737.4
981.1129	2543.0935	3621.3	2731.9
981.2397	2544.411	3624.4	2731.35
981.3665	2545.7279	3607.2	2717.35
981.4933	2547.0441	3603.2	2710.65
981.62	2548.3596	3595.45	2700.65
981.7467	2549.6744	3583.3	2692.65
981.8734	2550.9885	3568.95	2676.2
982.0001	2552.3019	3563.15	2673.65
982.1267	2553.6146	3541.15	2651.25
982.2532	2554.9266	3544.25	2652.15
982.3798	2556.2379	3532.45	2640.5
982.5063	2557.5485	3541.9	2654.4
982.6327	2558.8585	3534.75	2635.7
982.7592	2560.1677	3526.55	2633.05
982.8856	2561.4762	3520.25	2628.05
983.0119	2562.7841	3508.65	2613.55
983.1383	2564.0913	3491.1	2601.1
983.2646	2565.3977	3490.9	2601.05
983.3908	2566.7035	3477.95	2586.4
983.517	2568.0086	3488.85	2597.7
983.6432	2569.313	3486.15	2593
983.7694	2570.6167	3459.35	2563.4
983.8955	2571.9197	3459	2567.65
984.0216	2573.222	3466.4	2570.55
984.1476	2574.5236	3445.3	2552.2
984.2737	2575.8246	3449.75	2558.35
984.3996	2577.1248	3424	2529.65
984.5256	2578.4244	3440.05	2550.65
984.6515	2579.7232	3419.75	2529.9
984.7774	2581.0214	3449.75	2529.7
984.9032	2582.3189	3412.3	2522.1
985.029	2583.6157	3426.05	2530.75
985.1548	2584.9118	3412.05	2522.1
985.2806	2586.2072	3392.65	2501.7
985.4063	2587.5019	3390.8	2497.9
985.5319	2588.7959	3382.9	2493.6
985.6576	2590.0893	3367.15	2474.15
985.7832	2591.3819	3381.2	2491.3
985.9087	2592.6739	3361.3	2471.35
986.0343	2593.9652	3356.7	2464.45
986.1597	2595.2557	3351.6	2460.1
986.2852	2596.5456	3352.25	2459.65
986.4106	2597.8348	3344.25	2451.75
986.536	2599.1234	3325.45	2433.25
986.6614	2600.4112	3324.4	2433.6
986.7867	2601.6983	3312.4	2419.7
986.912	2602.9848	3289.75	2398.3
987.0372	2604.2705	3290.95	2391.7
987.1624	2605.5556	3289.2	2397.9
987.2876	2606.84	3274.6	2386.15
987.4128	2608.1237	3267.3	2375.55
987.5379	2609.4067	3258.1	2365.7
987.6629	2610.689	3260.35	2359.95
987.788	2611.9707	3247.4	2353.2
987.913	2613.2516	3239.1	2342.9
988.0379	2614.5319	3226.65	2336.25
988.1629	2615.8115	3207.05	2315.05
988.2878	2617.0903	3212.4	2320.55
988.4126	2618.3685	3190.15	2299.9
988.5375	2619.6461	3191.45	2296.85
988.6622	2620.9229	3171.55	2279.85
988.787	2622.199	3176.3	2285.75
988.9117	2623.4745	3173.7	2279.85
989.0364	2624.7493	3156.6	2265.25
989.161	2626.0234	3143.8	2252.05
989.2857	2627.2968	3153.3	2264.2
989.4102	2628.5695	3151.65	2261.3
989.5348	2629.8415	3130.55	2240.45
989.6593	2631.1128	3115.25	2223.3
989.7837	2632.3835	3108.15	2216.45
989.9082	2633.6535	3109.55	2220
990.0326	2634.9228	3096.4	2206.75
990.1569	2636.1914	3092.7	2204.15
990.2812	2637.4593	3103.6	2206.25
990.4055	2638.7265	3076.85	2185.25
990.5298	2639.9931	3063.25	2172.2
990.654	2641.259	3052.2	2160.35
990.7782	2642.5242	3049.05	2158
990.9023	2643.7887	3048.15	2158.05
991.0264	2645.0525	3047.55	2157.2
991.1505	2646.3156	3046.25	2141.45
991.2745	2647.5781	3028.35	2138.85
991.3985	2648.8398	3000.6	2110.85
991.5225	2650.1009	3030.25	2115.15
991.6464	2651.3613	2997.7	2104.5
991.7703	2652.6211	2990.8	2098.2
991.8942	2653.8801	2983.2	2094.2
992.018	2655.1385	2980.75	2087.9
992.1418	2656.3961	2979.25	2089.95
992.2655	2657.6531	2969.15	2079.6
992.3892	2658.9094	2967.15	2078.45
992.5129	2660.1651	2962.5	2073.2
992.6366	2661.42	2963.5	2071.15
992.7602	2662.6743	2955.45	2064.7
992.8837	2663.9279	2949.8	2059.25
993.0073	2665.1808	2938.8	2048.25
993.1307	2666.433	2941.5	2049.85
993.2542	2667.6846	2929.95	2040.05
993.3776	2668.9354	2925.95	2034.65
993.501	2670.1856	2928.2	2036.85
993.6244	2671.4351	2914.25	2021.65
993.7477	2672.6839	2923.1	2032.9
993.8709	2673.9321	2903.75	2013.8
993.9942	2675.1795	2915.65	2026.55
994.1174	2676.4263	2909.7	2020.65
994.2405	2677.6724	2902.95	2014.8
994.3637	2678.9179	2901.5	2009.9
994.4868	2680.1626	2887.4	1998.1
994.6098	2681.4067	2887.9	1998.35
994.7328	2682.6501	2890.55	2000.35
994.8558	2683.8928	2875.9	1987.45
994.9788	2685.1348	2869.4	1980.6
995.1017	2686.3761	2856.95	1968.25
995.2245	2687.6168	2843.15	1954.8
995.3474	2688.8568	2844.65	1954
995.4702	2690.0961	2833.55	1943.7
995.5929	2691.3348	2825.65	1934.65
995.7156	2692.5727	2818.45	1928.5
995.8383	2693.81	2811.7	1923.1
995.961	2695.0466	2801.15	1912.75
996.0836	2696.2826	2798.9	1907.8
996.2062	2697.5178	2802.05	1910.35
996.3287	2698.7524	2769.15	1879.95
996.4512	2699.9863	2779.15	1889.45
996.5737	2701.2195	2763.65	1875.15
996.6961	2702.452	2783.9	1894.25
996.8185	2703.6839	2772.25	1882
996.9408	2704.9151	2766.2	1877.6
997.0631	2706.1456	2770.55	1880.6
997.1854	2707.3755	2766.7	1876.45
997.3077	2708.6046	2767.3	1875.45
997.4299	2709.8331	2770.15	1882.25
997.552	2711.0609	2772.9	1884.5
997.6742	2712.2881	2781.75	1892.5
997.7963	2713.5145	2787	1896.95
997.9183	2714.7403	2786.35	1897.4
998.0403	2715.9654	2797.75	1908.65
998.1623	2717.1899	2807.4	1904
998.2842	2718.4136	2801.35	1912.4
998.4062	2719.6367	2808.5	1920.35
998.528	2720.8591	2808.9	1913.05
998.6498	2722.0809	2821.8	1933.9
998.7716	2723.3019	2821	1927.55
998.8934	2724.5223	2809.6	1919.55
999.0151	2725.7421	2819.2	1927.25
999.1368	2726.9611	2813.35	1922.05
999.2584	2728.1795	2811.15	1918.8
999.38	2729.3972	2795.35	1910.05
999.5016	2730.6142	2776.35	1880.45
999.6231	2731.8306	2753.55	1864.5
999.7446	2733.0462	2736.2	1845.15
999.8661	2734.2612	2715.7	1821.65
999.9875	2735.4756	2699.25	1807.1
1000.1089	2736.6892	2671.3	1781.95
1000.2302	2737.9022	2647.7	1760.1
1000.3515	2739.1145	2642.35	1751.8
1000.4728	2740.3262	2618.95	1723.5
1000.594	2741.5372	2598.75	1710.7
1000.7152	2742.7475	2580.2	1691.65
1000.8363	2743.9571	2573.65	1684.5
1000.9575	2745.1661	2570.05	1676.3
1001.0785	2746.3744	2544.35	1654.9
1001.1996	2747.582	2533.85	1643.95
1001.3206	2748.7889	2520.45	1630.85
1001.4415	2749.9952	2510.55	1622.7
1001.5625	2751.2008	2509.55	1620.45
1001.6833	2752.4057	2490.55	1599.85
1001.8042	2753.61	2480.35	1590.85
1001.925	2754.8136	2470.3	1580.95
1002.0458	2756.0165	2469.65	1583.25
1002.1665	2757.2188	2468.4	1581.65
1002.2872	2758.4204	2472.55	1584.95
1002.4078	2759.6213	2458.55	1569.95
1002.5285	2760.8215	2456.25	1564.35
1002.649	2762.0211	2452.35	1561.55
1002.7696	2763.22	2434.15	1542.85
1002.8901	2764.4182	2432.75	1543.25
1003.0106	2765.6158	2432.4	1544.4
1003.131	2766.8127	2414.25	1526.35
1003.2514	2768.009	2418.25	1530.4
1003.3717	2769.2045	2406.2	1516.05
1003.492	2770.3994	2402.95	1511.15
1003.6123	2771.5936	2394.85	1505.7
1003.7325	2772.7872	2390.05	1501.55
1003.8527	2773.9801	2380.25	1491.5
1003.9729	2775.1723	2384.65	1481.9
1004.093	2776.3639	2379.2	1491.95
1004.2131	2777.5548	2370.3	1479.9
1004.3331	2778.745	2368.15	1479
1004.4531	2779.9346	2362.6	1474.55
1004.5731	2781.1235	2362.45	1474.35
1004.693	2782.3117	2356.65	1470.55
1004.8129	2783.4992	2353.85	1466.5
1004.9328	2784.6861	2365.3	1476.6
1005.0526	2785.8723	2357.05	1467.5
1005.1723	2787.0579	2369.15	1481.4
1005.2921	2788.2428	2364.45	1478.55
1005.4118	2789.427	2366.35	1480.45
1005.5314	2790.6106	2378.9	1492.65
1005.651	2791.7935	2386.2	1498.5
1005.7706	2792.9757	2392.25	1506.75
1005.8902	2794.1573	2405.1	1516.35
1006.0097	2795.3382	2410.95	1522.7
1006.1291	2796.5184	2416.05	1531.25
1006.2485	2797.698	2430	1541.45
1006.3679	2798.8769	2430.4	1544.1
1006.4873	2800.0551	2452.2	1565.7
1006.6066	2801.2327	2472.35	1583.1
1006.7258	2802.4096	2483.95	1597.7
1006.8451	2803.5859	2506.65	1619.05
1006.9642	2804.7615	2523.4	1635.55
1007.0834	2805.9364	2546.85	1659.5
1007.2025	2807.1106	2566.2	1680.85
1007.3216	2808.2842	2584.1	1695.65
1007.4406	2809.4572	2629.5	1742.05
1007.5596	2810.6294	2667.8	1780
1007.6785	2811.801	2695.3	1809.9
1007.7975	2812.972	2734.05	1847.25
1007.9163	2814.1423	2788.95	1902.95
1008.0352	2815.3119	2814.35	1926.7
1008.154	2816.4808	2873.25	1985.25
1008.2727	2817.6491	2914.3	2026.5
1008.3914	2818.8167	2957.3	2072.2
1008.5101	2819.9837	3008.4	2119.35
1008.6288	2821.15	3032.15	2144.95
1008.7474	2822.3157	3087.8	2202.05
1008.8659	2823.4807	3126.1	2239.4
1008.9844	2824.645	3173.65	2285.5
1009.1029	2825.8086	3209	2324.55
1009.2214	2826.9716	3252.7	2368.65
1009.3398	2828.134	3299.8	2414.35
1009.4581	2829.2957	3316.6	2428.8
1009.5764	2830.4567	3342.95	2460.1
1009.6947	2831.617	3361.7	2474.8
1009.813	2832.7767	3363.6	2478.2
1009.9312	2833.9358	3367.8	2482.5
1010.0493	2835.0941	3359.45	2470.15
1010.1675	2836.2519	3337.5	2451.55
1010.2855	2837.4089	3330.35	2442.55
1010.4036	2838.5653	3319.4	2433.75
1010.5216	2839.7211	3304.4	2418.45
1010.6396	2840.8761	3320.7	2433.25
1010.7575	2842.0306	3339.15	2454.65
1010.8754	2843.1843	3383.1	2496.75
1010.9932	2844.3374	3440.55	2554.4
1011.111	2845.4899	3490.9	2603.5
1011.2288	2846.6417	3566.45	2681.65
1011.3465	2847.7928	3643.65	2757.35
1011.4642	2848.9433	3700.65	2814.5
1011.5818	2850.0931	3794.4	2909.75
1011.6995	2851.2422	3862.95	2974.65
1011.817	2852.3907	3948.8	3060.3
1011.9345	2853.5385	4003.3	3116.3
1012.052	2854.6857	4065	3172.95
1012.1695	2855.8323	4112.85	3227.1
1012.2869	2856.9781	4155.2	3270.2
1012.4042	2858.1233	4197.45	3310.45
1012.5216	2859.2679	4251.65	3365.4
1012.6389	2860.4118	4295.85	3410.7
1012.7561	2861.555	4317.35	3427.8
1012.8733	2862.6976	4359.95	3472.3
1012.9905	2863.8395	4371.5	3485.6
1013.1076	2864.9808	4405.5	3519.55
1013.2247	2866.1214	4415.5	3530
1013.3417	2867.2614	4433.3	3547.2
1013.4587	2868.4007	4433.15	3545.95
1013.5757	2869.5393	4442.95	3555.25
1013.6926	2870.6773	4457.35	3569.85
1013.8095	2871.8146	4470.35	3581.55
1013.9263	2872.9513	4455.35	3568.2
1014.0431	2874.0874	4465.55	3580.8
1014.1599	2875.2227	4437.9	3553.85
1014.2766	2876.3574	4428.1	3541.85
1014.3933	2877.4915	4392.15	3508
1014.51	2878.6249	4356.3	3470.45
1014.6266	2879.7577	4340.8	3454
1014.7431	2880.8898	4330.4	3433.5
1014.8596	2882.0212	4290.9	3405.2
1014.9761	2883.152	4279.4	3393.55
1015.0925	2884.2821	4255.25	3371
1015.2089	2885.4116	4258.7	3373.4
1015.3253	2886.5405	4255.8	3369.05
1015.4416	2887.6686	4267.65	3379.7
1015.5579	2888.7962	4263.75	3380.45
1015.6741	2889.923	4267.95	3383
1015.7903	2891.0493	4290.8	3405.2
1015.9065	2892.1748	4273.15	3387.3
1016.0226	2893.2997	4295.25	3409.15
1016.1387	2894.424	4298.1	3413.15
1016.2547	2895.5476	4324.5	3440.45
1016.3707	2896.6706	4343.95	3459.7
1016.4866	2897.7929	4353.65	3467.25
1016.6025	2898.9145	4383.5	3498.95
1016.7184	2900.0355	4427.65	3540.75
1016.8342	2901.1559	4450.2	3564.8
1016.95	2902.2756	4468.95	3583.85
1017.0658	2903.3946	4497.35	3613.5
1017.1815	2904.513	4520.5	3632.4
1017.2971	2905.6308	4554.35	3670
1017.4127	2906.7479	4582.8	3698.3
1017.5283	2907.8643	4602.15	3714.25
1017.6439	2908.9801	4607.4	3723.75
1017.7594	2910.0953	4614.35	3730.3
1017.8748	2911.2098	4611.35	3726.7
1017.9902	2912.3236	4602.8	3710.6
1018.1056	2913.4368	4595	3707.7
1018.2209	2914.5494	4566.2	3682.2
1018.3362	2915.6613	4537.9	3649.5
1018.4515	2916.7725	4495.05	3607.5
1018.5667	2917.8831	4464.95	3580.25
1018.6819	2918.9931	4452.2	3564.7
1018.797	2920.1024	4411.65	3525.5
1018.9121	2921.211	4383.2	3500.2
1019.0271	2922.319	4350.9	3466.05
1019.1421	2923.4264	4343.8	3459.35
1019.2571	2924.5331	4330.2	3447
1019.372	2925.6391	4318.45	3435.75
1019.4869	2926.7445	4301	3416.1
1019.6017	2927.8493	4299.2	3413.95
1019.7165	2928.9534	4286.3	3401.4
1019.8313	2930.0569	4267.45	3381.3
1019.946	2931.1597	4253.1	3367.5
1020.0606	2932.2619	4252.4	3367.6
1020.1753	2933.3634	4237.45	3353.7
1020.2899	2934.4643	4221.35	3329.4
1020.4044	2935.5645	4213.3	3322.55
1020.5189	2936.6641	4163.6	3274.95
1020.6334	2937.763	4107.75	3224.55
1020.7478	2938.8613	4078.3	3191.25
1020.8622	2939.959	4003.55	3113.35
1020.9765	2941.056	3926.95	3042.85
1021.0908	2942.1523	3838.85	2955.55
1021.2051	2943.248	3760.1	2874.7
1021.3193	2944.3431	3658	2774.45
1021.4334	2945.4375	3541.3	2658.65
1021.5476	2946.5313	3448.55	2564.4
1021.6617	2947.6244	3331.85	2447.95
1021.7757	2948.7169	3224.35	2339.45
1021.8897	2949.8087	3121.8	2237.85
1022.0037	2950.8999	3032.45	2149.3
1022.1176	2951.9904	2943.75	2062.1
1022.2315	2953.0803	2876.95	1992.6
1022.3453	2954.1696	2805.05	1918.7
1022.4591	2955.2582	2755.7	1871.25
1022.5728	2956.3462	2695.65	1811.75
1022.6865	2957.4335	2654.45	1768.65
1022.8002	2958.5202	2623	1736.15
1022.9138	2959.6062	2594.1	1713.3
1023.0274	2960.6916	2559.25	1675.95
1023.141	2961.7764	2546	1661.55
1023.2545	2962.8605	2531.35	1644.9
1023.3679	2963.9439	2516.35	1631.1
1023.4813	2965.0267	2507.6	1623.05
1023.5947	2966.1089	2509.65	1600.6
1023.708	2967.1905	2492.3	1608.35
1023.8213	2968.2714	2488.45	1604.1
1023.9346	2969.3516	2477.2	1593.6
1024.0478	2970.4312	2486.95	1596.5
1024.1609	2971.5102	2464.1	1579.4
1024.274	2972.5885	2470.95	1587.05
1024.3871	2973.6662	2469.65	1580.8
1024.5002	2974.7432	2471.35	1589.7
1024.6132	2975.8196	2447.75	1564.85
1024.7261	2976.8954	2437.55	1554.55
1024.839	2977.9705	2427.2	1543.9
1024.9519	2979.045	2416.5	1532.15
1025.0647	2980.1188	2401.3	1516.8
1025.1775	2981.192	2367.6	1487.6
1025.2902	2982.2645	2343.8	1460.35
1025.4029	2983.3364	2317.25	1433.8
1025.5156	2984.4077	2274.65	1390.85
1025.6282	2985.4783	2260.85	1371.55
1025.7407	2986.5483	2224.6	1342.6
1025.8532	2987.6177	2203.05	1319.25
1025.9657	2988.6864	2153.6	1270.65
1026.0782	2989.7545	2113.45	1228.3
1026.1906	2990.8219	2084.8	1202.1
1026.3029	2991.8887	2053.9	1168.9
1026.4152	2992.9548	2017.5	1135
1026.5275	2994.0204	1985.85	1103.5
1026.6397	2995.0852	1953.7	1069.25
1026.7519	2996.1495	1929.7	1044.95
1026.864	2997.2131	1905.3	1021.85
1026.9761	2998.276	1881.5	996.65
1027.0882	2999.3383	1867.8	985.05
1027.2002	3000.4	1835.8	949.65
1027.3122	3001.4611	1828.85	944.35
1027.4241	3002.5215	1801.15	915.55
1027.536	3003.5812	1786.15	903.6
1027.6478	3004.6404	1774.15	890.7
1027.7596	3005.6989	1766.9	882.3
1027.8714	3006.7567	1751.4	869.95
1027.9831	3007.8139	1758.35	855.2
1028.0947	3008.8705	1731.7	846.55
1028.2064	3009.9264	1748.8	851.65
1028.3179	3010.9818	1729.55	846.25
1028.4295	3012.0364	1729.6	844.6
1028.541	3013.0905	1714.35	832.8
1028.6524	3014.1439	1703.5	818.1
1028.7638	3015.1966	1706.05	824.35
1028.8752	3016.2487	1701.95	818.45
1028.9865	3017.3002	1718.6	827.85
1029.0978	3018.3511	1707.75	826.55
1029.209	3019.4013	1701	818.05
1029.3202	3020.4509	1707	824.65
1029.4314	3021.4998	1706.15	821.9
1029.5425	3022.5481	1700	816.4
1029.6535	3023.5958	1694.8	813.4
1029.7645	3024.6428	1693.45	810.3
1029.8755	3025.6892	1706	823.45
1029.9864	3026.735	1691.6	807.65
1030.0973	3027.7802	1695.65	811.5
1030.2082	3028.8247	1704.9	821.45
1030.319	3029.8685	1704.15	820.85
1030.4297	3030.9118	1701	818
1030.5404	3031.9544	1716.95	833.8
1030.6511	3032.9963	1719.3	836.05
1030.7617	3034.0376	1716.95	834.65
1030.8723	3035.0783	1732.45	846.65
1030.9829	3036.1184	1724.95	841.95
1031.0934	3037.1578	1727.75	846.3
1031.2038	3038.1966	1722.95	836.4
1031.3142	3039.2348	1727.5	844.85
1031.4246	3040.2723	1722.95	832.95
1031.5349	3041.3092	1709.35	827.65
1031.6452	3042.3455	1711.5	829.15
1031.7554	3043.3811	1706.25	820.15
1031.8656	3044.4161	1700.35	817.5
1031.9758	3045.4505	1688.1	806.15
1032.0859	3046.4842	1683.6	799.55
1032.1959	3047.5173	1681.95	799.25
1032.3059	3048.5498	1677.65	794.55
1032.4159	3049.5816	1663.35	780.9
1032.5258	3050.6128	1663	778.55
1032.6357	3051.6434	1658.2	773.9
1032.7455	3052.6734	1643.65	760.5
1032.8553	3053.7027	1636.8	753.35
1032.9651	3054.7314	1626.45	743.25
1033.0748	3055.7594	1623.5	740.05
1033.1845	3056.7868	1612.3	730.5
1033.2941	3057.8136	1607.85	726.3
1033.4037	3058.8398	1594.5	711.9
1033.5132	3059.8653	1592.45	712.75
1033.6227	3060.8902	1585.15	702.1
1033.7321	3061.9145	1593.45	711.95
1033.8415	3062.9381	1568.85	687.6
1033.9509	3063.9612	1582.3	682.25
1034.0602	3064.9835	1558.05	674.9
1034.1694	3066.0053	1554.2	670.55
1034.2787	3067.0264	1537.85	657.3
1034.3878	3068.0469	1535.3	652.7
1034.497	3069.0668	1527	642.9
1034.6061	3070.086	1512.85	631.05
1034.7151	3071.1046	1511.65	625.25
1034.8241	3072.1226	1494.35	610.5
1034.9331	3073.1399	1490.6	610.35
1035.042	3074.1567	1479.05	594.6
1035.1508	3075.1727	1466.05	581.15
1035.2597	3076.1882	1452.15	569.05
1035.3684	3077.203	1445.6	563.4
1035.4772	3078.2173	1435.7	549.45
1035.5859	3079.2308	1431.9	544.7
1035.6945	3080.2438	1420	535.95
1035.8031	3081.2561	1411.45	529.4
1035.9117	3082.2678	1401.65	520.95
1036.0202	3083.2789	1391.85	510.55
1036.1286	3084.2893	1388.4	505.35
1036.2371	3085.2991	1376.6	493.95
1036.3454	3086.3083	1372.45	484.5
1036.4538	3087.3169	1361.5	476.6
1036.562	3088.3248	1356.55	472.3
1036.6703	3089.3321	1351.75	468.4
1036.7785	3090.3388	1344.2	462.8
1036.8866	3091.3449	1344.75	460.75
1036.9948	3092.3503	1344.9	459.95
1037.1028	3093.3551	1337.4	455.05
1037.2108	3094.3593	1334.5	454
1037.3188	3095.3629	1325.3	442.7
1037.4267	3096.3658	1324.95	444.55
1037.5346	3097.3681	1322.15	439.5
1037.6425	3098.3698	1315.45	432.05
1037.7503	3099.3708	1317.65	428.1
1037.858	3100.3713	1300.15	419.65
1037.9657	3101.3711	1299.65	416
1038.0734	3102.3702	1434.2	409.25
1038.181	3103.3688	1307.05	423.15
1038.2886	3104.3667	1293.7	413.8
1038.3961	3105.364	1286.35	402.35
1038.5036	3106.3607	1284.25	400.85
1038.611	3107.3568	1284.1	400.3
1038.7184	3108.3522	1272.55	391.65
1038.8257	3109.347	1273.45	392.1
1038.933	3110.3412	1283.1	396.35
1039.0403	3111.3348	1272.85	391.9
1039.1475	3112.3277	1263.7	381.75
1039.2547	3113.32	1260.5	378.4
1039.3618	3114.3117	1263.55	382.2
1039.4689	3115.3028	1262.05	379.35
1039.5759	3116.2932	1262	376.85
1039.6829	3117.2831	1252.55	367.75
1039.7898	3118.2723	1249.55	369.7
1039.8967	3119.2608	1248.7	367.8
1040.0035	3120.2488	1245.3	364.9
1040.1103	3121.2361	1248.7	366.05
1040.2171	3122.2229	1247.45	367.2
1040.3238	3123.209	1247.2	365.95
1040.4305	3124.1944	1236.95	356.3
1040.5371	3125.1793	1238.1	355
1040.6437	3126.1635	1235.3	353.8
1040.7502	3127.1471	1236.7	356.4
1040.8567	3128.1301	1234.95	355.45
1040.9631	3129.1125	1232.75	350.95
1041.0695	3130.0942	1226.2	344.1
1041.1759	3131.0753	1236.15	345.8
1041.2822	3132.0558	1228.95	344.55
1041.3884	3133.0357	1214.5	332.7
1041.4946	3134.015	1216	334.45
1041.6008	3134.9936	1219.75	335.35
1041.7069	3135.9716	1228.65	326.25
1041.813	3136.949	1216.05	334.15
1041.919	3137.9258	1233.3	336.7
1042.025	3138.902	1210.8	324.45
1042.1309	3139.8775	1206.3	326.65
1042.2368	3140.8524	1206.95	324.25
1042.3427	3141.8267	1205.9	323.8
1042.4485	3142.8004	1199.6	317.1
1042.5542	3143.7735	1205.25	319.25
1042.6599	3144.7459	1204.05	319.35
1042.7656	3145.7178	1199.6	317.8
1042.8712	3146.689	1189.25	308.75
1042.9768	3147.6596	1192.9	310.2
1043.0823	3148.6295	1192.5	310.8
1043.1878	3149.5989	1189.2	306.75
1043.2932	3150.5676	1187.65	308.6
1043.3986	3151.5357	1181.25	300.9
1043.5039	3152.5032	1181	298.95
1043.6092	3153.4701	1179.35	297.85
1043.7145	3154.4364	1185.3	300.2
1043.8197	3155.402	1172.4	292.1
1043.9248	3156.367	1177.3	293.45
1044.03	3157.3315	1216.5	292.2
1044.135	3158.2952	1175.95	296.5
1044.24	3159.2584	1166.45	285
1044.345	3160.221	1161.45	279.5
1044.4499	3161.1829	1161.1	279.25
1044.5548	3162.1442	1157.4	275.9
1044.6596	3163.105	1157.55	275.55
1044.7644	3164.065	1155.5	273.55
1044.8692	3165.0245	1159.4	274.4
1044.9739	3165.9834	1155.8	277.55
1045.0785	3166.9416	1157.9	275
1045.1831	3167.8993	1155.4	275.1
1045.2877	3168.8563	1158.4	274.9
1045.3922	3169.8127	1148.55	266.3
1045.4966	3170.7684	1142.95	261.25
1045.6011	3171.7236	1147	266.2
1045.7054	3172.6782	1144.3	263.1
1045.8098	3173.6321	1145.95	262.9
1045.914	3174.5854	1144.55	258.95
1046.0183	3175.5381	1142.85	263.65
1046.1224	3176.4902	1140.85	259.35
1046.2266	3177.4417	1137.95	257.85
1046.3307	3178.3926	1136.7	256.85
1046.4347	3179.3428	1132.75	250.2
1046.5387	3180.2924	1131.1	249.7
1046.6427	3181.2415	1131.7	248.95
1046.7466	3182.1899	1129.65	247.15
1046.8504	3183.1377	1123.1	241.5
1046.9542	3184.0848	1127.6	242.05
1047.058	3185.0314	1129.25	246.65
1047.1617	3185.9773	1124.3	242.3
1047.2654	3186.9227	1127.4	242.6
1047.369	3187.8674	1124.3	243.45
1047.4726	3188.8115	1126.8	241.05
1047.5761	3189.755	1120.05	240.2
1047.6796	3190.6979	1120.95	240
1047.783	3191.6402	1120.35	239.55
1047.8864	3192.5818	1119	237.7
1047.9898	3193.5229	1125.25	237.2
1048.0931	3194.4633	1114.05	233
1048.1963	3195.4031	1113.5	231.7
1048.2995	3196.3423	1112.15	229.9
1048.4027	3197.2809	1108.85	227.65
1048.5058	3198.2189	1109.35	227.75
1048.6089	3199.1563	1111.45	223.15
1048.7119	3200.0931	1104.1	224
1048.8148	3201.0292	1104.35	224.45
1048.9178	3201.9648	1098.35	216
1049.0206	3202.8997	1105.9	222.95
1049.1235	3203.834	1098.05	216.25
1049.2262	3204.7677	1102.3	221.8
1049.329	3205.7008	1102.25	219.6
1049.4317	3206.6333	1095.25	217.45
1049.5343	3207.5652	1099.75	216.3
1049.6369	3208.4964	1094.4	213.8
1049.7394	3209.4271	1092.2	212.5
1049.8419	3210.3571	1094.15	213.8
1049.9444	3211.2865	1089.75	206.25
1050.0468	3212.2154	1091.8	210.95
1050.1491	3213.1436	1091.95	206.4
1050.2514	3214.0712	1097	208.5
1050.3537	3214.9982	1086.6	205.6
1050.4559	3215.9246	1090.4	210.15
1050.5581	3216.8503	1078.7	197.75
1050.6602	3217.7755	1081.75	200.6
1050.7623	3218.7001	1083.35	202.9
1050.8643	3219.624	1084.15	203.3
1050.9663	3220.5473	1079.45	198.25
1051.0682	3221.4701	1084.5	202.75
1051.1701	3222.3922	1083.4	199.7
1051.2719	3223.3137	1080.3	198.9
1051.3737	3224.2346	1078.9	199.15
1051.4754	3225.1549	1074.95	196.5
1051.5771	3226.0746	1071.85	192.35
1051.6788	3226.9937	1073.95	192.55
1051.7804	3227.9121	1070.3	191.45
1051.8819	3228.83	1073.65	193.15
1051.9834	3229.7473	1076	195.75
1052.0849	3230.6639	1072.35	192.65
1052.1863	3231.5799	1064.4	183.75
1052.2876	3232.4954	1071.05	189.3
1052.3889	3233.4102	1065.95	185.85
1052.4902	3234.3244	1067.35	185.15
1052.5914	3235.238	1064	184.6
1052.6926	3236.151	1086.25	178.55
1052.7937	3237.0634	1063.3	184.1
1052.8948	3237.9752	1059.2	178
1052.9958	3238.8864	1063.1	181.35
1053.0968	3239.797	1059.65	180.6
1053.1977	3240.7069	1058.8	176.25
1053.2986	3241.6163	1057.2	176.5
1053.3994	3242.5251	1053.85	173.2
1053.5002	3243.4332	1055.4	176.9
1053.6009	3244.3408	1057.95	175.15
1053.7016	3245.2477	1055.95	176.25
1053.8022	3246.154	1054.5	172.45
1053.9028	3247.0598	1052.7	171.9
1054.0034	3247.9649	1049.7	168.9
1054.1039	3248.8694	1047.05	168.5
1054.2043	3249.7733	1046.2	166.1
1054.3047	3250.6766	1046.25	164.4
1054.4051	3251.5793	1048.45	166.55
1054.5054	3252.4814	1048.1	170.15
1054.6056	3253.3829	1041.6	160.8
1054.7058	3254.2838	1039.2	160.4
1054.806	3255.1841	1038.9	158.25
1054.9061	3256.0838	1042.55	163.4
1055.0061	3256.9829	1037.65	157.75
1055.1062	3257.8814	1035.35	154.75
1055.2061	3258.7792	1037.85	155
1055.306	3259.6765	1031.9	150.4
1055.4059	3260.5731	1034.8	154.6
1055.5057	3261.4692	1028.7	147.3
1055.6055	3262.3647	1033.85	153.05
1055.7052	3263.2595	1024.9	144.15
1055.8049	3264.1538	1025.45	145.15
1055.9045	3265.0474	1021.3	139.4
1056.0041	3265.9404	1019.1	139.6
1056.1036	3266.8329	1014.55	133.75
1056.2031	3267.7247	1024.55	132.75
1056.3025	3268.616	1012.4	134.25
1056.4019	3269.5066	1007.45	126.8
1056.5013	3270.3966	1005.5	123.05
1056.6005	3271.286	1002.6	123.05
