Software Version:	3.9.2.0
Unit SN:	10000200
Spectrometer SN:	6960
Date:	3/26/2024 2:43:34 PM
Data Line Index:	25
Spectral Points:	2048
Integration time (ms):	125
Averages:	20
Delay (ms):	30000
Sequence Number:	1
Processing:	dark subtract
Laser Power (mW):	300
Laser Current (mA):	821
Laser Diode Temp (C):	25
Laser Case Temp (C):	27.9
System Temp (C):	28
Spectrometer Temp (C):	25.9
CCD Temp (C):	0.002
Secondary Temp (C):	20.003
Heatsink Temp (C):	23.233
CCDPCB Temp (C):	37.318
SecondaryPCB Temp (C):	34.873

Wavelength	RamanShift	Raw Counts	Dark Subtracted
787.061	30.1047	637	229.4
787.2016	32.3739	646.25	238.75
787.3422	34.6426	661.95	252.45
787.4828	36.9109	680.45	269.1
787.6235	39.1787	700.95	285.9
787.7642	41.4461	724.3	304.5
787.9049	43.7131	749.25	325.4
788.0456	45.9796	775.6	348.4
788.1863	48.2456	801.4	370.2
788.3271	50.5112	824	389.35
788.4679	52.7764	846.45	407.1
788.6087	55.0411	881.65	441.4
788.7496	57.3054	912.6	465.1
788.8904	59.5692	943.55	493.9
789.0313	61.8326	977.55	523.1
789.1722	64.0955	1017.15	560.5
789.3132	66.3579	1062.85	601.15
789.4541	68.6199	1122.3	658.4
789.5951	70.8815	1209.45	742.45
789.7361	73.1426	1418.35	947.1
789.8771	75.4032	1914.2	1436.15
790.0181	77.6634	3174.95	2689.2
790.1592	79.9231	6297.95	5805.4
790.3003	82.1824	13519.35	13009.2
790.4414	84.4412	29724.7	29181.35
790.5825	86.6995	57173.3	56582.4
790.7237	88.9574	65524.75	64889.25
790.8648	91.2148	65535	64870.9
791.006	93.4717	65535	64851.4
791.1472	95.7282	65535	64837
791.2885	97.9842	65535	64830.6
791.4297	100.2398	65535	64830.4
791.571	102.4949	65535	64829.75
791.7123	104.7495	65535	64827.05
791.8536	107.0036	65535	64829.85
791.9949	109.2573	65535	64829.1
792.1363	111.5105	65535	64822.8
792.2777	113.7632	65535	64819.15
792.4191	116.0154	65535	64812.05
792.5605	118.2672	65535	64814.95
792.7019	120.5185	65535	64814.7
792.8434	122.7693	65535	64819.3
792.9849	125.0197	65535	64810.55
793.1264	127.2696	65535	64811.55
793.2679	129.519	65535	64806
793.4094	131.7679	65535	64802.85
793.551	134.0163	65535	64797.75
793.6926	136.2642	65535	64793.45
793.8342	138.5117	65535	64791.3
793.9758	140.7587	65535	64790.55
794.1175	143.0052	65535	64787.7
794.2591	145.2512	65535	64788.9
794.4008	147.4967	65535	64790.4
794.5425	149.7417	65535	64789.7
794.6842	151.9863	65535	64783.4
794.826	154.2304	65535	64779.25
794.9677	156.4739	65535	64776.65
795.1095	158.717	65535	64773.6
795.2513	160.9596	65535	64772.4
795.3931	163.2017	65535	64764
795.535	165.4433	65535	64767.95
795.6768	167.6844	65535	64764.85
795.8187	169.925	65535	64759.4
795.9606	172.1651	65535	64762.05
796.1025	174.4047	65535	64757.75
796.2445	176.6439	65535	64758.3
796.3864	178.8825	65535	64754.1
796.5284	181.1206	65535	64748.25
796.6704	183.3582	65535	64745
796.8124	185.5954	65535	64744.8
796.9544	187.832	65535	64743.6
797.0965	190.0681	65535	64738.75
797.2386	192.3037	65535	64735.25
797.3806	194.5388	65535	64731.9
797.5228	196.7734	65535	64732.6
797.6649	199.0075	65535	64725.2
797.807	201.2411	65535	64719.8
797.9492	203.4742	65535	64721.2
798.0914	205.7068	65535	64723
798.2336	207.9389	65535	64718.55
798.3758	210.1704	65535	64717.45
798.518	212.4015	65535	64715.8
798.6603	214.632	65535	64716.8
798.8025	216.862	65535	64729.75
798.9448	219.0915	65535	64729.35
799.0871	221.3205	65535	64730.5
799.2294	223.549	65535	64734.75
799.3718	225.777	65535	64736.6
799.5141	228.0044	65535	64738
799.6565	230.2314	65535	64730.2
799.7989	232.4578	65535	64740.65
799.9413	234.6837	65535	64731.4
800.0837	236.909	65535	64724.85
800.2262	239.1339	65535	64701.8
800.3687	241.3582	65535	64709.55
800.5111	243.582	65535	64683.85
800.6536	245.8053	65535	64700.7
800.7961	248.0281	65535	64702.45
800.9387	250.2503	65535	64697
801.0812	252.472	65535	64695.1
801.2238	254.6932	65535	64691.85
801.3664	256.9139	65535	64688.7
801.509	259.134	65535	64687.1
801.6516	261.3536	65535	64686.95
801.7942	263.5727	65535	64681.55
801.9369	265.7912	65535	64687.3
802.0795	268.0092	65535	64689.35
802.2222	270.2267	65535	64688.9
802.3649	272.4436	65535	64690.25
802.5076	274.6601	65535	64681.3
802.6504	276.8759	65535	64685.05
802.7931	279.0913	65535	64678.65
802.9359	281.3061	65535	64682.9
803.0787	283.5204	65535	64677.65
803.2215	285.7341	65535	64674.15
803.3643	287.9473	65535	64661.15
803.5071	290.16	65535	64669.8
803.6499	292.3721	65535	64669.95
803.7928	294.5837	65535	64673.85
803.9357	296.7947	65535	64674.2
804.0786	299.0052	65535	64672.95
804.2215	301.2152	65535	64674.05
804.3644	303.4246	65535	64676.65
804.5074	305.6334	65535	64680.7
804.6503	307.8418	65535	64670.95
804.7933	310.0495	65535	64670.25
804.9363	312.2568	65535	64672.9
805.0793	314.4635	65535	64669.1
805.2223	316.6696	65535	64667.7
805.3653	318.8752	65535	64661.65
805.5084	321.0802	65535	64661.25
805.6514	323.2847	65535	64664.35
805.7945	325.4887	65535	64663
805.9376	327.692	65535	64662.35
806.0807	329.8949	65535	64664.8
806.2238	332.0972	65535	64663.2
806.367	334.2989	65535	64659.65
806.5101	336.5001	65535	64654.35
806.6533	338.7007	65535	64653.25
806.7965	340.9008	65535	64651.7
806.9397	343.1003	65535	64653.3
807.0829	345.2992	65535	64652.85
807.2261	347.4976	65535	64651
807.3693	349.6955	65535	64645.8
807.5126	351.8927	65535	64644.45
807.6559	354.0895	65535	64634.45
807.7991	356.2856	65535	64651.05
807.9424	358.4812	65535	64644.05
808.0857	360.6763	65535	64643.7
808.2291	362.8707	65535	64647.7
808.3724	365.0646	65535	64647.35
808.5158	367.258	65535	64643
808.6591	369.4508	65535	64639.1
808.8025	371.643	65535	64639.9
808.9459	373.8346	65535	64634.25
809.0893	376.0257	65535	64633.5
809.2327	378.2162	65535	64636.05
809.3762	380.4062	65535	64629.8
809.5196	382.5956	65535	64634.8
809.6631	384.7844	65535	64633.5
809.8066	386.9726	65535	64629.95
809.9501	389.1603	65535	64634.8
810.0936	391.3474	65535	64591.85
810.2371	393.5339	65535	64631.25
810.3806	395.7199	65535	64634.5
810.5241	397.9052	65535	64638
810.6677	400.09	65535	64642.35
810.8113	402.2743	65535	64641.3
810.9548	404.4579	65535	64640.6
811.0984	406.641	65535	64643.85
811.2421	408.8235	65535	64639.95
811.3857	411.0054	65535	64640.5
811.5293	413.1868	65535	64636.85
811.673	415.3675	65535	64635.6
811.8166	417.5477	65535	64634.45
811.9603	419.7273	65535	64631.15
812.104	421.9064	65535	64631.05
812.2477	424.0848	65535	64634.85
812.3914	426.2627	65535	64629.5
812.5351	428.4399	65535	64627.65
812.6788	430.6166	65535	64619.25
812.8226	432.7928	65535	64623.45
812.9663	434.9683	65535	64628.4
813.1101	437.1432	65535	64625.6
813.2539	439.3176	65535	64631.9
813.3977	441.4914	65535	64631.9
813.5415	443.6645	65535	64628.25
813.6853	445.8371	65535	64628.3
813.8291	448.0091	65535	64628
813.973	450.1806	65535	64630.9
814.1168	452.3514	65535	64630.3
814.2607	454.5216	65535	64620.35
814.4046	456.6913	65535	64629.15
814.5485	458.8603	65535	64629.35
814.6924	461.0288	65535	64632.55
814.8363	463.1967	65535	64633.3
814.9802	465.3639	65535	64630.75
815.1241	467.5306	65535	64626
815.2681	469.6967	65535	64633.3
815.412	471.8622	65535	64635.25
815.556	474.0271	65535	64627.5
815.7	476.1914	65535	64622.3
815.844	478.3551	65535	64624.5
815.988	480.5182	65535	64627.2
816.132	482.6807	65535	64634.25
816.276	484.8426	65535	64639
816.4201	487.0039	65535	64635
816.5641	489.1647	65535	64627.05
816.7082	491.3248	65535	64623.7
816.8522	493.4843	65535	64629.65
816.9963	495.6432	65535	64629.25
817.1404	497.8015	65535	64622.55
817.2845	499.9592	65535	64615.2
817.4286	502.1163	65535	64618.3
817.5727	504.2728	65535	64624.9
817.7168	506.4287	65535	64634.45
817.861	508.5839	65535	64628.7
818.0051	510.7386	65535	64628.9
818.1493	512.8927	65535	64614.15
818.2935	515.0461	65535	64619.85
818.4377	517.199	65535	64619.85
818.5818	519.3512	65535	64621.05
818.726	521.5029	65535	64614.9
818.8703	523.6539	65535	64615.45
819.0145	525.8043	65535	64615.45
819.1587	527.9541	65535	64615.65
819.303	530.1033	65535	64617.15
819.4472	532.2519	65535	64617.35
819.5915	534.3999	65535	64614.3
819.7357	536.5472	65535	64617.1
819.88	538.694	65535	64624.7
820.0243	540.8401	65535	64617.65
820.1686	542.9856	65535	64608.55
820.3129	545.1305	65535	64603.35
820.4572	547.2748	65535	64601.15
820.6016	549.4185	65535	64605.5
820.7459	551.5615	65535	64601.6
820.8902	553.704	65535	64606.5
821.0346	555.8458	65535	64609.35
821.1789	557.987	65535	64610.35
821.3233	560.1276	65535	64609.6
821.4677	562.2675	65535	64605.75
821.6121	564.4069	65535	64605.05
821.7565	566.5456	65535	64609.55
821.9009	568.6837	65535	64610.95
822.0453	570.8212	65535	64613.25
822.1897	572.958	65535	64608.05
822.3342	575.0942	65535	64613.2
822.4786	577.2299	65535	64614.85
822.6231	579.3648	65535	64625.1
822.7675	581.4992	65535	64633.85
822.912	583.6329	65535	64634.05
823.0565	585.766	65535	64630.5
823.201	587.8985	65535	64625.5
823.3454	590.0304	65535	64597.3
823.4899	592.1616	65535	64608.05
823.6345	594.2922	65535	64607.5
823.779	596.4222	65535	64601.95
823.9235	598.5515	65535	64603.5
824.068	600.6802	65535	64606.15
824.2126	602.8083	65535	64606.25
824.3571	604.9358	65535	64607.6
824.5017	607.0626	65535	64603.55
824.6462	609.1888	65535	64600.3
824.7908	611.3144	65535	64596.9
824.9354	613.4393	65535	64597.35
825.08	615.5636	65535	64600.2
825.2246	617.6873	65535	64603.75
825.3692	619.8103	65535	64602.45
825.5138	621.9327	65535	64598.65
825.6584	624.0544	65535	64609.1
825.803	626.1756	65535	64610.55
825.9477	628.2961	65535	64605.9
826.0923	630.4159	65535	64604
826.237	632.5351	65535	64602.5
826.3816	634.6537	65535	64601.25
826.5263	636.7716	65535	64594.2
826.6709	638.8889	65535	64593.25
826.8156	641.0056	65535	64593.05
826.9603	643.1216	65535	64595.25
827.105	645.237	65535	64597.2
827.2497	647.3518	65535	64605.9
827.3944	649.4659	65535	64610.65
827.5391	651.5793	65535	64605.35
827.6838	653.6922	65535	64602.65
827.8285	655.8043	65535	64606.35
827.9733	657.9159	65535	64601.6
828.118	660.0268	65535	64602.95
828.2627	662.137	65535	64600.35
828.4075	664.2466	65535	64592.35
828.5522	666.3556	65535	64595.85
828.697	668.4639	65535	64602.1
828.8418	670.5716	65535	64601.9
828.9865	672.6786	65535	64599.35
829.1313	674.785	65535	64595.5
829.2761	676.8907	65535	64598.2
829.4209	678.9958	65535	64603.45
829.5657	681.1002	65535	64599.55
829.7105	683.204	65535	64591.35
829.8553	685.3072	65535	64592.35
830.0001	687.4097	65535	64597.9
830.1449	689.5115	65535	64595
830.2898	691.6127	65535	64600.6
830.4346	693.7132	65535	64605
830.5794	695.8131	65535	64577.6
830.7243	697.9123	65535	64592.95
830.8691	700.0109	65535	64589.5
831.014	702.1089	65528.55	64590.25
831.1588	704.2061	65530.85	64590.85
831.3037	706.3028	65533.75	64586.75
831.4486	708.3987	65535	64592.05
831.5935	710.4941	65530.75	64590.8
831.7383	712.5887	65535	64598
831.8832	714.6827	65533.3	64595.95
832.0281	716.7761	65535	64599.4
832.173	718.8688	65535	64598.3
832.3179	720.9608	65535	64592.6
832.4628	723.0522	65535	64582.6
832.6077	725.1429	65532.4	64590.85
832.7527	727.233	65535	64591.2
832.8976	729.3224	65475.4	64529.35
833.0425	731.4112	65519.25	64577.65
833.1874	733.4993	65517.1	64577.05
833.3324	735.5867	65524.05	64579.35
833.4773	737.6735	65483.15	64543
833.6222	739.7596	65466.05	64521
833.7672	741.845	65459.7	64513.7
833.9122	743.9298	65516.7	64572.35
834.0571	746.014	65461.6	64522.05
834.2021	748.0974	65414.05	64464.35
834.347	750.1802	65500.7	64551.3
834.492	752.2624	65398.45	64450.05
834.637	754.3439	65413.65	64463.55
834.782	756.4247	65439.8	64485.35
834.9269	758.5048	65376.95	64432.9
835.0719	760.5843	65405.65	64456.2
835.2169	762.6631	65449.05	64501.6
835.3619	764.7413	65434	64489.15
835.5069	766.8188	65453.9	64507.7
835.6519	768.8956	65504.1	64559.25
835.7969	770.9718	65494.85	64547.5
835.9419	773.0473	65475.05	64529.55
836.0869	775.1221	65402.3	64452.85
836.232	777.1962	65390.5	64442.95
836.377	779.2697	65216.5	64270.75
836.522	781.3426	65348.55	64388.7
836.667	783.4147	65395.45	64445.9
836.8121	785.4862	65401.85	64456.1
836.9571	787.557	65244.1	64293.55
837.1021	789.6271	65376.8	64431.95
837.2472	791.6966	65207.2	64259.25
837.3922	793.7654	64827.05	63881
837.5373	795.8335	64863.65	63915.95
837.6823	797.901	64961.9	64014.55
837.8274	799.9678	64741.6	63790.9
837.9724	802.0339	64662.45	63708.35
838.1175	804.0993	64744.3	63786.6
838.2626	806.1641	64574.3	63625.55
838.4076	808.2282	64474.45	63524.5
838.5527	810.2916	64277.95	63326.45
838.6978	812.3544	64616.25	63670.65
838.8428	814.4164	63985.85	63038.4
838.9879	816.4778	64017.9	63065.45
839.133	818.5385	64068	63118.85
839.2781	820.5986	63993.55	63040.3
839.4232	822.658	64046	63092.8
839.5682	824.7166	64109.15	63159.65
839.7133	826.7747	63425.35	62473.4
839.8584	828.832	63678.1	62727.95
840.0035	830.8886	64084.15	63133.8
840.1486	832.9446	64127.2	63176.25
840.2937	834.9999	63131.25	62179.95
840.4388	837.0545	63688.6	62735.7
840.5839	839.1085	64045.75	63093.3
840.729	841.1618	63822.55	62865.55
840.8741	843.2143	63112.2	62160.8
841.0192	845.2662	63071.8	62122.8
841.1643	847.3175	63298.55	62349.6
841.3095	849.368	62304.85	61352.55
841.4546	851.4179	63081.7	62131.2
841.5997	853.467	62368	61418.65
841.7448	855.5155	62641.4	61691.55
841.8899	857.5633	61973.35	61021.3
842.0351	859.6105	61653.55	60699.25
842.1802	861.6569	62032.3	61078.95
842.3253	863.7027	61265.25	60312.9
842.4704	865.7478	61561.5	60610.2
842.6156	867.7922	61296.65	60348.9
842.7607	869.8359	61751.7	60797.75
842.9058	871.8789	60879.75	59926.4
843.0509	873.9212	61518.15	60534.8
843.1961	875.9629	61577.6	60624.15
843.3412	878.0039	61530.85	60575.7
843.4863	880.0441	61301.55	60352.15
843.6315	882.0837	61162.25	60210.8
843.7766	884.1226	61073.45	60121.75
843.9218	886.1609	60878.15	59926.05
844.0669	888.1984	60429.95	59481.35
844.212	890.2352	60968.35	60013.8
844.3572	892.2714	60042.85	59088.75
844.5023	894.3069	60344.35	59389.3
844.6475	896.3416	59946.55	58992.9
844.7926	898.3757	59813.85	58862.65
844.9377	900.4091	58904.15	57949.3
845.0829	902.4418	60058.75	59097
845.228	904.4739	59314.35	58359.6
845.3732	906.5052	59412.15	58458.25
845.5183	908.5358	58905.25	57956.35
845.6635	910.5658	58478.75	57521.75
845.8086	912.595	58443.5	57489.55
845.9538	914.6236	57643.75	56694.4
846.0989	916.6515	58815.3	57863.05
846.2441	918.6786	57415.7	56462.4
846.3892	920.7051	57734.3	56778.95
846.5344	922.7309	57643.15	56690.75
846.6795	924.756	57892.75	56937.9
846.8246	926.7804	57468.55	56511.45
846.9698	928.8041	56765.8	55813.15
847.1149	930.8272	57155.6	56197.9
847.2601	932.8495	57053.9	56099.75
847.4052	934.8711	56350.35	55393.55
847.5504	936.892	55977.95	55023.15
847.6955	938.9123	55979.75	55026.8
847.8407	940.9318	55524.1	54572.65
847.9858	942.9506	55279.55	54322.7
848.131	944.9688	55293.75	54340.25
848.2761	946.9862	54497.75	53543.45
848.4213	949.003	54676.1	53719.9
848.5664	951.019	53997.65	53045.4
848.7115	953.0344	54170.35	53220.25
848.8567	955.0491	54048.9	53096.1
849.0018	957.063	54222.45	53272.75
849.147	959.0763	54248	53292.6
849.2921	961.0888	53898.9	52943.3
849.4373	963.1007	54195.9	53245.6
849.5824	965.1119	54090.15	53146.15
849.7275	967.1223	53830.15	52890.7
849.8727	969.1321	53988.15	53048.65
850.0178	971.1412	53612.9	52665.65
850.1629	973.1495	53375.35	52426.15
850.3081	975.1572	53462.45	52475.8
850.4532	977.1641	53351.95	52398.9
850.5983	979.1704	53116.5	52165.1
850.7435	981.1759	53057.2	52101.75
850.8886	983.1808	52837.75	51882.9
851.0337	985.1849	52843.45	51879.4
851.1788	987.1884	52914.6	51961.8
851.324	989.1911	53221.35	52267.7
851.4691	991.1932	52783.05	51833.1
851.6142	993.1945	52789.4	51842.5
851.7593	995.1951	52661.25	51712.7
851.9045	997.1951	52389.9	51430.45
852.0496	999.1943	52020.15	51070.35
852.1947	1001.1928	51852.55	50902.1
852.3398	1003.1906	51759.7	50807.3
852.4849	1005.1877	51474.4	50521.6
852.63	1007.1841	51172.3	50223.25
852.7751	1009.1798	50873.2	49919.25
852.9202	1011.1748	50502.45	49548.75
853.0653	1013.1691	50165.95	49212.3
853.2104	1015.1627	49674.2	48724.4
853.3555	1017.1556	49229.6	48277.85
853.5006	1019.1477	49135.05	48187.45
853.6457	1021.1392	48744.7	47800.35
853.7908	1023.1299	48437.15	47497.3
853.9359	1025.12	48353.4	47415.05
854.081	1027.1093	48108.9	47180.95
854.2261	1029.0979	48043.4	47115.45
854.3712	1031.0859	47917	46988.15
854.5163	1033.0731	47689.4	46748
854.6613	1035.0596	47515.75	46571.45
854.8064	1037.0454	47113.55	46167
854.9515	1039.0304	46873.15	45923.5
855.0965	1041.0148	46581.8	45633.05
855.2416	1042.9985	46340.3	45394.7
855.3867	1044.9814	46286.1	45338.75
855.5317	1046.9636	45981.8	45031.6
855.6768	1048.9452	45766.55	44820
855.8219	1050.926	45667.55	44719
855.9669	1052.9061	45490.7	44545.05
856.112	1054.8855	45380.8	44428.4
856.257	1056.8642	45313.5	44362.05
856.4021	1058.8421	45293.95	44343.35
856.5471	1060.8194	45112.85	44164
856.6921	1062.7959	45036.65	44086.25
856.8372	1064.7717	44925.25	43980.55
856.9822	1066.7469	44771.45	43819.8
857.1272	1068.7213	44590.7	43642.3
857.2723	1070.695	44462.5	43512
857.4173	1072.6679	44142.9	43191.85
857.5623	1074.6402	44037.9	43090.45
857.7073	1076.6117	43932.05	42980.9
857.8523	1078.5826	43888.15	42939
857.9973	1080.5527	43785.8	42837.2
858.1423	1082.5221	43801.9	42854.4
858.2873	1084.4908	43921.9	42971.35
858.4323	1086.4587	44016.75	43065.85
858.5773	1088.426	44104.45	43152.35
858.7223	1090.3925	43867.1	42915.95
858.8673	1092.3584	43746.95	42799.6
859.0123	1094.3235	43352.35	42405.05
859.1573	1096.2879	43036.85	42091.3
859.3022	1098.2515	42950.25	42003.7
859.4472	1100.2145	42891.45	41944.4
859.5922	1102.1767	42687.7	41737.1
859.7371	1104.1382	42818.5	41871
859.8821	1106.099	42858.9	41913.4
860.027	1108.0591	42930.55	41984.9
860.172	1110.0185	42928.2	41980.25
860.3169	1111.9771	42900.4	41955.8
860.4619	1113.9351	42440.05	41492.65
860.6068	1115.8923	41943.35	40998.1
860.7517	1117.8488	41461.35	40513.45
860.8967	1119.8045	40961.15	40014.45
861.0416	1121.7596	40793.7	39847.1
861.1865	1123.7139	40516.1	39572.75
861.3314	1125.6675	40431.9	39487.25
861.4763	1127.6204	40546.95	39600.8
861.6212	1129.5726	40375.15	39426.25
861.7661	1131.524	40313.3	39368.1
861.911	1133.4748	40338.15	39391.75
862.0559	1135.4248	40188.7	39240.75
862.2008	1137.3741	40143.9	39200.85
862.3457	1139.3226	39989.05	39039.7
862.4905	1141.2705	39949.1	39001.9
862.6354	1143.2176	39639.2	38690.5
862.7803	1145.164	39637.25	38688.6
862.9251	1147.1097	39507.05	38563.1
863.07	1149.0546	39405.25	38458.15
863.2148	1150.9989	39308.7	38362.3
863.3597	1152.9424	39138.65	38195.7
863.5045	1154.8852	38788.7	37845.2
863.6493	1156.8272	38569.8	37622.45
863.7942	1158.7686	38439.35	37487.55
863.939	1160.7092	38232.15	37285.05
864.0838	1162.6491	38061.7	37111.95
864.2286	1164.5883	38089.35	37145.45
864.3734	1166.5267	38028.45	37080.4
864.5182	1168.4644	38063.35	37119.4
864.663	1170.4014	38178.75	37236.55
864.8078	1172.3377	38397.55	37458.5
864.9526	1174.2732	38473.95	37529.35
865.0974	1176.2081	38607.1	37662.3
865.2421	1178.1421	38631.65	37684.9
865.3869	1180.0755	38705.05	37762.2
865.5317	1182.0082	38524.55	37577.45
865.6764	1183.9401	38443.45	37500.65
865.8212	1185.8713	38089.5	37152.4
865.9659	1187.8017	37787.5	36856.7
866.1106	1189.7315	37369.9	36443.05
866.2554	1191.6605	36952.05	36025.9
866.4001	1193.5888	36652.6	35721.65
866.5448	1195.5163	36468.35	35531.5
866.6895	1197.4432	36252.25	35309.35
866.8342	1199.3693	36130.5	35190
866.9789	1201.2947	35909.95	34962.15
867.1236	1203.2193	35691.25	34745.75
867.2683	1205.1432	35713.1	34771.95
867.413	1207.0664	35588.1	34646.7
867.5576	1208.9889	35570.35	34626.6
867.7023	1210.9106	35553.45	34613.7
867.847	1212.8316	35467.2	34527.8
867.9916	1214.7519	35536.6	34587.8
868.1363	1216.6715	35373.75	34436.2
868.2809	1218.5903	35280.6	34340.05
868.4255	1220.5084	35109.1	34166.15
868.5701	1222.4257	35013.6	34070.9
868.7148	1224.3424	34754.85	33817.15
868.8594	1226.2583	34679.85	33733.5
869.004	1228.1735	34747.45	33806.45
869.1486	1230.0879	34686.2	33746.15
869.2932	1232.0016	34727.25	33788.5
869.4377	1233.9146	34651	33710.25
869.5823	1235.8269	34456.75	33515.15
869.7269	1237.7384	34294.8	33354.85
869.8715	1239.6492	33928.4	32990.7
870.016	1241.5592	33773.45	32830
870.1606	1243.4686	33516.9	32577.2
870.3051	1245.3772	33410.05	32471.65
870.4496	1247.285	33235.5	32296
870.5941	1249.1922	33047.5	32108.6
870.7387	1251.0986	33015.55	32076.9
870.8832	1253.0042	32870.6	31930.45
871.0277	1254.9092	32824.2	31887.05
871.1722	1256.8134	32832.25	31894.95
871.3167	1258.7169	32956.05	32018
871.4611	1260.6196	33022.9	32086.8
871.6056	1262.5216	33161.8	32223.6
871.7501	1264.4229	33131.4	32193
871.8945	1266.3234	33262.95	32324.65
872.039	1268.2232	33256.35	32315.2
872.1834	1270.1223	33114.9	32173.55
872.3278	1272.0207	33004.8	32064.25
872.4723	1273.9183	32882.1	31935.05
872.6167	1275.8151	32682.85	31747.4
872.7611	1277.7113	32536.4	31597.35
872.9055	1279.6067	32313.1	31374.85
873.0499	1281.5014	32044.05	31106
873.1943	1283.3953	31808.2	30865.5
873.3386	1285.2885	31657.85	30722.35
873.483	1287.181	31549.25	30610.45
873.6274	1289.0727	31490.15	30556.3
873.7717	1290.9637	31423.7	30486.25
873.9161	1292.854	31567.2	30630.1
874.0604	1294.7435	31559.4	30620.1
874.2047	1296.6323	31733.7	30797.75
874.349	1298.5204	31943.55	31003.6
874.4933	1300.4077	32184.2	31247.85
874.6376	1302.2943	32223.4	31288.3
874.7819	1304.1802	32321.8	31383.6
874.9262	1306.0653	32151.55	31214.75
875.0705	1307.9497	32004.9	31070.65
875.2147	1309.8333	31862.9	30923.3
875.359	1311.7162	31771.6	30836.55
875.5032	1313.5984	31817.6	30875.8
875.6475	1315.4798	31833.35	30882.75
875.7917	1317.3605	31969.9	31015.45
875.9359	1319.2405	32081.85	31141.85
876.0801	1321.1197	32075.1	31136.65
876.2243	1322.9982	31955.6	31017.3
876.3685	1324.876	31925.15	30986.95
876.5127	1326.753	31831.5	30897.5
876.6569	1328.6293	31856.5	30916.7
876.801	1330.5048	31871.95	30929.85
876.9452	1332.3796	31689.3	30753.55
877.0893	1334.2537	31668.65	30709.05
877.2335	1336.127	31518.2	30581.6
877.3776	1337.9996	31410.1	30472.6
877.5217	1339.8714	31288.45	30351.35
877.6658	1341.7426	31149.1	30166.25
877.8099	1343.6129	31006.3	30068.3
877.954	1345.4826	30867.15	29929.8
878.0981	1347.3515	30831.9	29890
878.2422	1349.2196	30696.55	29756.75
878.3862	1351.087	30662.4	29725.85
878.5303	1352.9537	30611.1	29673.2
878.6743	1354.8197	30685.9	29746.75
878.8184	1356.6849	30867.8	29930.55
878.9624	1358.5493	30837.3	29900.55
879.1064	1360.4131	30757.8	29820.25
879.2504	1362.276	30613.2	29677.7
879.3944	1364.1383	30363.1	29427.6
879.5384	1365.9998	30047.2	29102.8
879.6823	1367.8606	29678.8	28742.45
879.8263	1369.7206	29355.1	28416.45
879.9702	1371.5799	29162.85	28222.5
880.1142	1373.4384	28938.15	28001.85
880.2581	1375.2962	28786.8	27847.75
880.402	1377.1533	28428.65	27491.7
880.5459	1379.0096	27980.9	27046.35
880.6898	1380.8652	27698.4	26766.15
880.8337	1382.7201	27408.75	26475.05
880.9776	1384.5742	27074.8	26136.35
881.1215	1386.4275	26852.45	25917.3
881.2653	1388.2802	26667.4	25730.65
881.4092	1390.132	26491.4	25557.6
881.553	1391.9832	26413.05	25476.55
881.6968	1393.8336	26148.8	25211.15
881.8406	1395.6832	26093.25	25158.65
881.9844	1397.5322	25939.65	25004.5
882.1282	1399.3803	25854.85	24916.7
882.272	1401.2278	25738.45	24801.9
882.4158	1403.0745	25664.55	24732.4
882.5595	1404.9204	25505.8	24574
882.7033	1406.7656	25523.9	24589.55
882.847	1408.6101	25436.4	24502
882.9908	1410.4538	25338.35	24402.5
883.1345	1412.2968	25330.45	24396.35
883.2782	1414.139	25238.2	24303.35
883.4219	1415.9805	25283.2	24347.45
883.5656	1417.8213	25296.1	24343.4
883.7092	1419.6613	25279.8	24349.65
883.8529	1421.5006	25501.25	24564.25
883.9965	1423.3391	25689.3	24757.1
884.1402	1425.1769	25963.2	25028.8
884.2838	1427.0139	26385.45	25453.7
884.4274	1428.8502	26975.45	26041
884.571	1430.6858	27487.5	26557.2
884.7146	1432.5206	27853.9	26921.05
884.8582	1434.3547	28098.8	27163.55
885.0018	1436.188	28083.5	27150.8
885.1453	1438.0206	27979.75	27047.1
885.2889	1439.8524	27772.65	26840.1
885.4324	1441.6835	27599.75	26666.4
885.5759	1443.5139	27456.35	26520.55
885.7194	1445.3435	27301.25	26368.75
885.8629	1447.1724	27217.35	26286.1
886.0064	1449.0005	27118.8	26188.5
886.1499	1450.8279	26978.9	26049.2
886.2933	1452.6545	26904.1	25973.05
886.4368	1454.4804	26906.4	25975.7
886.5802	1456.3056	26832.95	25897.85
886.7237	1458.13	26728.1	25797.55
886.8671	1459.9536	26478.75	25549.6
887.0105	1461.7766	26028.15	25096.75
887.1539	1463.5987	25538.65	24604.35
887.2972	1465.4202	25085.15	24152.75
887.4406	1467.2409	24647.95	23718.65
887.584	1469.0608	24366.55	23436.15
887.7273	1470.88	24052.05	23121.1
887.8706	1472.6984	23813.45	22884.3
888.0139	1474.5161	23530.55	22598.35
888.1572	1476.3331	23318.2	22388
888.3005	1478.1493	23147.5	22217.4
888.4438	1479.9648	23051.15	22125.2
888.5871	1481.7795	22909.55	21980.7
888.7303	1483.5935	22854.85	21923.65
888.8736	1485.4067	22720.55	21789.85
889.0168	1487.2192	22652.4	21722.1
889.16	1489.031	22594.75	21663.8
889.3032	1490.842	22472.75	21545.4
889.4464	1492.6522	22394.55	21464.6
889.5896	1494.4618	22305.65	21375.65
889.7327	1496.2705	22262.85	21335.55
889.8759	1498.0785	22209.9	21279.15
890.019	1499.8858	22125.35	21194.75
890.1622	1501.6924	22034.55	21105.55
890.3053	1503.4981	22004.55	21073.95
890.4484	1505.3032	21984.2	21054.85
890.5914	1507.1075	21874.6	20946.9
890.7345	1508.911	21809.1	20880.35
890.8776	1510.7138	21735.6	20804.85
891.0206	1512.5159	21604.55	20673.8
891.1637	1514.3172	21532	20603.45
891.3067	1516.1178	21458.4	20530.6
891.4497	1517.9176	21397.6	20466.2
891.5927	1519.7166	21255.7	20327.4
891.7357	1521.515	21195.35	20263.8
891.8786	1523.3126	21168.85	20242.8
892.0216	1525.1094	21067.5	20137.55
892.1645	1526.9055	21013.85	20086.65
892.3074	1528.7008	20896.05	19968.75
892.4503	1530.4954	20789.5	19858
892.5932	1532.2893	20720.1	19796.2
892.7361	1534.0824	20623.1	19694.7
892.879	1535.8747	20609.95	19686.85
893.0218	1537.6663	20534.85	19613.65
893.1647	1539.4572	20452.35	19529.05
893.3075	1541.2473	20435	19511.45
893.4503	1543.0367	20326.6	19402.4
893.5931	1544.8253	20228.85	19302.85
893.7359	1546.6132	20258.15	19332.25
893.8787	1548.4003	20130.65	19199.25
894.0214	1550.1867	20132.15	19199.25
894.1642	1551.9723	20095.2	19170.05
894.3069	1553.7572	20077.8	19153.7
894.4496	1555.5414	19988.6	19065.9
894.5923	1557.3247	20008.1	19090.9
894.735	1559.1074	19985.2	19068.45
894.8777	1560.8893	19940.9	19025.65
895.0204	1562.6705	19957.1	19038.45
895.163	1564.4509	20009.7	19091.1
895.3056	1566.2305	19983.3	19070.6
895.4482	1568.0094	20097.15	19180.7
895.5908	1569.7876	20147.55	19231.2
895.7334	1571.565	20165.6	19248.1
895.876	1573.3417	20209.05	19293.2
896.0186	1575.1176	20169.55	19255.35
896.1611	1576.8928	20100.6	19186.8
896.3036	1578.6672	19955.85	19047.1
896.4461	1580.4409	19812.1	18904.95
896.5886	1582.2138	19597	18684.95
896.7311	1583.986	19414.65	18498.1
896.8736	1585.7575	19308.85	18394.5
897.0161	1587.5282	19153.8	18241.9
897.1585	1589.2981	19064	18155.15
897.3009	1591.0673	18945.95	18037.65
897.4433	1592.8358	18887.2	17978.85
897.5857	1594.6035	18852	17938.25
897.7281	1596.3704	18790.4	17876.2
897.8705	1598.1366	18718	17806.7
898.0128	1599.9021	18715.4	17804.4
898.1551	1601.6668	18671.75	17758.05
898.2975	1603.4308	18680.8	17765.55
898.4398	1605.194	18707.85	17790.85
898.5821	1606.9564	18710	17802.85
898.7243	1608.7182	18793.25	17887.25
898.8666	1610.4791	18832.05	17932
899.0088	1612.2394	18952.9	18056.7
899.1511	1613.9988	19051.35	18150.4
899.2933	1615.7576	19277.65	18373.25
899.4355	1617.5156	19487.9	18571.95
899.5776	1619.2728	19725.85	18814.45
899.7198	1621.0293	19859.05	18949.55
899.862	1622.785	19874.4	18966.1
900.0041	1624.54	19763.4	18858.2
900.1462	1626.2942	19593.9	18688.85
900.2883	1628.0477	19251.95	18345.85
900.4304	1629.8005	18974.75	18066.4
900.5725	1631.5525	18669.55	17765.2
900.7145	1633.3037	18440.6	17535.75
900.8566	1635.0542	18247.55	17341.45
900.9986	1636.804	18026.75	17122.75
901.1406	1638.553	17956.1	16979.2
901.2826	1640.3013	17798.5	16892.95
901.4245	1642.0488	17691.9	16785.65
901.5665	1643.7955	17640.05	16736.5
901.7085	1645.5416	17612.4	16709.1
901.8504	1647.2868	17627.9	16723.1
901.9923	1649.0313	17618.15	16712.65
902.1342	1650.7751	17772.7	16864.85
902.2761	1652.5181	17895.6	16989.95
902.4179	1654.2604	18069.3	17163.7
902.5598	1656.0019	18361.1	17458.85
902.7016	1657.7427	18652.7	17748.55
902.8434	1659.4828	19029.8	18124.5
902.9852	1661.222	19235.65	18331.25
903.127	1662.9606	19261.4	18352.75
903.2687	1664.6984	19077.5	18168.75
903.4105	1666.4354	18757.3	17845.1
903.5522	1668.1717	18271.25	17361.2
903.6939	1669.9072	17755.75	16848.45
903.8356	1671.642	17363.15	16451.8
903.9773	1673.3761	17033.55	16125.95
904.119	1675.1094	16771.45	15867.05
904.2606	1676.8419	16571.7	15667
904.4022	1678.5737	16370.25	15463.8
904.5439	1680.3048	16211.5	15302.7
904.6855	1682.0351	16100.4	15191.15
904.827	1683.7646	15979.05	15068.1
904.9686	1685.4934	15914.25	15010.35
905.1101	1687.2215	15802.35	14895.3
905.2517	1688.9488	15714.4	14808.45
905.3932	1690.6754	15613.5	14710.2
905.5347	1692.4012	15573.75	14668.55
905.6761	1694.1263	15510.7	14602.25
905.8176	1695.8506	15448.35	14543.4
905.9591	1697.5742	15409.6	14507.05
906.1005	1699.297	15325.85	14424.1
906.2419	1701.0191	15234.85	14335.25
906.3833	1702.7404	15155.25	14253.25
906.5246	1704.461	15071.45	14165
906.666	1706.1808	15012.35	14108.4
906.8073	1707.8999	14955.1	14054.85
906.9487	1709.6182	14936.95	14037.35
907.09	1711.3358	14871.6	13973.85
907.2313	1713.0527	14801.95	13906.2
907.3725	1714.7688	14772.45	13870.1
907.5138	1716.4841	14693.45	13792.05
907.655	1718.1987	14663.85	13756.8
907.7962	1719.9126	14590.15	13692.7
907.9374	1721.6257	14555.95	13656.2
908.0786	1723.338	14492.95	13595.2
908.2198	1725.0496	14439.35	13540
908.3609	1726.7605	14379.85	13480.6
908.502	1728.4706	14375.8	13475.95
908.6431	1730.18	14271.05	13370.55
908.7842	1731.8886	14207.5	13310.65
908.9253	1733.5964	14220.4	13300.2
909.0664	1735.3036	14142.85	13242.7
909.2074	1737.0099	14108.9	13212.4
909.3484	1738.7156	14084.85	13188.1
909.4894	1740.4204	14015.35	13114.05
909.6304	1742.1246	13986.15	13087.2
909.7714	1743.8279	13967.65	13069.65
909.9123	1745.5306	13930.95	13035.35
910.0532	1747.2325	13866.05	12970.05
910.1941	1748.9336	13817.35	12920.95
910.335	1750.634	13758.95	12859.05
910.4759	1752.3336	13750.15	12853.1
910.6168	1754.0325	13719.3	12826.4
910.7576	1755.7307	13675.9	12779.75
910.8984	1757.4281	13657.35	12757.8
911.0392	1759.1247	13672.6	12764.85
911.18	1760.8206	13619.15	12714.45
911.3208	1762.5158	13614.8	12711.9
911.4615	1764.2102	13521.95	12622.8
911.6022	1765.9039	13454.6	12560.3
911.7429	1767.5968	13454.6	12559.35
911.8836	1769.289	13407.85	12510.35
912.0243	1770.9804	13362.1	12464.4
912.1649	1772.6711	13388.8	12489.1
912.3056	1774.361	13330.05	12428.25
912.4462	1776.0502	13310	12409.7
912.5868	1777.7386	13253.5	12353.8
912.7274	1779.4263	13193	12297.55
912.8679	1781.1132	13180.2	12286.3
913.0084	1782.7994	13149.3	12257
913.149	1784.4849	13094.15	12201.65
913.2895	1786.1696	13058	12157.55
913.4299	1787.8535	13043.9	12150.65
913.5704	1789.5367	12988.75	12095.05
913.7108	1791.2192	12965.15	12072.5
913.8513	1792.9009	12935.05	12011.5
913.9917	1794.5818	12897.45	12000.55
914.132	1796.2621	12858.75	11963.7
914.2724	1797.9415	12830.2	11933.95
914.4128	1799.6202	12792.25	11898.25
914.5531	1801.2982	12757.45	11861.5
914.6934	1802.9755	12730.35	11832.8
914.8337	1804.6519	12708.35	11811.5
914.9739	1806.3277	12642	11748
915.1142	1808.0027	12612.6	11719.4
915.2544	1809.6769	12584.3	11690.8
915.3946	1811.3504	12540.65	11649.45
915.5348	1813.0231	12525.8	11631.1
915.675	1814.6951	12492.65	11598.5
915.8151	1816.3664	12472.35	11576.65
915.9553	1818.0369	12461.05	11565.6
916.0954	1819.7067	12412.6	11517.3
916.2355	1821.3757	12384.4	11489.4
916.3755	1823.044	12365.9	11472.05
916.5156	1824.7115	12324.75	11428.55
916.6556	1826.3783	12283.1	11389.15
916.7956	1828.0443	12242.1	11348.45
916.9356	1829.7096	12195.85	11302.2
917.0756	1831.3741	12184.8	11289.65
917.2155	1833.0379	12153	11262.7
917.3555	1834.701	12114.45	11220.35
917.4954	1836.3633	12123.8	11231.9
917.6353	1838.0248	12081.4	11187.9
917.7751	1839.6856	12044.55	11149
917.915	1841.3457	12036.5	11140.4
918.0548	1843.005	11981.25	11086.35
918.1946	1844.6636	11976.7	11082.15
918.3344	1846.3214	11927.55	11033
918.4742	1847.9785	11930.5	11036.2
918.6139	1849.6349	11892.45	10996.65
918.7537	1851.2904	11880.2	10975.15
918.8934	1852.9453	11836.3	10938.75
919.0331	1854.5994	11804.15	10904.7
919.1727	1856.2528	11795.35	10893.7
919.3124	1857.9054	11782.25	10888.05
919.452	1859.5572	11759.2	10865.55
919.5916	1861.2083	11730.65	10834.95
919.7312	1862.8587	11731.45	10834.85
919.8708	1864.5084	11682.2	10783.4
920.0103	1866.1572	11657.35	10760.95
920.1498	1867.8054	11570.15	10672.85
920.2893	1869.4528	11567.1	10670.9
920.4288	1871.0994	11544.4	10646.55
920.5683	1872.7453	11529.25	10634.4
920.7077	1874.3905	11485.5	10572.2
920.8471	1876.0349	11469.9	10572.9
920.9865	1877.6786	11464.35	10567.15
921.1259	1879.3215	11417.65	10521.8
921.2653	1880.9637	11416.1	10521.35
921.4046	1882.6051	11381.3	10485.2
921.5439	1884.2458	11361.35	10466.05
921.6832	1885.8858	11288.45	10396.45
921.8225	1887.525	11266.1	10369.1
921.9617	1889.1634	11207.05	10312
922.101	1890.8011	11206.7	10311.95
922.2402	1892.4381	11166.45	10271.1
922.3794	1894.0743	11172.7	10278.35
922.5185	1895.7098	11126.15	10231.8
922.6577	1897.3446	11100.3	10204.85
922.7968	1898.9786	11062.7	10164.7
922.9359	1900.6118	11062.4	10169.6
923.075	1902.2443	11012.95	10115.95
923.214	1903.8761	10959.15	10061.7
923.3531	1905.5071	10915.4	10021
923.4921	1907.1374	10894.1	10001.3
923.6311	1908.7669	10862.5	9968.15
923.77	1910.3957	10847	9954.25
923.909	1912.0237	10800.55	9906.6
924.0479	1913.651	10772.95	9878.1
924.1868	1915.2776	10732.6	9837.2
924.3257	1916.9034	10679	9785.9
924.4646	1918.5285	10653.2	9764
924.6034	1920.1528	10594.2	9700.75
924.7422	1921.7764	10587.8	9694.35
924.881	1923.3992	10578.45	9683.45
925.0198	1925.0213	10492.55	9597.75
925.1586	1926.6427	10437.2	9544.1
925.2973	1928.2633	10465.85	9501.5
925.436	1929.8832	10404.45	9511.95
925.5747	1931.5023	10361.75	9469.3
925.7134	1933.1207	10321.75	9427
925.852	1934.7383	10294.7	9400.55
925.9906	1936.3552	10269.1	9376.65
926.1292	1937.9714	10221.7	9326.95
926.2678	1939.5868	10182.1	9286.45
926.4064	1941.2015	10144.45	9248.65
926.5449	1942.8154	10113.9	9222.8
926.6834	1944.4286	10060.7	9166.55
926.8219	1946.041	10035.1	9120.15
926.9604	1947.6528	10002	9104.05
927.0988	1949.2637	9978	9084.6
927.2372	1950.8739	9953.75	9060.15
927.3756	1952.4834	9911.3	9019.65
927.514	1954.0921	9886.45	8992.75
927.6523	1955.7001	9855.8	8959.85
927.7907	1957.3074	9818.7	8928.9
927.929	1958.9139	9771.35	8882
928.0673	1960.5197	9778	8886.1
928.2055	1962.1247	9702.3	8811.05
928.3438	1963.729	9654.95	8767.1
928.482	1965.3325	9656.3	8742.85
928.6202	1966.9353	9612	8722.75
928.7584	1968.5374	9581.35	8689.2
928.8965	1970.1387	9561.95	8670.25
929.0346	1971.7393	9547.55	8656.2
929.1727	1973.3392	9498.05	8608.25
929.3108	1974.9383	9437.55	8547.35
929.4489	1976.5366	9403.05	8515.4
929.5869	1978.1342	9401.4	8511.25
929.7249	1979.7311	9344.7	8454.45
929.8629	1981.3273	9347	8459
930.0009	1982.9227	9322.75	8432.25
930.1388	1984.5173	9275.15	8386.8
930.2767	1986.1112	9239.5	8351.8
930.4146	1987.7044	9233.4	8345.95
930.5525	1989.2968	9189.85	8303
930.6904	1990.8885	9175.65	8284.2
930.8282	1992.4795	9161.1	8272.25
930.966	1994.0697	9103.15	8217.45
931.1038	1995.6592	9096.95	8209
931.2415	1997.2479	9068.3	8180.85
931.3793	1998.8359	9037.55	8149.2
931.517	2000.4232	9010	8126.9
931.6547	2002.0097	8967.75	8084.5
931.7923	2003.5955	8928.7	8044.1
931.93	2005.1805	8920.65	8034.1
932.0676	2006.7648	8908.55	8022.65
932.2052	2008.3484	8875.95	7990.4
932.3427	2009.9312	8899.9	8015.65
932.4803	2011.5133	8826.65	7943.05
932.6178	2013.0946	8801.05	7918.1
932.7553	2014.6752	8787.55	7904
932.8928	2016.2551	8775.35	7889.45
933.0302	2017.8342	8744.55	7859.4
933.1676	2019.4126	8697.55	7813.8
933.305	2020.9902	8648.05	7764.45
933.4424	2022.5672	8624.6	7740.2
933.5798	2024.1433	8629.3	7737.05
933.7171	2025.7188	8584.4	7701.5
933.8544	2027.2935	8568.3	7682.65
933.9917	2028.8674	8548.5	7666.95
934.129	2030.4406	8513.8	7630.85
934.2662	2032.0131	8477.15	7595.1
934.4034	2033.5849	8448.45	7561.5
934.5406	2035.1559	8444.65	7561.95
934.6778	2036.7261	8430.7	7547.55
934.8149	2038.2957	8396.1	7509.7
934.952	2039.8645	8382.25	7494.85
935.0891	2041.4325	8411.6	7525.85
935.2262	2042.9998	8339.7	7454.4
935.3632	2044.5664	8342.8	7455.85
935.5002	2046.1323	8306.25	7422.45
935.6372	2047.6974	8272.4	7390.7
935.7742	2049.2617	8246.05	7363.15
935.9111	2050.8254	8236.95	7347.45
936.048	2052.3883	8246.5	7359.6
936.1849	2053.9504	8204	7318.75
936.3218	2055.5118	8185.5	7299.3
936.4586	2057.0725	8158.3	7268.85
936.5955	2058.6325	8158.1	7274.35
936.7323	2060.1917	8100.35	7214.1
936.869	2061.7502	8075.3	7189.5
937.0058	2063.3079	8061.7	7179.2
937.1425	2064.8649	8047.2	7160.25
937.2792	2066.4212	8015.7	7130.4
937.4159	2067.9767	7985.85	7102.3
937.5525	2069.5315	7940.65	7056.8
937.6891	2071.0856	7902.8	7018.5
937.8257	2072.6389	7911	7027.4
937.9623	2074.1915	7852.2	6970.95
938.0989	2075.7433	7798.25	6913.4
938.2354	2077.2945	7785.9	6902
938.3719	2078.8448	7790.85	6906.2
938.5084	2080.3945	7766.35	6881.15
938.6448	2081.9434	7760.35	6872.9
938.7812	2083.4916	7746	6856.6
938.9176	2085.039	7712.35	6823.2
939.054	2086.5857	7693.5	6803.65
939.1903	2088.1317	7687.3	6793.65
939.3267	2089.677	7658.9	6768.75
939.463	2091.2215	7637.7	6745.5
939.5992	2092.7652	7596.4	6703.6
939.7355	2094.3083	7591.65	6700.55
939.8717	2095.8506	7566.2	6678.7
940.0079	2097.3921	7574.65	6687.55
940.1441	2098.933	7526.1	6639.05
940.2802	2100.4731	7501.7	6614.9
940.4163	2102.0124	7510.05	6613.65
940.5524	2103.5511	7497.5	6611.65
940.6885	2105.089	7512	6623.4
940.8245	2106.6261	7454.15	6564.65
940.9606	2108.1626	7423.4	6536
941.0965	2109.6983	7441.45	6526.15
941.2325	2111.2332	7410.8	6523.15
941.3684	2112.7675	7383.2	6493.35
941.5044	2114.301	7358.9	6469.1
941.6403	2115.8337	7336.05	6447.3
941.7761	2117.3657	7322.35	6435.4
941.912	2118.897	7333.6	6444.75
942.0478	2120.4276	7289.9	6394.6
942.1835	2121.9575	7240.5	6348.35
942.3193	2123.4866	7285.35	6381.2
942.455	2125.0149	7227.75	6337.2
942.5907	2126.5426	7193.9	6309.05
942.7264	2128.0695	7182.8	6292.75
942.8621	2129.5956	7162.65	6279.25
942.9977	2131.1211	7153.4	6262.8
943.1333	2132.6458	7139.15	6251.8
943.2689	2134.1698	7120.9	6232.3
943.4044	2135.693	7096.75	6204.85
943.54	2137.2155	7091.15	6198.55
943.6755	2138.7373	7073.8	6185.2
943.8109	2140.2584	7041.1	6155
943.9464	2141.7787	7024.15	6133.25
944.0818	2143.2983	6995.2	6112.8
944.2172	2144.8171	6954.25	6071
944.3526	2146.3353	6959.75	6074.55
944.4879	2147.8527	6925.7	6041.35
944.6232	2149.3693	6940.25	6051.1
944.7585	2150.8853	6886.95	5998.2
944.8938	2152.4005	6871.95	5982.15
945.029	2153.9149	6865.65	5974.15
945.1642	2155.4287	6921.15	5924.25
945.2994	2156.9417	6843.7	5952.45
945.4346	2158.454	6813.6	5923.05
945.5697	2159.9655	6787.05	5902.15
945.7048	2161.4764	6785.85	5900
945.8399	2162.9865	6763.45	5877.25
945.9749	2164.4958	6735.85	5847.2
946.1099	2166.0045	6705.45	5817.55
946.2449	2167.5124	6694.4	5807.25
946.3799	2169.0195	6675.4	5787.35
946.5148	2170.526	6686.6	5796.85
946.6498	2172.0317	6643.6	5755.8
946.7846	2173.5367	6625.7	5738.45
946.9195	2175.0409	6608.55	5721.35
947.0543	2176.5445	6608.9	5720.65
947.1891	2178.0473	6569.8	5679.75
947.3239	2179.5494	6558.35	5666.2
947.4587	2181.0507	6519.45	5630.75
947.5934	2182.5513	6517.25	5628.9
947.7281	2184.0512	6496.55	5607.2
947.8628	2185.5504	6485.1	5595.3
947.9974	2187.0488	6458.15	5571.7
948.132	2188.5465	6434.5	5547.65
948.2666	2190.0435	6433.65	5543.05
948.4012	2191.5397	6391.05	5505.45
948.5357	2193.0353	6389.55	5501.15
948.6702	2194.5301	6352.85	5461.4
948.8047	2196.0241	6322.75	5431.5
948.9392	2197.5175	6334.95	5442.1
949.0736	2199.0101	6307.1	5412.2
949.208	2200.502	6272.85	5384.3
949.3424	2201.9931	6255.35	5369.75
949.4767	2203.4835	6218	5331
949.611	2204.9733	6210.7	5320.15
949.7453	2206.4622	6220	5333.25
949.8796	2207.9505	6164.1	5275.55
950.0138	2209.438	6138.3	5254.85
950.148	2210.9248	6125.55	5238.3
950.2822	2212.4109	6124.75	5239.05
950.4164	2213.8962	6109.6	5217.2
950.5505	2215.3809	6095.9	5203.35
950.6846	2216.8648	6068.1	5173.8
950.8186	2218.3479	6066.9	5167.3
950.9527	2219.8304	6019.8	5124.85
951.0867	2221.3121	6001.55	5106.35
951.2207	2222.7931	6005.2	5113.25
951.3546	2224.2733	5955.3	5063.9
951.4886	2225.7529	5947.2	5059.5
951.6225	2227.2317	5923	5032.8
951.7563	2228.7098	5927.15	5040.45
951.8902	2230.1872	5892.15	5004.9
952.024	2231.6638	5886.65	5001.8
952.1578	2233.1397	5877.45	4988
952.2916	2234.6149	5856.35	4969.1
952.4253	2236.0894	5829.1	4942.9
952.559	2237.5632	5830.6	4941.25
952.6927	2239.0362	5788.35	4902.2
952.8263	2240.5085	5770.35	4885.8
952.9599	2241.9801	5772.9	4882.3
953.0935	2243.4509	5744.75	4855.95
953.2271	2244.921	5730.95	4837.7
953.3606	2246.3904	5731.85	4838.7
953.4941	2247.8591	5710.85	4819.9
953.6276	2249.3271	5694.5	4804
953.7611	2250.7943	5664.6	4773.5
953.8945	2252.2608	5636.15	4744.9
954.0279	2253.7266	5629.95	4740.8
954.1612	2255.1917	5610.55	4721.35
954.2946	2256.656	5598.5	4707.85
954.4279	2258.1197	5587.05	4700.95
954.5612	2259.5826	5564.2	4676
954.6944	2261.0447	5545.5	4655.85
954.8276	2262.5062	5530.6	4639.45
954.9608	2263.9669	5517.2	4626.8
955.094	2265.4269	5508.65	4619.05
955.2271	2266.8862	5484.6	4597.45
955.3602	2268.3448	5482.35	4592.65
955.4933	2269.8026	5475.8	4588.1
955.6264	2271.2598	5461.35	4572.7
955.7594	2272.7162	5437.85	4550.45
955.8924	2274.1719	5433	4541.3
956.0253	2275.6268	5406	4514.95
956.1583	2277.0811	5412.95	4521.95
956.2912	2278.5346	5390.95	4502.55
956.4241	2279.9874	5377.65	4489.7
956.5569	2281.4395	5377.6	4491.5
956.6897	2282.8908	5344.9	4450.95
956.8225	2284.3414	5338.45	4448.2
956.9553	2285.7914	5322.25	4433.15
957.088	2287.2406	5301.45	4410.15
957.2207	2288.689	5289.6	4398.95
957.3534	2290.1368	5282.8	4387.95
957.486	2291.5838	5287.7	4392.5
957.6186	2293.0302	5258.2	4365.25
957.7512	2294.4758	5238.7	4345.15
957.8838	2295.9206	5206.3	4314.25
958.0163	2297.3648	5197.5	4309.15
958.1488	2298.8082	5192	4303.3
958.2813	2300.251	5178.35	4287.65
958.4137	2301.693	5152.5	4258.6
958.5461	2303.1343	5144.55	4252.25
958.6785	2304.5748	5146.15	4257.85
958.8108	2306.0147	5117.25	4227.3
958.9432	2307.4538	5106.3	4215.15
959.0754	2308.8922	5076.2	4191.6
959.2077	2310.3299	5079.85	4194.6
959.3399	2311.7669	5061.75	4174.85
959.4721	2313.2031	5053.5	4165.75
959.6043	2314.6387	5024.15	4134.05
959.7365	2316.0735	5000.4	4109.8
959.8686	2317.5076	5011.15	4120.25
960.0006	2318.941	4999.1	4108.7
960.1327	2320.3737	4992.45	4099.55
960.2647	2321.8056	4986.25	4090.8
960.3967	2323.2369	4945.15	4052.85
960.5287	2324.6674	4933.6	4043
960.6606	2326.0972	4917.3	4027.8
960.7925	2327.5263	4907.65	4015.8
960.9244	2328.9547	4908.95	4018
961.0562	2330.3823	4887.25	3995.35
961.1881	2331.8092	4874.1	3979.05
961.3198	2333.2355	4851.4	3958.55
961.4516	2334.661	4854.9	3964.15
961.5833	2336.0858	4851.5	3958.6
961.715	2337.5098	4814.5	3923.8
961.8467	2338.9332	4818.35	3928.05
961.9783	2340.3558	4800.2	3909.25
962.1099	2341.7778	4788.3	3901.05
962.2415	2343.199	4771.25	3881.85
962.373	2344.6195	4743.95	3856.75
962.5045	2346.0393	4745.25	3856.6
962.636	2347.4583	4733.55	3842.3
962.7675	2348.8767	4733.35	3841.15
962.8989	2350.2943	4727	3835.55
963.0303	2351.7113	4729.65	3835.35
963.1617	2353.1275	4708.6	3816.2
963.293	2354.543	4710.5	3794.95
963.4243	2355.9578	4668.3	3777.25
963.5556	2357.3718	4642.8	3754.25
963.6868	2358.7852	4612.5	3723.35
963.818	2360.1978	4609.3	3721.4
963.9492	2361.6098	4603.1	3715.45
964.0803	2363.021	4593.7	3699.65
964.2114	2364.4315	4585.85	3695.25
964.3425	2365.8413	4574.05	3678.3
964.4736	2367.2504	4555	3666.55
964.6046	2368.6587	4532.25	3644.95
964.7356	2370.0664	4524.35	3636.2
964.8666	2371.4733	4499.45	3610.7
964.9975	2372.8795	4493.75	3604.35
965.1284	2374.285	4474.3	3585.55
965.2593	2375.6899	4460.2	3571.8
965.3901	2377.0939	4441.9	3554.85
965.5209	2378.4973	4440.4	3550.45
965.6517	2379.9	4403.15	3515.55
965.7825	2381.3019	4395.6	3508.2
965.9132	2382.7032	4379.8	3494.45
966.0439	2384.1037	4381.5	3496.15
966.1745	2385.5035	4365.55	3478.5
966.3051	2386.9027	4339.4	3454.7
966.4357	2388.3011	4339.1	3451.65
966.5663	2389.6987	4315.15	3427.7
966.6968	2391.0957	4299.35	3412.2
966.8273	2392.492	4295.2	3410.3
966.9578	2393.8876	4271.7	3383.75
967.0882	2395.2824	4262.1	3374.3
967.2186	2396.6765	4238.95	3351.65
967.349	2398.07	4240	3352.75
967.4793	2399.4627	4213.9	3322
967.6097	2400.8547	4224.65	3334.45
967.7399	2402.246	4202.5	3305.6
967.8702	2403.6366	4187.35	3300.8
968.0004	2405.0265	4167.1	3279.25
968.1306	2406.4156	4149	3259.1
968.2607	2407.8041	4150.85	3262.6
968.3909	2409.1918	4103.45	3214.2
968.521	2410.5789	4124.85	3237.9
968.651	2411.9652	4117.15	3223.95
968.781	2413.3508	4091.7	3203.1
968.911	2414.7358	4081.85	3191.85
969.041	2416.12	4054.9	3167.3
969.1709	2417.5035	4063.55	3176.35
969.3008	2418.8863	4046.5	3157.8
969.4307	2420.2684	4040.9	3154
969.5606	2421.6497	4025.65	3137.6
969.6904	2423.0304	4006.35	3119.85
969.8201	2424.4104	3993.65	3106.1
969.9499	2425.7896	3981.7	3092.85
970.0796	2427.1682	3958.05	3069.7
970.2093	2428.546	3953	3063.05
970.3389	2429.9232	3962.3	3072.85
970.4685	2431.2996	3946.95	3057.5
970.5981	2432.6753	3944.5	3055.1
970.7277	2434.0503	3927.55	3036.35
970.8572	2435.4246	3918.75	3031.45
970.9867	2436.7982	3898.15	3007.6
971.1161	2438.1711	3879.7	2993.15
971.2456	2439.5433	3881.4	2994.8
971.375	2440.9148	3867.65	2973.75
971.5043	2442.2856	3857.3	2968.15
971.6336	2443.6557	3837.15	2946.4
971.7629	2445.025	3838.7	2950.25
971.8922	2446.3937	3822.75	2934.45
972.0214	2447.7617	3815.65	2925.8
972.1506	2449.1289	3805.6	2917.55
972.2798	2450.4955	3813.75	2921.8
972.4089	2451.8613	3802.2	2914.05
972.538	2453.2265	3783.5	2894.75
972.6671	2454.5909	3794.5	2905.15
972.7961	2455.9546	3765.4	2877.65
972.9251	2457.3177	3756.45	2871
973.0541	2458.68	3741.15	2851
973.1831	2460.0416	3747.15	2858.5
973.312	2461.4025	3745.9	2855.6
973.4408	2462.7627	3737.25	2838.25
973.5697	2464.1222	3716.75	2830.2
973.6985	2465.4811	3717.2	2829.4
973.8273	2466.8392	3693.75	2807.05
973.956	2468.1966	3691.2	2800.85
974.0847	2469.5533	3708.75	2818
974.2134	2470.9093	3669.6	2780.2
974.3421	2472.2645	3668	2778.05
974.4707	2473.6191	3653.05	2764.6
974.5993	2474.973	3664.15	2777.3
974.7278	2476.3262	3641	2751.85
974.8563	2477.6787	3621.45	2734.7
974.9848	2479.0305	3601.85	2712.7
975.1132	2480.3816	3604.25	2713.85
975.2417	2481.7319	3585.55	2698.5
975.37	2483.0816	3576.15	2687.8
975.4984	2484.4306	3569.9	2680.1
975.6267	2485.7789	3559.25	2674.1
975.755	2487.1264	3545.9	2656.4
975.8833	2488.4733	3536.25	2648.85
976.0115	2489.8195	3532.9	2637.45
976.1397	2491.165	3523.3	2633.05
976.2678	2492.5097	3499.65	2609.45
976.3959	2493.8538	3501.3	2614.2
976.524	2495.1972	3483.9	2594.85
976.6521	2496.5398	3457.3	2567.2
976.7801	2497.8818	3463.85	2572.75
976.9081	2499.2231	3455.75	2565.55
977.036	2500.5637	3433.25	2540.65
977.164	2501.9035	3435.6	2546.65
977.2918	2503.2427	3420	2527.5
977.4197	2504.5812	3428.05	2539.9
977.5475	2505.919	3420.6	2528.95
977.6753	2507.256	3407.35	2518.75
977.8031	2508.5924	3402.45	2513.65
977.9308	2509.9281	3390.85	2496.75
978.0585	2511.2631	3379.3	2490.85
978.1861	2512.5974	3365.75	2477.8
978.3137	2513.9309	3366.7	2478.6
978.4413	2515.2638	3375.2	2460.25
978.5689	2516.596	3344.3	2454.5
978.6964	2517.9275	3332.75	2443.1
978.8239	2519.2583	3327.85	2437.9
978.9513	2520.5884	3313.95	2423.95
979.0788	2521.9178	3298	2412.05
979.2062	2523.2465	3295.75	2408.4
979.3335	2524.5745	3280.35	2394.45
979.4608	2525.9018	3283.45	2395.55
979.5881	2527.2284	3272.2	2382.7
979.7154	2528.5543	3262.1	2375.95
979.8426	2529.8796	3249.35	2359.15
979.9698	2531.2041	3240.15	2350.1
980.0969	2532.5279	3210.95	2323.55
980.224	2533.851	3241.95	2352.75
980.3511	2535.1735	3233.35	2346.35
980.4781	2536.4952	3212.15	2323.65
980.6052	2537.8163	3209.2	2318.65
980.7321	2539.1366	3212.55	2323.35
980.8591	2540.4562	3201.1	2311.85
980.986	2541.7752	3189.6	2300.95
981.1129	2543.0935	3182	2291.5
981.2397	2544.411	3193.95	2304.15
981.3665	2545.7279	3184.35	2296.55
981.4933	2547.0441	3165.5	2275.35
981.62	2548.3596	3179.9	2286.9
981.7467	2549.6744	3169.3	2279.5
981.8734	2550.9885	3165.55	2266.7
982.0001	2552.3019	3137.3	2247.65
982.1267	2553.6146	3136.6	2248.4
982.2532	2554.9266	3135.85	2246.4
982.3798	2556.2379	3126.5	2236.95
982.5063	2557.5485	3117.3	2231.55
982.6327	2558.8585	3112.3	2212.55
982.7592	2560.1677	3104.6	2211.15
982.8856	2561.4762	3089.05	2201.15
983.0119	2562.7841	3090.45	2199.25
983.1383	2564.0913	3084.65	2195.65
983.2646	2565.3977	3079.25	2189.7
983.3908	2566.7035	3084.3	2193.9
983.517	2568.0086	3066.2	2173.25
983.6432	2569.313	3075.4	2185
983.7694	2570.6167	3068.25	2174.1
983.8955	2571.9197	3052.45	2163.5
984.0216	2573.222	3048.1	2155.6
984.1476	2574.5236	3043.8	2152.95
984.2737	2575.8246	3043.05	2150.15
984.3996	2577.1248	3040.9	2147.7
984.5256	2578.4244	3027.7	2139.75
984.6515	2579.7232	3030.4	2141.25
984.7774	2581.0214	3051.75	2128
984.9032	2582.3189	3025	2138.1
985.029	2583.6157	3015.2	2122.05
985.1548	2584.9118	3011.45	2121.55
985.2806	2586.2072	3021.85	2130.75
985.4063	2587.5019	2994.7	2106.3
985.5319	2588.7959	2993.7	2103.6
985.6576	2590.0893	2991.75	2101.6
985.7832	2591.3819	2982.85	2093.95
985.9087	2592.6739	2979.95	2090.5
986.0343	2593.9652	2986.25	2095.3
986.1597	2595.2557	2974.65	2084.2
986.2852	2596.5456	2961.8	2069.25
986.4106	2597.8348	2966.85	2075.6
986.536	2599.1234	2959.2	2069.2
986.6614	2600.4112	2947.05	2058.85
986.7867	2601.6983	2943.95	2049.95
986.912	2602.9848	2944.2	2054.5
987.0372	2604.2705	2934.3	2037.8
987.1624	2605.5556	2922.65	2033.55
987.2876	2606.84	2911.6	2022.9
987.4128	2608.1237	2911.45	2022.75
987.5379	2609.4067	2902.45	2011.7
987.6629	2610.689	2906.2	2007.65
987.788	2611.9707	2888.9	1995.15
987.913	2613.2516	2887.8	1992.85
988.0379	2614.5319	2863.25	1973.3
988.1629	2615.8115	2864.15	1974.05
988.2878	2617.0903	2865.95	1976
988.4126	2618.3685	2827.35	1939.05
988.5375	2619.6461	2837	1946.45
988.6622	2620.9229	2832.9	1945.5
988.787	2622.199	2832	1940
988.9117	2623.4745	2833.05	1944.8
989.0364	2624.7493	2825.45	1936.3
989.161	2626.0234	2813.5	1925.45
989.2857	2627.2968	2808.35	1918.55
989.4102	2628.5695	2801.45	1911.7
989.5348	2629.8415	2786.5	1898.2
989.6593	2631.1128	2779.45	1888.15
989.7837	2632.3835	2773.65	1885.4
989.9082	2633.6535	2767.9	1879.95
990.0326	2634.9228	2765.7	1877.25
990.1569	2636.1914	2752.1	1862.75
990.2812	2637.4593	2752.35	1862.3
990.4055	2638.7265	2746.35	1857.4
990.5298	2639.9931	2757.8	1867.3
990.654	2641.259	2744.65	1853.3
990.7782	2642.5242	2734.8	1845.05
990.9023	2643.7887	2716.05	1827.1
991.0264	2645.0525	2730.05	1839.25
991.1505	2646.3156	2718.15	1827.4
991.2745	2647.5781	2702.4	1813.45
991.3985	2648.8398	2690.9	1801.7
991.5225	2650.1009	2706.95	1792.4
991.6464	2651.3613	2696.55	1808.4
991.7703	2652.6211	2675.15	1785.7
991.8942	2653.8801	2666.15	1778.3
992.018	2655.1385	2667.1	1778.35
992.1418	2656.3961	2660.25	1770.95
992.2655	2657.6531	2652.3	1762.55
992.3892	2658.9094	2654.65	1766.1
992.5129	2660.1651	2651.45	1762.55
992.6366	2661.42	2628.5	1738.8
992.7602	2662.6743	2648.2	1758.1
992.8837	2663.9279	2647.7	1760
993.0073	2665.1808	2635.2	1746.2
993.1307	2666.433	2624.2	1735.8
993.2542	2667.6846	2629.2	1740.55
993.3776	2668.9354	2625.1	1735.35
993.501	2670.1856	2627.6	1738.35
993.6244	2671.4351	2632.65	1744.4
993.7477	2672.6839	2623.65	1734.15
993.8709	2673.9321	2613.55	1724.2
993.9942	2675.1795	2609.8	1720.65
994.1174	2676.4263	2613.5	1724.7
994.2405	2677.6724	2601.05	1713.15
994.3637	2678.9179	2600.3	1711.95
994.4868	2680.1626	2613.5	1723.95
994.6098	2681.4067	2610.1	1722.35
994.7328	2682.6501	2597.25	1709.35
994.8558	2683.8928	2592	1703.15
994.9788	2685.1348	2572.5	1684.45
995.1017	2686.3761	2569.55	1681.05
995.2245	2687.6168	2568.7	1679.85
995.3474	2688.8568	2556.55	1667.8
995.4702	2690.0961	2548.15	1660.8
995.5929	2691.3348	2544.1	1654.6
995.7156	2692.5727	2540.05	1653.2
995.8383	2693.81	2537.7	1650.7
995.961	2695.0466	2525.25	1638.3
996.0836	2696.2826	2526.45	1637.3
996.2062	2697.5178	2507.65	1617.65
996.3287	2698.7524	2504.3	1616.75
996.4512	2699.9863	2517.2	1628.55
996.5737	2701.2195	2506.8	1619.45
996.6961	2702.452	2509.7	1620.6
996.8185	2703.6839	2492.1	1602.95
996.9408	2704.9151	2501.6	1615.15
997.0631	2706.1456	2499.6	1611.55
997.1854	2707.3755	2504.1	1615.5
997.3077	2708.6046	2509.4	1621.05
997.4299	2709.8331	2512.6	1624.95
997.552	2711.0609	2507.55	1619.2
997.6742	2712.2881	2519	1632.65
997.7963	2713.5145	2530.55	1641.95
997.9183	2714.7403	2520.35	1633.2
998.0403	2715.9654	2520.9	1633.35
998.1623	2717.1899	2551.25	1648.85
998.2842	2718.4136	2546.85	1658.5
998.4062	2719.6367	2538.35	1649.95
998.528	2720.8591	2563.25	1667.55
998.6498	2722.0809	2560.1	1671.15
998.7716	2723.3019	2579.95	1688.6
998.8934	2724.5223	2576.75	1687.05
999.0151	2725.7421	2571.85	1683.15
999.1368	2726.9611	2558.9	1670.9
999.2584	2728.1795	2559.7	1668.05
999.38	2729.3972	2555.7	1668.55
999.5016	2730.6142	2535.85	1635.5
999.6231	2731.8306	2522.8	1634
999.7446	2733.0462	2501.75	1612.3
999.8661	2734.2612	2471.55	1578.4
999.9875	2735.4756	2455.3	1565.25
1000.1089	2736.6892	2434	1545.45
1000.2302	2737.9022	2410.55	1523.6
1000.3515	2739.1145	2388.2	1501.8
1000.4728	2740.3262	2392.8	1496.65
1000.594	2741.5372	2368.15	1481.05
1000.7152	2742.7475	2357.8	1470.3
1000.8363	2743.9571	2341.8	1451.9
1000.9575	2745.1661	2324.25	1429
1001.0785	2746.3744	2315.9	1426.6
1001.1996	2747.582	2301.5	1412.8
1001.3206	2748.7889	2293.35	1404.75
1001.4415	2749.9952	2283	1396.8
1001.5625	2751.2008	2270.75	1381.45
1001.6833	2752.4057	2264.25	1374.6
1001.8042	2753.61	2262.4	1374.35
1001.925	2754.8136	2247.15	1358.4
1002.0458	2756.0165	2247.8	1360.6
1002.1665	2757.2188	2240.85	1355.15
1002.2872	2758.4204	2240.4	1352.7
1002.4078	2759.6213	2240.25	1352.25
1002.5285	2760.8215	2243.85	1353.5
1002.649	2762.0211	2207.95	1320.9
1002.7696	2763.22	2217.7	1325.85
1002.8901	2764.4182	2217.45	1329
1003.0106	2765.6158	2204.7	1316.65
1003.131	2766.8127	2205.05	1318.7
1003.2514	2768.009	2202.35	1315.8
1003.3717	2769.2045	2196.5	1308.8
1003.492	2770.3994	2198.25	1307.7
1003.6123	2771.5936	2186	1300.45
1003.7325	2772.7872	2164.65	1279.55
1003.8527	2773.9801	2173.05	1284.5
1003.9729	2775.1723	2170.75	1268.05
1004.093	2776.3639	2154.3	1266.9
1004.2131	2777.5548	2159.8	1270.9
1004.3331	2778.745	2157.55	1268.5
1004.4531	2779.9346	2163.7	1276.7
1004.5731	2781.1235	2162.4	1275.6
1004.693	2782.3117	2148.7	1263.5
1004.8129	2783.4992	2152.55	1265.05
1004.9328	2784.6861	2151.5	1262.85
1005.0526	2785.8723	2169.55	1282.3
1005.1723	2787.0579	2169.05	1282.15
1005.2921	2788.2428	2174.35	1288.8
1005.4118	2789.427	2173.55	1287.95
1005.5314	2790.6106	2177.8	1291.5
1005.651	2791.7935	2198.5	1310.35
1005.7706	2792.9757	2188.3	1301.7
1005.8902	2794.1573	2206.8	1318.15
1006.0097	2795.3382	2221.5	1335.05
1006.1291	2796.5184	2229.35	1345.25
1006.2485	2797.698	2243.2	1356.4
1006.3679	2798.8769	2260.15	1372.65
1006.4873	2800.0551	2268.25	1383.75
1006.6066	2801.2327	2273.25	1384.1
1006.7258	2802.4096	2288	1403.4
1006.8451	2803.5859	2318.55	1432.95
1006.9642	2804.7615	2327.2	1442.2
1007.0834	2805.9364	2351.3	1464.8
1007.2025	2807.1106	2378.7	1492.85
1007.3216	2808.2842	2415.05	1528.1
1007.4406	2809.4572	2438.25	1552.25
1007.5596	2810.6294	2481.25	1597.1
1007.6785	2811.801	2512.95	1628.7
1007.7975	2812.972	2547.1	1662.9
1007.9163	2814.1423	2594.4	1708.4
1008.0352	2815.3119	2647.35	1763.1
1008.154	2816.4808	2677.2	1793.3
1008.2727	2817.6491	2735.1	1848.75
1008.3914	2818.8167	2772.35	1888.4
1008.5101	2819.9837	2833.05	1941.65
1008.6288	2821.15	2866.3	1978.45
1008.7474	2822.3157	2920.3	2036.25
1008.8659	2823.4807	2955.9	2070.1
1008.9844	2824.645	2995.05	2110.35
1009.1029	2825.8086	3034.95	2149.45
1009.2214	2826.9716	3062.4	2177.45
1009.3398	2828.134	3113.6	2228.45
1009.4581	2829.2957	3138.2	2251.8
1009.5764	2830.4567	3173.1	2288.45
1009.6947	2831.617	3176.85	2289.2
1009.813	2832.7767	3188.75	2302.95
1009.9312	2833.9358	3197.9	2313.05
1010.0493	2835.0941	3190.65	2304.3
1010.1675	2836.2519	3175.9	2291.6
1010.2855	2837.4089	3170.75	2284.7
1010.4036	2838.5653	3162.8	2276.8
1010.5216	2839.7211	3150.3	2266.95
1010.6396	2840.8761	3164.45	2278.1
1010.7575	2842.0306	3177.05	2293.9
1010.8754	2843.1843	3222.6	2337.45
1010.9932	2844.3374	3264.8	2377.95
1011.111	2845.4899	3316.6	2428.1
1011.2288	2846.6417	3397.9	2513
1011.3465	2847.7928	3474.05	2589.05
1011.4642	2848.9433	3545.15	2661.55
1011.5818	2850.0931	3638.25	2755.65
1011.6995	2851.2422	3714	2827.15
1011.817	2852.3907	3786.9	2902.05
1011.9345	2853.5385	3852.2	2965.65
1012.052	2854.6857	3907.8	3014.5
1012.1695	2855.8323	3948.8	3063.85
1012.2869	2856.9781	3992.95	3108.2
1012.4042	2858.1233	4058	3174.05
1012.5216	2859.2679	4089.85	3205.85
1012.6389	2860.4118	4132	3245.2
1012.7561	2861.555	4185.5	3297.15
1012.8733	2862.6976	4211.05	3324.4
1012.9905	2863.8395	4221	3337.65
1013.1076	2864.9808	4247	3362.15
1013.2247	2866.1214	4267.1	3384.1
1013.3417	2867.2614	4285.9	3399.8
1013.4587	2868.4007	4292.25	3405.8
1013.5757	2869.5393	4287.95	3402.85
1013.6926	2870.6773	4310.2	3422.25
1013.8095	2871.8146	4332.55	3446.5
1013.9263	2872.9513	4333	3445.15
1014.0431	2874.0874	4303.4	3418.05
1014.1599	2875.2227	4289.35	3404.7
1014.2766	2876.3574	4272.5	3386.6
1014.3933	2877.4915	4265.9	3382
1014.51	2878.6249	4211.8	3327.65
1014.6266	2879.7577	4197.5	3311.3
1014.7431	2880.8898	4181.7	3286.85
1014.8596	2882.0212	4153.75	3269.65
1014.9761	2883.152	4136.95	3253.45
1015.0925	2884.2821	4140.05	3255.45
1015.2089	2885.4116	4121.3	3237.05
1015.3253	2886.5405	4107.65	3220.45
1015.4416	2887.6686	4109.5	3221.35
1015.5579	2888.7962	4138.05	3256.65
1015.6741	2889.923	4126.9	3245.95
1015.7903	2891.0493	4133.9	3251.75
1015.9065	2892.1748	4147.6	3264.3
1016.0226	2893.2997	4141.95	3256.2
1016.1387	2894.424	4171.2	3288.45
1016.2547	2895.5476	4191.35	3307.95
1016.3707	2896.6706	4204	3320.35
1016.4866	2897.7929	4226.45	3341
1016.6025	2898.9145	4274.35	3389.3
1016.7184	2900.0355	4293.95	3410.6
1016.8342	2901.1559	4321.3	3437.05
1016.95	2902.2756	4339.15	3455.1
1017.0658	2903.3946	4376.8	3491.35
1017.1815	2904.513	4412.75	3525.9
1017.2971	2905.6308	4420.5	3536.6
1017.4127	2906.7479	4452.15	3567.8
1017.5283	2907.8643	4477.4	3591.75
1017.6439	2908.9801	4480.35	3597.6
1017.7594	2910.0953	4476.1	3590.8
1017.8748	2911.2098	4471.15	3584.55
1017.9902	2912.3236	4477.3	3584.75
1018.1056	2913.4368	4451.55	3563.05
1018.2209	2914.5494	4433.15	3548.7
1018.3362	2915.6613	4411.05	3522
1018.4515	2916.7725	4375.9	3489.45
1018.5667	2917.8831	4339.6	3456.15
1018.6819	2918.9931	4304.45	3419.3
1018.797	2920.1024	4301.65	3414.1
1018.9121	2921.211	4264.25	3381.15
1019.0271	2922.319	4228.25	3343.25
1019.1421	2923.4264	4217.8	3333.65
1019.2571	2924.5331	4204.85	3321.15
1019.372	2925.6391	4207.7	3325
1019.4869	2926.7445	4182.1	3301.75
1019.6017	2927.8493	4176.5	3292.55
1019.7165	2928.9534	4165.3	3281.95
1019.8313	2930.0569	4137.3	3250.95
1019.946	2931.1597	4137.55	3253
1020.0606	2932.2619	4137.85	3253.65
1020.1753	2933.3634	4110.95	3226.9
1020.2899	2934.4643	4108.3	3217.9
1020.4044	2935.5645	4080	3189.25
1020.5189	2936.6641	4041.3	3153.95
1020.6334	2937.763	4002.2	3120.25
1020.7478	2938.8613	3960.5	3076.25
1020.8622	2939.959	3895.8	3007.2
1020.9765	2941.056	3823.85	2940.65
1021.0908	2942.1523	3718.2	2832.1
1021.2051	2943.248	3645.3	2759.9
1021.3193	2944.3431	3530.05	2647.6
1021.4334	2945.4375	3430.95	2546.8
1021.5476	2946.5313	3336.85	2453.05
1021.6617	2947.6244	3216.35	2333.85
1021.7757	2948.7169	3115.7	2232.35
1021.8897	2949.8087	3010.6	2128.9
1022.0037	2950.8999	2925.95	2041.75
1022.1176	2951.9904	2846.7	1965.05
1022.2315	2953.0803	2766.3	1881.1
1022.3453	2954.1696	2693.05	1809.45
1022.4591	2955.2582	2652.15	1769.3
1022.5728	2956.3462	2603.8	1721.35
1022.6865	2957.4335	2555.3	1671
1022.8002	2958.5202	2528.55	1646.75
1022.9138	2959.6062	2489.75	1606.35
1023.0274	2960.6916	2463.6	1580.65
1023.141	2961.7764	2456.8	1571.75
1023.2545	2962.8605	2419.4	1536.05
1023.3679	2963.9439	2411.95	1527.35
1023.4813	2965.0267	2401.35	1518.85
1023.5947	2966.1089	2421.05	1516.45
1023.708	2967.1905	2386.85	1504.7
1023.8213	2968.2714	2378.7	1495.85
1023.9346	2969.3516	2384.7	1503.7
1024.0478	2970.4312	2375.4	1483
1024.1609	2971.5102	2369.05	1487.75
1024.274	2972.5885	2369.05	1487.1
1024.3871	2973.6662	2375.6	1486.25
1024.5002	2974.7432	2368.65	1485.45
1024.6132	2975.8196	2355.95	1472.9
1024.7261	2976.8954	2340.55	1458.3
1024.839	2977.9705	2334.4	1452.1
1024.9519	2979.045	2323.2	1440.8
1025.0647	2980.1188	2305.05	1422.85
1025.1775	2981.192	2276.2	1394.95
1025.2902	2982.2645	2253.95	1371.7
1025.4029	2983.3364	2223.2	1340.5
1025.5156	2984.4077	2199	1316.45
1025.6282	2985.4783	2170.35	1283.25
1025.7407	2986.5483	2131.5	1249.05
1025.8532	2987.6177	2090.8	1209
1025.9657	2988.6864	2062.1	1178.9
1026.0782	2989.7545	2029.2	1145.55
1026.1906	2990.8219	2005.95	1122.15
1026.3029	2991.8887	1961.05	1076.65
1026.4152	2992.9548	1924.7	1042.55
1026.5275	2994.0204	1896.2	1015.55
1026.6397	2995.0852	1860	979.15
1026.7519	2996.1495	1840.1	955.65
1026.864	2997.2131	1821.25	940.85
1026.9761	2998.276	1792.05	906.2
1027.0882	2999.3383	1769.6	888.75
1027.2002	3000.4	1746.1	861.9
1027.3122	3001.4611	1727.9	845.9
1027.4241	3002.5215	1720.4	838.05
1027.536	3003.5812	1705.6	824.8
1027.6478	3004.6404	1695.45	812.55
1027.7596	3005.6989	1685.6	801.9
1027.8714	3006.7567	1673.55	791.1
1027.9831	3007.8139	1670.5	769.85
1028.0947	3008.8705	1653.6	770.55
1028.2064	3009.9264	1657	757.8
1028.3179	3010.9818	1635.75	753.2
1028.4295	3012.0364	1642	758.6
1028.541	3013.0905	1634.5	752.95
1028.6524	3014.1439	1624.25	739.45
1028.7638	3015.1966	1629.3	748.5
1028.8752	3016.2487	1619.2	737.35
1028.9865	3017.3002	1626.95	736.9
1029.0978	3018.3511	1631.3	748.1
1029.209	3019.4013	1628.7	747.65
1029.3202	3020.4509	1620.5	741.5
1029.4314	3021.4998	1627.45	742.45
1029.5425	3022.5481	1630.2	747.05
1029.6535	3023.5958	1619.9	738.15
1029.7645	3024.6428	1622.8	739.45
1029.8755	3025.6892	1629.6	749
1029.9864	3026.735	1620.65	737.3
1030.0973	3027.7802	1623.45	742.6
1030.2082	3028.8247	1632.1	750.15
1030.319	3029.8685	1625.4	744.1
1030.4297	3030.9118	1634.85	752.95
1030.5404	3031.9544	1636.6	756.25
1030.6511	3032.9963	1641.35	761.7
1030.7617	3034.0376	1631.2	748.85
1030.8723	3035.0783	1643.3	759.5
1030.9829	3036.1184	1650.6	767
1031.0934	3037.1578	1647.75	766.2
1031.2038	3038.1966	1646.9	764
1031.3142	3039.2348	1647.65	764.45
1031.4246	3040.2723	1658.6	768.6
1031.5349	3041.3092	1652.1	770.65
1031.6452	3042.3455	1637.4	756.3
1031.7554	3043.3811	1638.15	756
1031.8656	3044.4161	1628.5	746.95
1031.9758	3045.4505	1624.6	742.95
1032.0859	3046.4842	1624.75	742.55
1032.1959	3047.5173	1608.75	727.65
1032.3059	3048.5498	1610.55	728.65
1032.4159	3049.5816	1594.4	713.45
1032.5258	3050.6128	1591.2	708.2
1032.6357	3051.6434	1586.3	703.8
1032.7455	3052.6734	1572.05	689.75
1032.8553	3053.7027	1559.7	677.85
1032.9651	3054.7314	1564	683.65
1033.0748	3055.7594	1556.75	674.65
1033.1845	3056.7868	1540.55	658.45
1033.2941	3057.8136	1533.05	648.7
1033.4037	3058.8398	1530.5	648.95
1033.5132	3059.8653	1522.35	640.05
1033.6227	3060.8902	1525.55	643.8
1033.7321	3061.9145	1509.5	628.15
1033.8415	3062.9381	1503.7	622.7
1033.9509	3063.9612	1521.7	623.55
1034.0602	3064.9835	1493.15	609.75
1034.1694	3066.0053	1486.45	602.7
1034.2787	3067.0264	1478.05	596.45
1034.3878	3068.0469	1468.85	586.5
1034.497	3069.0668	1468	583.55
1034.6061	3070.086	1453.6	573.45
1034.7151	3071.1046	1445.3	562.5
1034.8241	3072.1226	1433.65	550.35
1034.9331	3073.1399	1423.2	541.45
1035.042	3074.1567	1421.1	539.8
1035.1508	3075.1727	1400.8	516.05
1035.2597	3076.1882	1387.8	505.15
1035.3684	3077.203	1381.95	502.8
1035.4772	3078.2173	1371.65	488.5
1035.5859	3079.2308	1364.55	480.5
1035.6945	3080.2438	1353.75	471.55
1035.8031	3081.2561	1342.1	461.15
1035.9117	3082.2678	1336.65	453.35
1036.0202	3083.2789	1327.05	444.4
1036.1286	3084.2893	1322.95	443.25
1036.2371	3085.2991	1323.1	442.25
1036.3454	3086.3083	1317.75	431.6
1036.4538	3087.3169	1308.2	425.05
1036.562	3088.3248	1304.8	422.6
1036.6703	3089.3321	1295.75	413.7
1036.7785	3090.3388	1293.65	413.45
1036.8866	3091.3449	1289.65	408.05
1036.9948	3092.3503	1280.45	395.1
1037.1028	3093.3551	1271.6	391.65
1037.2108	3094.3593	1271.7	391.85
1037.3188	3095.3629	1264.1	382.6
1037.4267	3096.3658	1267.95	385.1
1037.5346	3097.3681	1262.2	380.3
1037.6425	3098.3698	1257.8	377.85
1037.7503	3099.3708	1259.7	370.35
1037.858	3100.3713	1251.5	369.95
1037.9657	3101.3711	1244.05	362.05
1038.0734	3102.3702	1370.3	356.6
1038.181	3103.3688	1247.65	363.9
1038.2886	3104.3667	1235.9	357.4
1038.3961	3105.364	1231.55	351.05
1038.5036	3106.3607	1231.85	347.65
1038.611	3107.3568	1223.25	340.45
1038.7184	3108.3522	1220.85	341
1038.8257	3109.347	1223.25	341.45
1038.933	3110.3412	1226.95	343.45
1039.0403	3111.3348	1218.75	337.9
1039.1475	3112.3277	1209.75	328.3
1039.2547	3113.32	1211.15	332.25
1039.3618	3114.3117	1211.45	327.8
1039.4689	3115.3028	1207.1	325.3
1039.5759	3116.2932	1204.2	320.25
1039.6829	3117.2831	1205.6	317.8
1039.7898	3118.2723	1197.95	316.1
1039.8967	3119.2608	1195.1	315.8
1040.0035	3120.2488	1195.5	315.45
1040.1103	3121.2361	1194.35	313.1
1040.2171	3122.2229	1192.3	309.8
1040.3238	3123.209	1194.45	311.8
1040.4305	3124.1944	1187.7	307.7
1040.5371	3125.1793	1189.45	305.85
1040.6437	3126.1635	1187.15	306.95
1040.7502	3127.1471	1174.8	292.9
1040.8567	3128.1301	1183.9	303.65
1040.9631	3129.1125	1180.15	302.15
1041.0695	3130.0942	1175.15	293.8
1041.1759	3131.0753	1189.05	300.3
1041.2822	3132.0558	1177.35	291.65
1041.3884	3133.0357	1171.85	290.1
1041.4946	3134.015	1167.9	286.6
1041.6008	3134.9936	1167.7	284.5
1041.7069	3135.9716	1192.85	289.7
1041.813	3136.949	1163.75	285.6
1041.919	3137.9258	1182.75	285.2
1042.025	3138.902	1166.45	281.6
1042.1309	3139.8775	1159	277.8
1042.2368	3140.8524	1156	277.2
1042.3427	3141.8267	1159.3	276
1042.4485	3142.8004	1149.55	268.6
1042.5542	3143.7735	1161.8	272.85
1042.6599	3144.7459	1160.95	277.75
1042.7656	3145.7178	1152.05	270
1042.8712	3146.689	1139.5	261.3
1042.9768	3147.6596	1150.95	268.1
1043.0823	3148.6295	1148.35	268.45
1043.1878	3149.5989	1144.2	262.4
1043.2932	3150.5676	1139.05	259.1
1043.3986	3151.5357	1137.1	258
1043.5039	3152.5032	1141.2	260.85
1043.6092	3153.4701	1134.45	254.95
1043.7145	3154.4364	1132.25	250.25
1043.8197	3155.402	1131	250.55
1043.9248	3156.367	1133.05	249.95
1044.03	3157.3315	1152.65	245.95
1044.135	3158.2952	1128.15	247.75
1044.24	3159.2584	1126.1	246.85
1044.345	3160.221	1119.8	240.1
1044.4499	3161.1829	1117.9	235.95
1044.5548	3162.1442	1115.8	233.5
1044.6596	3163.105	1113.4	231.1
1044.7644	3164.065	1117.65	238.3
1044.8692	3165.0245	1117.8	232.15
1044.9739	3165.9834	1110.15	229.55
1045.0785	3166.9416	1115.15	234.75
1045.1831	3167.8993	1112.5	231.95
1045.2877	3168.8563	1108.05	226.7
1045.3922	3169.8127	1104.95	223.25
1045.4966	3170.7684	1102.9	224.25
1045.6011	3171.7236	1110.05	226.35
1045.7054	3172.6782	1103.55	223.2
1045.8098	3173.6321	1102.35	223.4
1045.914	3174.5854	1104.85	220.85
1046.0183	3175.5381	1097.05	216.45
1046.1224	3176.4902	1101.45	220.45
1046.2266	3177.4417	1093.85	213.65
1046.3307	3178.3926	1095.4	215.25
1046.4347	3179.3428	1094.55	216.65
1046.5387	3180.2924	1093.15	213.45
1046.6427	3181.2415	1091.35	211.15
1046.7466	3182.1899	1093.25	212.35
1046.8504	3183.1377	1092.45	213.65
1046.9542	3184.0848	1097.65	212.45
1047.058	3185.0314	1089.1	208
1047.1617	3185.9773	1089.25	206.95
1047.2654	3186.9227	1091.85	210.35
1047.369	3187.8674	1085.35	204.5
1047.4726	3188.8115	1089.4	203.75
1047.5761	3189.755	1087.8	209.1
1047.6796	3190.6979	1081.7	202.95
1047.783	3191.6402	1086.7	206.6
1047.8864	3192.5818	1079.6	199.35
1047.9898	3193.5229	1091.8	198.65
1048.0931	3194.4633	1076.9	197.35
1048.1963	3195.4031	1077.55	196.45
1048.2995	3196.3423	1078	195.1
1048.4027	3197.2809	1073.7	193.5
1048.5058	3198.2189	1076.75	195.5
1048.6089	3199.1563	1083.55	196.5
1048.7119	3200.0931	1069.8	190.05
1048.8148	3201.0292	1067.95	188.65
1048.9178	3201.9648	1067.15	187.2
1049.0206	3202.8997	1068.4	187.2
1049.1235	3203.834	1067.4	188.1
1049.2262	3204.7677	1067.4	188.5
1049.329	3205.7008	1065.95	182.45
1049.4317	3206.6333	1059.95	182.35
1049.5343	3207.5652	1066.15	184.8
1049.6369	3208.4964	1062.45	180.95
1049.7394	3209.4271	1064.1	185.55
1049.8419	3210.3571	1061.6	180.65
1049.9444	3211.2865	1061.75	179.95
1050.0468	3212.2154	1062.15	180
1050.1491	3213.1436	1063.15	181.25
1050.2514	3214.0712	1062.45	175.8
1050.3537	3214.9982	1053.6	172.85
1050.4559	3215.9246	1054.4	174.1
1050.5581	3216.8503	1052	173
1050.6602	3217.7755	1054.5	173.55
1050.7623	3218.7001	1055.4	175.6
1050.8643	3219.624	1052.55	171.55
1050.9663	3220.5473	1049.55	169.25
1051.0682	3221.4701	1050.1	167
1051.1701	3222.3922	1051.9	171.35
1051.2719	3223.3137	1048.95	170.35
1051.3737	3224.2346	1043.35	162.05
1051.4754	3225.1549	1045.35	166.45
1051.5771	3226.0746	1045.8	165.2
1051.6788	3226.9937	1041.7	160.05
1051.7804	3227.9121	1042.75	165.5
1051.8819	3228.83	1042.4	160.25
1051.9834	3229.7473	1042.55	163
1052.0849	3230.6639	1042.2	161.9
1052.1863	3231.5799	1040.65	161.05
1052.2876	3232.4954	1037.6	156.4
1052.3889	3233.4102	1040.65	161.5
1052.4902	3234.3244	1036.6	155.45
1052.5914	3235.238	1036.15	156.9
1052.6926	3236.151	1064.75	159.1
1052.7937	3237.0634	1032.9	155.2
1052.8948	3237.9752	1032.45	151.6
1052.9958	3238.8864	1035.95	155.4
1053.0968	3239.797	1034.15	153.4
1053.1977	3240.7069	1033.5	154.15
1053.2986	3241.6163	1029.05	148.75
1053.3994	3242.5251	1031.55	151.2
1053.5002	3243.4332	1027.25	147.25
1053.6009	3244.3408	1027.1	147.3
1053.7016	3245.2477	1026.7	147.2
1053.8022	3246.154	1028.55	147.2
1053.9028	3247.0598	1024.7	143.5
1054.0034	3247.9649	1022.15	141.2
1054.1039	3248.8694	1021.9	142.55
1054.2043	3249.7733	1025.2	145
1054.3047	3250.6766	1019.45	139.3
1054.4051	3251.5793	1019	138.7
1054.5054	3252.4814	1019.05	141.25
1054.6056	3253.3829	1017.5	136.55
1054.7058	3254.2838	1017.8	137.5
1054.806	3255.1841	1019.7	139.45
1054.9061	3256.0838	1014.85	135.9
1055.0061	3256.9829	1014.3	137.25
1055.1062	3257.8814	1010.15	132.05
1055.2061	3258.7792	1012.9	132.55
1055.306	3259.6765	1010.1	129.6
1055.4059	3260.5731	1011.1	132.35
1055.5057	3261.4692	1004.7	125.1
1055.6055	3262.3647	1004.85	125.1
1055.7052	3263.2595	1000.2	120.4
1055.8049	3264.1538	1000.45	118.75
1055.9045	3265.0474	1003	123.8
1056.0041	3265.9404	998.8	119.9
1056.1036	3266.8329	991.6	113.25
1056.2031	3267.7247	1005	114.1
1056.3025	3268.616	992.95	115.4
1056.4019	3269.5066	987.7	108
1056.5013	3270.3966	987.6	106.65
1056.6005	3271.286	982.85	103.25
