Software Version:	3.9.2.0
Unit SN:	10000200
Spectrometer SN:	6960
Date:	3/26/2024 1:16:29 PM
Data Line Index:	25
Spectral Points:	2048
Integration time (ms):	125
Averages:	20
Delay (ms):	30000
Sequence Number:	1
Processing:	dark subtract
Laser Power (mW):	305
Laser Current (mA):	818
Laser Diode Temp (C):	25.1
Laser Case Temp (C):	26.5
System Temp (C):	26.4
Spectrometer Temp (C):	24.1
CCD Temp (C):	0.005
Secondary Temp (C):	20.004
Heatsink Temp (C):	22.024
CCDPCB Temp (C):	35.951
SecondaryPCB Temp (C):	33.639

Wavelength	RamanShift	Raw Counts	Dark Subtracted
787.061	30.1047	428.45	19.4
787.2016	32.3739	429.9	20.35
787.3422	34.6426	428.65	20.3
787.4828	36.9109	433.6	21.65
787.6235	39.1787	439.5	24.2
787.7642	41.4461	441.4	21.3
787.9049	43.7131	447.15	24.55
788.0456	45.9796	452.55	26.55
788.1863	48.2456	457	27.35
788.3271	50.5112	464.15	29.35
788.4679	52.7764	466.25	29.25
788.6087	55.0411	471.35	30.8
788.7496	57.3054	478.65	32.15
788.8904	59.5692	484.6	38.95
789.0313	61.8326	489.7	38.8
789.1722	64.0955	495.9	41.45
789.3132	66.3579	506.3	46.05
789.4541	68.6199	515.7	52.3
789.5951	70.8815	525.25	57.35
789.7361	73.1426	550.45	81.6
789.8771	75.4032	609.8	135.15
790.0181	77.6634	740.3	260.85
790.1592	79.9231	1048.3	565.3
790.3003	82.1824	1720.1	1233.75
790.4414	84.4412	2858.1	2367.2
790.5825	86.6995	4433.7	3937.05
790.7237	88.9574	5996.6	5494.35
790.8648	91.2148	7183.45	6677.95
791.006	93.4717	7842.85	7331.7
791.1472	95.7282	8078.3	7565.55
791.2885	97.9842	8180.65	7665.3
791.4297	100.2398	8179.8	7663.5
791.571	102.4949	8171.5	7650.95
791.7123	104.7495	8160.9	7635.9
791.8536	107.0036	8117.55	7591.85
791.9949	109.2573	8085.1	7561.2
792.1363	111.5105	8049.6	7523.35
792.2777	113.7632	7975	7447.6
792.4191	116.0154	7945.65	7406.5
792.5605	118.2672	7896.15	7364.1
792.7019	120.5185	7823.5	7289.8
792.8434	122.7693	7784.35	7248.25
792.9849	125.0197	7734.85	7197.2
793.1264	127.2696	7685.95	7144.35
793.2679	129.519	7685.45	7139.85
793.4094	131.7679	7666.6	7117.6
793.551	134.0163	7651.75	7099
793.6926	136.2642	7649.1	7093.05
793.8342	138.5117	7657.5	7092.35
793.9758	140.7587	7629.85	7070.55
794.1175	143.0052	7611.25	7049.1
794.2591	145.2512	7564.35	7000.7
794.4008	147.4967	7521.25	6957.05
794.5425	149.7417	7478.9	6913.8
794.6842	151.9863	7457.4	6887.1
794.826	154.2304	7450.55	6876.65
794.9677	156.4739	7409.3	6830.3
795.1095	158.717	7413.75	6837
795.2513	160.9596	7417.7	6834.35
795.3931	163.2017	7419.75	6831.95
795.535	165.4433	7414.55	6827.95
795.6768	167.6844	7392.6	6803.6
795.8187	169.925	7395.1	6801.9
795.9606	172.1651	7320.9	6723.8
796.1025	174.4047	7295.1	6695.15
796.2445	176.6439	7274.45	6672.5
796.3864	178.8825	7240.55	6637.1
796.5284	181.1206	7205	6595.45
796.6704	183.3582	7213.65	6598.8
796.8124	185.5954	7203.45	6588.35
796.9544	187.832	7173.35	6554.8
797.0965	190.0681	7197.7	6578.3
797.2386	192.3037	7191.85	6568.3
797.3806	194.5388	7187.05	6560.5
797.5228	196.7734	7214.1	6584
797.6649	199.0075	7210.1	6575.9
797.807	201.2411	7239.75	6603.8
797.9492	203.4742	7246.1	6609.7
798.0914	205.7068	7277.05	6639
798.2336	207.9389	7256.95	6619.45
798.3758	210.1704	7286.7	6646.1
798.518	212.4015	7280.8	6637.5
798.6603	214.632	7284.85	6641.9
798.8025	216.862	7281.2	6645.55
798.9448	219.0915	7245.95	6616.05
799.0871	221.3205	7257.55	6630.85
799.2294	223.549	7276.85	6654.55
799.3718	225.777	7259.2	6636.9
799.5141	228.0044	7262.15	6634.35
799.6565	230.2314	7239.5	6615.8
799.7989	232.4578	7221.75	6597.7
799.9413	234.6837	7207.15	6573.4
800.0837	236.909	7228.1	6594.35
800.2262	239.1339	7223.1	6565.35
800.3687	241.3582	7177.4	6533.7
800.5111	243.582	7188.15	6511.9
800.6536	245.8053	7223.05	6558.95
800.7961	248.0281	7204.9	6545.75
800.9387	250.2503	7194.3	6530.9
801.0812	252.472	7203.1	6535.6
801.2238	254.6932	7210.7	6541.65
801.3664	256.9139	7200.55	6529.95
801.509	259.134	7175.9	6497.7
801.6516	261.3536	7176.1	6502.95
801.7942	263.5727	7183.35	6503.75
801.9369	265.7912	7189.15	6514.15
802.0795	268.0092	7238.05	6562.15
802.2222	270.2267	7268.75	6588.35
802.3649	272.4436	7282.7	6602.1
802.5076	274.6601	7317.85	6629.15
802.6504	276.8759	7290.05	6608.35
802.7931	279.0913	7316.6	6628.9
802.9359	281.3061	7318.3	6631.85
803.0787	283.5204	7345.25	6658.95
803.2215	285.7341	7345.75	6654.1
803.3643	287.9473	7364.4	6659.6
803.5071	290.16	7352.25	6652.1
803.6499	292.3721	7318.8	6625.05
803.7928	294.5837	7305.65	6609.45
803.9357	296.7947	7265.55	6569.4
804.0786	299.0052	7238.55	6542.65
804.2215	301.2152	7219.4	6521.7
804.3644	303.4246	7209.2	6511.6
804.5074	305.6334	7169.7	6474.2
804.6503	307.8418	7169.95	6471.95
804.7933	310.0495	7127.4	6426.45
804.9363	312.2568	7103.45	6404.75
805.0793	314.4635	7050.9	6347.65
805.2223	316.6696	7015.65	6312.35
805.3653	318.8752	6967.85	6254.4
805.5084	321.0802	6953.35	6248.8
805.6514	323.2847	6945.6	6239.1
805.7945	325.4887	6908.2	6199.65
805.9376	327.692	6914.65	6205.2
806.0807	329.8949	6930.95	6219.6
806.2238	332.0972	6936.55	6222.9
806.367	334.2989	6974.3	6259.6
806.5101	336.5001	6951.7	6234.8
806.6533	338.7007	6944.7	6226.1
806.7965	340.9008	6923.75	6205.15
806.9397	343.1003	6873.5	6151.1
807.0829	345.2992	6817.25	6093.9
807.2261	347.4976	6804.9	6080.85
807.3693	349.6955	6779.25	6049.75
807.5126	351.8927	6751.35	6021.75
807.6559	354.0895	6713.2	5975.1
807.7991	356.2856	6708.65	5980.4
807.9424	358.4812	6706.2	5977.4
808.0857	360.6763	6741.3	6009.6
808.2291	362.8707	6709.8	5978.7
808.3724	365.0646	6694.8	5958.3
808.5158	367.258	6687.9	5950.2
808.6591	369.4508	6672.8	5933.15
808.8025	371.643	6703.75	5964.3
808.9459	373.8346	6670.9	5929.65
809.0893	376.0257	6721.4	5973.75
809.2327	378.2162	6737.65	5989.85
809.3762	380.4062	6745.1	5996.7
809.5196	382.5956	6695.45	5944.9
809.6631	384.7844	6683.6	5936
809.8066	386.9726	6610.7	5858.6
809.9501	389.1603	6590.6	5839.4
810.0936	391.3474	6584.95	5799.85
810.2371	393.5339	6569.6	5817.35
810.3806	395.7199	6529.95	5784.2
810.5241	397.9052	6546.7	5802.5
810.6677	400.09	6551.35	5807.7
810.8113	402.2743	6562.75	5820.15
810.9548	404.4579	6583.1	5841.3
811.0984	406.641	6614.85	5869.75
811.2421	408.8235	6652.6	5908.2
811.3857	411.0054	6686	5938.1
811.5293	413.1868	6787.8	6038.65
811.673	415.3675	6875.7	6122.75
811.8166	417.5477	6887.35	6135.7
811.9603	419.7273	6822.2	6068.3
812.104	421.9064	6699.2	5935.9
812.2477	424.0848	6609.75	5850.45
812.3914	426.2627	6574.75	5815.4
812.5351	428.4399	6526.5	5764.65
812.6788	430.6166	6453.8	5685.8
812.8226	432.7928	6411.15	5642.8
812.9663	434.9683	6353.7	5585.2
813.1101	437.1432	6330.6	5558.45
813.2539	439.3176	6281.05	5512.4
813.3977	441.4914	6254.85	5484.25
813.5415	443.6645	6279.6	5506.95
813.6853	445.8371	6231.9	5459.95
813.8291	448.0091	6234.15	5461.25
813.973	450.1806	6213.3	5440.6
814.1168	452.3514	6193.35	5418.55
814.2607	454.5216	6180.55	5399.3
814.4046	456.6913	6176.3	5399.2
814.5485	458.8603	6153.05	5377.2
814.6924	461.0288	6156.35	5380.75
814.8363	463.1967	6154.6	5378
814.9802	465.3639	6149.25	5370.25
815.1241	467.5306	6135.3	5354.7
815.2681	469.6967	6114.55	5333.4
815.412	471.8622	6090.95	5311.05
815.556	474.0271	6084.15	5302.65
815.7	476.1914	6083.65	5298.35
815.844	478.3551	6067.65	5286.4
815.988	480.5182	6075.1	5290.1
816.132	482.6807	6094.6	5311.5
816.276	484.8426	6106.6	5325.15
816.4201	487.0039	6113.4	5328.1
816.5641	489.1647	6139.75	5353.35
816.7082	491.3248	6193.55	5408.9
816.8522	493.4843	6201.2	5414.55
816.9963	495.6432	6193.95	5409
817.1404	497.8015	6133.9	5345.4
817.2845	499.9592	6142.9	5354.65
817.4286	502.1163	6106.35	5317.2
817.5727	504.2728	6059.2	5267.75
817.7168	506.4287	6053.75	5265.55
817.861	508.5839	6018.2	5229.75
818.0051	510.7386	6021.95	5233.1
818.1493	512.8927	6022.9	5224.25
818.2935	515.0461	6011.05	5219.1
818.4377	517.199	6020.2	5228.15
818.5818	519.3512	6036.75	5243.25
818.726	521.5029	6058.05	5258.55
818.8703	523.6539	6123.8	5326.95
819.0145	525.8043	6112.95	5318.65
819.1587	527.9541	6096.3	5298.65
819.303	530.1033	6043.65	5246.6
819.4472	532.2519	6013.45	5215.25
819.5915	534.3999	5986.7	5189.2
819.7357	536.5472	5983.2	5181.6
819.88	538.694	5988.45	5187.85
820.0243	540.8401	5994.45	5193.25
820.1686	542.9856	6001.75	5198.85
820.3129	545.1305	5996.9	5194.4
820.4572	547.2748	6015	5212
820.6016	549.4185	6005	5199.15
820.7459	551.5615	6013.7	5210.85
820.8902	553.704	6036.1	5230.2
821.0346	555.8458	6012.9	5207.7
821.1789	557.987	6041.25	5236.9
821.3233	560.1276	6055.95	5247.9
821.4677	562.2675	6100.05	5295.05
821.6121	564.4069	6125.55	5318.25
821.7565	566.5456	6150.35	5347.5
821.9009	568.6837	6138.1	5331.9
822.0453	570.8212	6081.95	5276.15
822.1897	572.958	6028.1	5220.3
822.3342	575.0942	5995.15	5187.85
822.4786	577.2299	5975.7	5168.65
822.6231	579.3648	5930.6	5123.45
822.7675	581.4992	5892.1	5084.55
822.912	583.6329	5884.1	5078.1
823.0565	585.766	5872.25	5065.2
823.201	587.8985	5880	5071.65
823.3454	590.0304	5902.8	5078.65
823.4899	592.1616	5923.45	5111.6
823.6345	594.2922	5922.85	5111.25
823.779	596.4222	5893.85	5083.05
823.9235	598.5515	5854.95	5042.2
824.068	600.6802	5815.6	5003.65
824.2126	602.8083	5772.2	4959.15
824.3571	604.9358	5747.35	4930.9
824.5017	607.0626	5728.15	4910.6
824.6462	609.1888	5723.1	4905.4
824.7908	611.3144	5738.25	4919.65
824.9354	613.4393	5749.25	4932.05
825.08	615.5636	5782.55	4965.15
825.2246	617.6873	5830.65	5012.7
825.3692	619.8103	5846.5	5028.45
825.5138	621.9327	5857.4	5036.7
825.6584	624.0544	5831.6	5013.1
825.803	626.1756	5787	4967.55
825.9477	628.2961	5742.75	4922
826.0923	630.4159	5730.4	4910.3
826.237	632.5351	5706.9	4887.2
826.3816	634.6537	5704.45	4883.4
826.5263	636.7716	5704.85	4881.55
826.6709	638.8889	5699.25	4877
826.8156	641.0056	5706.95	4883.85
826.9603	643.1216	5691.05	4867.35
827.105	645.237	5737.75	4909.9
827.2497	647.3518	5678.7	4854.9
827.3944	649.4659	5679.7	4855.95
827.5391	651.5793	5650.45	4826.9
827.6838	653.6922	5639.05	4815
827.8285	655.8043	5627.25	4803.75
827.9733	657.9159	5614.8	4789.65
828.118	660.0268	5607.75	4779.6
828.2627	662.137	5593.25	4765.15
828.4075	664.2466	5585.9	4757.25
828.5522	666.3556	5579.2	4752.65
828.697	668.4639	5565.6	4735.55
828.8418	670.5716	5552.2	4725.7
828.9865	672.6786	5579.2	4751
829.1313	674.785	5536.8	4705.85
829.2761	676.8907	5529.2	4699.2
829.4209	678.9958	5530	4702.9
829.5657	681.1002	5520.1	4688.5
829.7105	683.204	5519.5	4685.8
829.8553	685.3072	5511.75	4678.15
830.0001	687.4097	5494.35	4662.45
830.1449	689.5115	5507.9	4673.1
830.2898	691.6127	5515.55	4683.25
830.4346	693.7132	5484.8	4652.45
830.5794	695.8131	5497.1	4650.85
830.7243	697.9123	5488.1	4653.6
830.8691	700.0109	5497.3	4663.8
831.014	702.1089	5494	4659.3
831.1588	704.2061	5475.6	4640.4
831.3037	706.3028	5499.85	4662.75
831.4486	708.3987	5531.6	4696.5
831.5935	710.4941	5521.55	4686.75
831.7383	712.5887	5527.2	4690.45
831.8832	714.6827	5534.9	4694.15
832.0281	716.7761	5525.7	4689.7
832.173	718.8688	5517	4681.55
832.3179	720.9608	5525.35	4684.8
832.4628	723.0522	5522.4	4683.95
832.6077	725.1429	5506.4	4670.05
832.7527	727.233	5539.65	4702.5
832.8976	729.3224	5578.7	4739.6
833.0425	731.4112	5619.5	4779.25
833.1874	733.4993	5642.25	4803.3
833.3324	735.5867	5589.55	4749.7
833.4773	737.6735	5529.5	4688.3
833.6222	739.7596	5487.7	4645.85
833.7672	741.845	5475.3	4634.95
833.9122	743.9298	5461.9	4617.05
834.0571	746.014	5471.9	4628.55
834.2021	748.0974	5493.55	4650.45
834.347	750.1802	5481.55	4640.2
834.492	752.2624	5467.6	4624.7
834.637	754.3439	5428.4	4584.1
834.782	756.4247	5416.85	4565.4
834.9269	758.5048	5379.6	4536.4
835.0719	760.5843	5365.7	4521.15
835.2169	762.6631	5369.45	4525.35
835.3619	764.7413	5404.3	4562.35
835.5069	766.8188	5455.3	4609.85
835.6519	768.8956	5466.85	4619.45
835.7969	770.9718	5508.15	4664.8
835.9419	773.0473	5503.35	4657.4
836.0869	775.1221	5481.05	4636.1
836.232	777.1962	5455.95	4609.25
836.377	779.2697	5468.35	4622.05
836.522	781.3426	5545.8	4681.7
836.667	783.4147	5583.05	4734.25
836.8121	785.4862	5584.3	4739.75
836.9571	787.557	5525.4	4678.35
837.1021	789.6271	5404.05	4554.75
837.2472	791.6966	5323.55	4474.8
837.3922	793.7654	5244.6	4394.3
837.5373	795.8335	5199.1	4350.4
837.6823	797.901	5167.8	4320.25
837.8274	799.9678	5158	4306.85
837.9724	802.0339	5151.9	4304.9
838.1175	804.0993	5159.85	4301.55
838.2626	806.1641	5139.7	4287
838.4076	808.2282	5109.05	4258.7
838.5527	810.2916	5100.6	4248.6
838.6978	812.3544	5069.6	4221.1
838.8428	814.4164	5058.05	4209.7
838.9879	816.4778	5067.9	4218.65
839.133	818.5385	5077.85	4229.6
839.2781	820.5986	5089.15	4238.1
839.4232	822.658	5119	4265.85
839.5682	824.7166	5128.95	4277.45
839.7133	826.7747	5188.6	4338.2
839.8584	828.832	5238.55	4388.75
840.0035	830.8886	5257.85	4403.55
840.1486	832.9446	5288.7	4436
840.2937	834.9999	5245.1	4396.2
840.4388	837.0545	5207.45	4349.95
840.5839	839.1085	5159.05	4303.95
840.729	841.1618	5112.85	4255.8
840.8741	843.2143	5040.1	4187.65
841.0192	845.2662	4999.65	4147.9
841.1643	847.3175	4977	4123.3
841.3095	849.368	4956.6	4103.9
841.4546	851.4179	4967.6	4113.4
841.5997	853.467	4936.75	4081.8
841.7448	855.5155	4942.9	4087.85
841.8899	857.5633	4933.7	4078.6
842.0351	859.6105	4929	4073.25
842.1802	861.6569	4908.45	4055.35
842.3253	863.7027	4895.3	4040.85
842.4704	865.7478	4879.75	4024.3
842.6156	867.7922	4889.05	4034.05
842.7607	869.8359	4835.35	3980.4
842.9058	871.8789	4846.25	3992.05
843.0509	873.9212	4872.6	3985.95
843.1961	875.9629	4826.35	3969.25
843.3412	878.0039	4826.4	3968.55
843.4863	880.0441	4829.2	3972.9
843.6315	882.0837	4833.5	3973.6
843.7766	884.1226	4849.25	3989.75
843.9218	886.1609	4840.8	3984.15
844.0669	888.1984	4898.4	4039.8
844.212	890.2352	4925.8	4070.85
844.3572	892.2714	4917.75	4056.65
844.5023	894.3069	4933.15	4073.3
844.6475	896.3416	4857.85	4000.25
844.7926	898.3757	4828.8	3970.4
844.9377	900.4091	4814.15	3955.45
845.0829	902.4418	4786.3	3922.6
845.228	904.4739	4767.55	3906.9
845.3732	906.5052	4785.45	3924.95
845.5183	908.5358	4783.2	3923.25
845.6635	910.5658	4757.15	3895.8
845.8086	912.595	4742.1	3882.8
845.9538	914.6236	4708.9	3851.05
846.0989	916.6515	4673.25	3814.15
846.2441	918.6786	4649.55	3787.7
846.3892	920.7051	4650	3787.45
846.5344	922.7309	4632.8	3771.05
846.6795	924.756	4611.25	3749.7
846.8246	926.7804	4611.7	3747.4
846.9698	928.8041	4589.2	3725
847.1149	930.8272	4600.4	3738.7
847.2601	932.8495	4585.6	3724.4
847.4052	934.8711	4596.7	3735.05
847.5504	936.892	4567.15	3706.35
847.6955	938.9123	4572.2	3708.05
847.8407	940.9318	4581.4	3716.55
847.9858	942.9506	4583.25	3721
848.131	944.9688	4580.35	3717.75
848.2761	946.9862	4551.15	3686.85
848.4213	949.003	4502.25	3638.65
848.5664	951.019	4477.25	3611.3
848.7115	953.0344	4451.35	3585.35
848.8567	955.0491	4457.95	3594.6
849.0018	957.063	4444.7	3583.35
849.147	959.0763	4430.6	3560.7
849.2921	961.0888	4417.8	3551.8
849.4373	963.1007	4404.25	3539.55
849.5824	965.1119	4406.4	3544.35
849.7275	967.1223	4380	3517.6
849.8727	969.1321	4365.85	3504.45
850.0178	971.1412	4353.65	3491.45
850.1629	973.1495	4350.5	3486.15
850.3081	975.1572	4370.5	3473.65
850.4532	977.1641	4342.1	3478.55
850.5983	979.1704	4329.1	3464.25
850.7435	981.1759	4321.05	3451.35
850.8886	983.1808	4299.4	3432.15
851.0337	985.1849	4273.8	3395.45
851.1788	987.1884	4266.95	3398.85
851.324	989.1911	4271.2	3400.45
851.4691	991.1932	4253.55	3386.55
851.6142	993.1945	4234.35	3369.6
851.7593	995.1951	4238.35	3373.2
851.9045	997.1951	4225.6	3354.2
852.0496	999.1943	4201.85	3336.4
852.1947	1001.1928	4193.2	3326.75
852.3398	1003.1906	4167.3	3300.15
852.4849	1005.1877	4184.75	3317.2
852.63	1007.1841	4190.7	3323.1
852.7751	1009.1798	4192	3325.5
852.9202	1011.1748	4181.75	3315.05
853.0653	1013.1691	4144.45	3276.85
853.2104	1015.1627	4115.6	3248.2
853.3555	1017.1556	4071.45	3204.55
853.5006	1019.1477	4054.3	3185.6
853.6457	1021.1392	4027.85	3162.25
853.7908	1023.1299	3997.55	3131.45
853.9359	1025.12	3993.55	3124.35
854.081	1027.1093	3988.55	3122.95
854.2261	1029.0979	3961.25	3096.35
854.3712	1031.0859	3976.15	3109.65
854.5163	1033.0731	3975.75	3106.65
854.6613	1035.0596	3967	3100
854.8064	1037.0454	3962.25	3092.65
854.9515	1039.0304	3919.35	3048.75
855.0965	1041.0148	3892.9	3025.65
855.2416	1042.9985	3869	2998
855.3867	1044.9814	3862.2	2995
855.5317	1046.9636	3841.15	2968.2
855.6768	1048.9452	3830.7	2963.15
855.8219	1050.926	3820.8	2953.3
855.9669	1052.9061	3833.65	2966.85
856.112	1054.8855	3839.2	2970.4
856.257	1056.8642	3819.25	2949.8
856.4021	1058.8421	3816.65	2942.9
856.5471	1060.8194	3801.6	2931.6
856.6921	1062.7959	3794.55	2923.65
856.8372	1064.7717	3778.75	2906
856.9822	1066.7469	3774.7	2903.7
857.1272	1068.7213	3756.35	2883.15
857.2723	1070.695	3771.15	2901.3
857.4173	1072.6679	3765.25	2894.3
857.5623	1074.6402	3787.35	2918.5
857.7073	1076.6117	3775.3	2899.35
857.8523	1078.5826	3763.6	2891.5
857.9973	1080.5527	3728.95	2856.3
858.1423	1082.5221	3700.1	2827.1
858.2873	1084.4908	3659.85	2787.65
858.4323	1086.4587	3635.45	2763.05
858.5773	1088.426	3620.5	2747.1
858.7223	1090.3925	3622.2	2742.9
858.8673	1092.3584	3610.4	2741.55
859.0123	1094.3235	3609.6	2739.9
859.1573	1096.2879	3602.05	2731.3
859.3022	1098.2515	3606.75	2734.4
859.4472	1100.2145	3619.25	2747.2
859.5922	1102.1767	3625.6	2752.1
859.7371	1104.1382	3639.2	2769.05
859.8821	1106.099	3694.05	2820.75
860.027	1108.0591	3702.1	2831.7
860.172	1110.0185	3728.65	2852.9
860.3169	1111.9771	3742.8	2872.2
860.4619	1113.9351	3760.1	2885.75
860.6068	1115.8923	3792.1	2919.4
860.7517	1117.8488	3809.3	2933.7
860.8967	1119.8045	3762.25	2889.2
861.0416	1121.7596	3696.4	2824.35
861.1865	1123.7139	3629.9	2756.25
861.3314	1125.6675	3581.7	2708.45
861.4763	1127.6204	3559.1	2687.65
861.6212	1129.5726	3568.15	2693.35
861.7661	1131.524	3568.65	2696.2
861.911	1133.4748	3539.8	2665.55
862.0559	1135.4248	3483.25	2609.6
862.2008	1137.3741	3452.05	2579.7
862.3457	1139.3226	3418.3	2541.9
862.4905	1141.2705	3411.75	2539
862.6354	1143.2176	3396.5	2516.85
862.7803	1145.164	3392.8	2517.15
862.9251	1147.1097	3391.05	2516.9
863.07	1149.0546	3391.55	2515.95
863.2148	1150.9989	3351.2	2478.4
863.3597	1152.9424	3334.8	2459.3
863.5045	1154.8852	3303	2427.85
863.6493	1156.8272	3305	2431.05
863.7942	1158.7686	3303.2	2422.65
863.939	1160.7092	3310.2	2435.9
864.0838	1162.6491	3288.45	2409.8
864.2286	1164.5883	3283.2	2408.25
864.3734	1166.5267	3282.1	2405.7
864.5182	1168.4644	3294.85	2419.75
864.663	1170.4014	3298.35	2418.2
864.8078	1172.3377	3322.75	2450.25
864.9526	1174.2732	3345.85	2469.45
865.0974	1176.2081	3412.45	2537.8
865.2421	1178.1421	3482.3	2601.2
865.3869	1180.0755	3564.95	2690.7
865.5317	1182.0082	3610.65	2737.1
865.6764	1183.9401	3591.6	2716.4
865.8212	1185.8713	3528.3	2653.5
865.9659	1187.8017	3432.3	2555.45
866.1106	1189.7315	3355.7	2481.65
866.2554	1191.6605	3279.25	2403.9
866.4001	1193.5888	3240.4	2365.15
866.5448	1195.5163	3209.95	2333.95
866.6895	1197.4432	3190.8	2312.65
866.8342	1199.3693	3172.45	2297.45
866.9789	1201.2947	3154.95	2275.1
867.1236	1203.2193	3109.45	2233.65
867.2683	1205.1432	3115.95	2240.15
867.413	1207.0664	3110.45	2232.75
867.5576	1208.9889	3097.05	2216.65
867.7023	1210.9106	3088.3	2214.75
867.847	1212.8316	3069.65	2194.85
867.9916	1214.7519	3098.6	2214.95
868.1363	1216.6715	3089.8	2215
868.2809	1218.5903	3086	2209.8
868.4255	1220.5084	3092	2215.55
868.5701	1222.4257	3095.6	2217.05
868.7148	1224.3424	3080.3	2203.9
868.8594	1226.2583	3096.2	2211.35
869.004	1228.1735	3111.65	2235.25
869.1486	1230.0879	3121.05	2243.85
869.2932	1232.0016	3140.75	2264.35
869.4377	1233.9146	3149.1	2270.75
869.5823	1235.8269	3158	2280.95
869.7269	1237.7384	3169.65	2294.3
869.8715	1239.6492	3153.65	2276.25
870.016	1241.5592	3161.65	2283.05
870.1606	1243.4686	3187.55	2309.55
870.3051	1245.3772	3212.2	2334.3
870.4496	1247.285	3265.8	2386.85
870.5941	1249.1922	3308.1	2431.2
870.7387	1251.0986	3373.1	2497.05
870.8832	1253.0042	3405.2	2526
871.0277	1254.9092	3457.75	2581.25
871.1722	1256.8134	3508.85	2632.25
871.3167	1258.7169	3577.55	2699.6
871.4611	1260.6196	3623.5	2747.15
871.6056	1262.5216	3628.5	2747
871.7501	1264.4229	3619.45	2742.05
871.8945	1266.3234	3593.35	2714.05
872.039	1268.2232	3537.35	2661.4
872.1834	1270.1223	3497.2	2616.55
872.3278	1272.0207	3476.35	2598.15
872.4723	1273.9183	3463.7	2580.2
872.6167	1275.8151	3444.2	2566.4
872.7611	1277.7113	3470.95	2589.45
872.9055	1279.6067	3521.05	2645.45
873.0499	1281.5014	3608.25	2727.5
873.1943	1283.3953	3728.6	2848.15
873.3386	1285.2885	3861.55	2984.4
873.483	1287.181	3972.9	3092.65
873.6274	1289.0727	4019.9	3141.3
873.7717	1290.9637	3979.7	3098.65
873.9161	1292.854	3913.65	3035.45
874.0604	1294.7435	3821.95	2940.8
874.2047	1296.6323	3728.05	2848.65
874.349	1298.5204	3651.25	2770.05
874.4933	1300.4077	3589.1	2707.85
874.6376	1302.2943	3541.75	2664.15
874.7819	1304.1802	3517.7	2639.65
874.9262	1306.0653	3488	2604.4
875.0705	1307.9497	3464.95	2584.9
875.2147	1309.8333	3446.85	2565.35
875.359	1311.7162	3406.15	2527.55
875.5032	1313.5984	3382	2500.05
875.6475	1315.4798	3382.1	2490.2
875.7917	1317.3605	3362.35	2476.55
875.9359	1319.2405	3360	2480.05
876.0801	1321.1197	3344.1	2462.2
876.2243	1322.9982	3317.7	2433.15
876.3685	1324.876	3275.1	2395.6
876.5127	1326.753	3198.85	2319.65
876.6569	1328.6293	3137.95	2256.35
876.801	1330.5048	3070.95	2191.4
876.9452	1332.3796	3012.8	2133.35
877.0893	1334.2537	2988	2084.2
877.2335	1336.127	2930.65	2051.8
877.3776	1337.9996	2900.55	2021.75
877.5217	1339.8714	2866.05	1985.9
877.6658	1341.7426	2904.6	1982
877.8099	1343.6129	2856.25	1974.75
877.954	1345.4826	2828.7	1947.65
878.0981	1347.3515	2826.9	1944.9
878.2422	1349.2196	2799.85	1918.95
878.3862	1351.087	2796.5	1916
878.5303	1352.9537	2795.8	1915.6
878.6743	1354.8197	2791.95	1912.45
878.8184	1356.6849	2795.75	1916.5
878.9624	1358.5493	2798.85	1918.25
879.1064	1360.4131	2809.4	1930.7
879.2504	1362.276	2823.35	1944.05
879.3944	1364.1383	2834.85	1955.85
879.5384	1365.9998	2854.95	1967.75
879.6823	1367.8606	2846.85	1965.65
879.8263	1369.7206	2835.7	1955.3
879.9702	1371.5799	2836.85	1955.3
880.1142	1373.4384	2825.3	1944.1
880.2581	1375.2962	2817.25	1933.7
880.402	1377.1533	2763.3	1884.75
880.5459	1379.0096	2712.4	1829.8
880.6898	1380.8652	2689.35	1809.85
880.8337	1382.7201	2682.25	1803.25
880.9776	1384.5742	2655.2	1773.45
881.1215	1386.4275	2617.25	1735.2
881.2653	1388.2802	2596.25	1717.2
881.4092	1390.132	2586.25	1705.15
881.553	1391.9832	2572	1689.45
881.6968	1393.8336	2561.9	1680.5
881.8406	1395.6832	2548.2	1664.3
881.9844	1397.5322	2545.5	1664.9
882.1282	1399.3803	2528.15	1641.65
882.272	1401.2278	2504.2	1623.25
882.4158	1403.0745	2511.65	1630.3
882.5595	1404.9204	2496.85	1617.5
882.7033	1406.7656	2489.85	1609.7
882.847	1408.6101	2480.5	1599.1
882.9908	1410.4538	2467.3	1586.7
883.1345	1412.2968	2457.2	1574.25
883.2782	1414.139	2461	1578.3
883.4219	1415.9805	2451.3	1570.6
883.5656	1417.8213	2491.65	1589.85
883.7092	1419.6613	2473.2	1593.95
883.8529	1421.5006	2490.15	1607.75
883.9965	1423.3391	2505.05	1622.5
884.1402	1425.1769	2534.65	1652.8
884.2838	1427.0139	2575	1693.85
884.4274	1428.8502	2624.8	1743.6
884.571	1430.6858	2672.8	1790.4
884.7146	1432.5206	2689.15	1806.65
884.8582	1434.3547	2691.45	1807.7
885.0018	1436.188	2665.15	1783.15
885.1453	1438.0206	2659.2	1777.6
885.2889	1439.8524	2646.6	1765.8
885.4324	1441.6835	2651.15	1768.3
885.5759	1443.5139	2638.05	1752.85
885.7194	1445.3435	2631.55	1747.85
885.8629	1447.1724	2638.95	1758.7
886.0064	1449.0005	2620.15	1737.3
886.1499	1450.8279	2620.8	1737.2
886.2933	1452.6545	2610.1	1729.15
886.4368	1454.4804	2603.3	1722.85
886.5802	1456.3056	2601.55	1713.05
886.7237	1458.13	2588.2	1707.1
886.8671	1459.9536	2572.85	1690.85
887.0105	1461.7766	2542	1660.7
887.1539	1463.5987	2512.05	1630
887.2972	1465.4202	2485.3	1602.95
887.4406	1467.2409	2446.7	1563.95
887.584	1469.0608	2419.25	1537.1
887.7273	1470.88	2390.7	1508
887.8706	1472.6984	2377.45	1495.6
888.0139	1474.5161	2355.95	1471.3
888.1572	1476.3331	2341.4	1460.95
888.3005	1478.1493	2319.85	1438.1
888.4438	1479.9648	2319.05	1437
888.5871	1481.7795	2323.05	1441.55
888.7303	1483.5935	2313.5	1430.5
888.8736	1485.4067	2300.6	1418.7
889.0168	1487.2192	2302.4	1419.55
889.16	1489.031	2307.2	1423.9
889.3032	1490.842	2293.6	1411
889.4464	1492.6522	2305.8	1422.6
889.5896	1494.4618	2299.65	1416.85
889.7327	1496.2705	2283.45	1401.8
889.8759	1498.0785	2281.25	1399.25
890.019	1499.8858	2275.65	1394.1
890.1622	1501.6924	2256.2	1374.95
890.3053	1503.4981	2252.25	1368.9
890.4484	1505.3032	2252.65	1370.4
890.5914	1507.1075	2255.4	1372.5
890.7345	1508.911	2235.45	1353.4
890.8776	1510.7138	2235.45	1353.55
891.0206	1512.5159	2210.65	1328.5
891.1637	1514.3172	2205.25	1323.4
891.3067	1516.1178	2203.4	1322.3
891.4497	1517.9176	2206.7	1321.4
891.5927	1519.7166	2183.75	1303.35
891.7357	1521.515	2187.8	1300
891.8786	1523.3126	2164	1279.2
892.0216	1525.1094	2163.7	1280.05
892.1645	1526.9055	2139.45	1257.5
892.3074	1528.7008	2140	1256.45
892.4503	1530.4954	2134.9	1251.5
892.5932	1532.2893	2135.4	1254.75
892.7361	1534.0824	2128.25	1242.25
892.879	1535.8747	2120.45	1238.95
893.0218	1537.6663	2117.65	1236.25
893.1647	1539.4572	2107	1223.5
893.3075	1541.2473	2096.4	1213.4
893.4503	1543.0367	2088.7	1205.8
893.5931	1544.8253	2091.95	1204.85
893.7359	1546.6132	2096.6	1212.15
893.8787	1548.4003	2099.95	1207.1
894.0214	1550.1867	2117	1225.05
894.1642	1551.9723	2101.3	1213.2
894.3069	1553.7572	2108	1225.8
894.4496	1555.5414	2102.35	1219.35
894.5923	1557.3247	2119.35	1235.9
894.735	1559.1074	2135.55	1253.85
894.8777	1560.8893	2162.2	1280.5
895.0204	1562.6705	2181.9	1298.55
895.163	1564.4509	2208.8	1326.95
895.3056	1566.2305	2210.35	1326.5
895.4482	1568.0094	2218.5	1337.15
895.5908	1569.7876	2211.15	1329.25
895.7334	1571.565	2202.6	1319.2
895.876	1573.3417	2200.1	1319.35
896.0186	1575.1176	2194.95	1312.35
896.1611	1576.8928	2206.5	1325.25
896.3036	1578.6672	2211.65	1330.2
896.4461	1580.4409	2233.55	1352.2
896.5886	1582.2138	2252	1368.2
896.7311	1583.986	2280.9	1398.65
896.8736	1585.7575	2306	1426.05
897.0161	1587.5282	2322.4	1441.5
897.1585	1589.2981	2349.85	1469.3
897.3009	1591.0673	2352.95	1472.25
897.4433	1592.8358	2348.4	1466.1
897.5857	1594.6035	2365.6	1481.8
897.7281	1596.3704	2349.3	1464.8
897.8705	1598.1366	2323.7	1440.6
898.0128	1599.9021	2292.9	1411.85
898.1551	1601.6668	2279.35	1396.15
898.2975	1603.4308	2264	1379.9
898.4398	1605.194	2253.55	1366.05
898.5821	1606.9564	2253.75	1371.7
898.7243	1608.7182	2304.3	1417.35
898.8666	1610.4791	2349.15	1465.05
899.0088	1612.2394	2425.9	1544.65
899.1511	1613.9988	2490.05	1609.05
899.2933	1615.7576	2551.15	1670.1
899.4355	1617.5156	2586.4	1698.9
899.5776	1619.2728	2568.65	1686.8
899.7198	1621.0293	2523.4	1641
899.862	1622.785	2426.85	1542.05
900.0041	1624.54	2346.9	1462.55
900.1462	1626.2942	2240.7	1356.1
900.2883	1628.0477	2169.2	1283.8
900.4304	1629.8005	2088.6	1202.6
900.5725	1631.5525	2032.75	1151
900.7145	1633.3037	1993.85	1110.55
900.8566	1635.0542	1950.55	1070.1
900.9986	1636.804	1931.75	1048.7
901.1406	1638.553	1954.55	1023.05
901.2826	1640.3013	1885.8	1004.8
901.4245	1642.0488	1883.15	998.6
901.5665	1643.7955	1856.1	973.85
901.7085	1645.5416	1845.45	961.4
901.8504	1647.2868	1827.9	946
901.9923	1649.0313	1831	948.3
902.1342	1650.7751	1817	931.8
902.2761	1652.5181	1808.15	925.55
902.4179	1654.2604	1801.3	919.3
902.5598	1656.0019	1798.05	915.95
902.7016	1657.7427	1805.3	923.95
902.8434	1659.4828	1818.4	936.9
902.9852	1661.222	1842.1	959
903.127	1662.9606	1870.8	987.35
903.2687	1664.6984	1896.25	1015.05
903.4105	1666.4354	1890.4	1007.45
903.5522	1668.1717	1876.2	994.4
903.6939	1669.9072	1849.65	966.3
903.8356	1671.642	1814.85	930.6
903.9773	1673.3761	1783.8	903.45
904.119	1675.1094	1757.3	875.1
904.2606	1676.8419	1736	853.8
904.4022	1678.5737	1713.95	832
904.5439	1680.3048	1693.45	812
904.6855	1682.0351	1688.6	807.95
904.827	1683.7646	1691.25	806.1
904.9686	1685.4934	1680	800.1
905.1101	1687.2215	1674.4	789.85
905.2517	1688.9488	1663.8	780.7
905.3932	1690.6754	1661.4	778
905.5347	1692.4012	1654.65	772.75
905.6761	1694.1263	1655.1	773.2
905.8176	1695.8506	1657.95	775.7
905.9591	1697.5742	1642.35	761.75
906.1005	1699.297	1643.75	761.2
906.2419	1701.0191	1629.2	748
906.3833	1702.7404	1623.95	740.8
906.5246	1704.461	1618.35	735.05
906.666	1706.1808	1621.6	737.7
906.8073	1707.8999	1615.5	731.75
906.9487	1709.6182	1614.6	733.05
907.09	1711.3358	1604.25	721.85
907.2313	1713.0527	1597.45	717.05
907.3725	1714.7688	1604.5	715.55
907.5138	1716.4841	1597.55	713.6
907.655	1718.1987	1595.85	707.95
907.7962	1719.9126	1588.9	707
907.9374	1721.6257	1587.9	702.4
908.0786	1723.338	1578.2	693.65
908.2198	1725.0496	1580	697.5
908.3609	1726.7605	1579.75	696.65
908.502	1728.4706	1573.25	688.15
908.6431	1730.18	1569.5	682.4
908.7842	1731.8886	1575.95	695
908.9253	1733.5964	1584.2	695.05
909.0664	1735.3036	1576.75	690.9
909.2074	1737.0099	1572.6	690.15
909.3484	1738.7156	1570.65	691.3
909.4894	1740.4204	1573.95	688.35
909.6304	1742.1246	1567.25	683.4
909.7714	1743.8279	1559.6	676.65
909.9123	1745.5306	1565.45	682.05
910.0532	1747.2325	1558	674.45
910.1941	1748.9336	1552.85	672.95
910.335	1750.634	1558.05	672.7
910.4759	1752.3336	1552.45	668.95
910.6168	1754.0325	1549.85	668.9
910.7576	1755.7307	1546.3	665.65
910.8984	1757.4281	1557.25	674
911.0392	1759.1247	1556.95	665.85
911.18	1760.8206	1551.9	663.5
911.3208	1762.5158	1556.45	671.2
911.4615	1764.2102	1547.5	664.75
911.6022	1765.9039	1536.9	652.6
911.7429	1767.5968	1535.25	651.8
911.8836	1769.289	1536.05	653.25
912.0243	1770.9804	1534.75	653
912.1649	1772.6711	1532.9	649.35
912.3056	1774.361	1534.65	650.5
912.4462	1776.0502	1532.55	649.2
912.5868	1777.7386	1524.25	637.15
912.7274	1779.4263	1529.85	647
912.8679	1781.1132	1530.4	647.8
913.0084	1782.7994	1526.95	642.6
913.149	1784.4849	1518	634.9
913.2895	1786.1696	1524.5	633.25
913.4299	1787.8535	1512.45	629.4
913.5704	1789.5367	1521.9	639.85
913.7108	1791.2192	1517.55	635
913.8513	1792.9009	1536.6	627.2
913.9917	1794.5818	1513.95	628.55
914.132	1796.2621	1507.25	625.6
914.2724	1797.9415	1506.85	624.7
914.4128	1799.6202	1498.35	616.45
914.5531	1801.2982	1500.15	617.9
914.6934	1802.9755	1503.35	621.1
914.8337	1804.6519	1496.95	612.9
914.9739	1806.3277	1496.4	613.05
915.1142	1808.0027	1494.75	611.55
915.2544	1809.6769	1490.6	607.15
915.3946	1811.3504	1490.95	606.2
915.5348	1813.0231	1492.55	608.65
915.675	1814.6951	1489.85	605.85
915.8151	1816.3664	1487.35	601.7
915.9553	1818.0369	1484.15	599.45
916.0954	1819.7067	1477.1	594.45
916.2355	1821.3757	1484.75	600.65
916.3755	1823.044	1475.8	594.35
916.5156	1824.7115	1479.75	597.9
916.6556	1826.3783	1473.15	591.65
916.7956	1828.0443	1475	592.4
916.9356	1829.7096	1467	583.25
917.0756	1831.3741	1471.8	584.45
917.2155	1833.0379	1467.9	585.25
917.3555	1834.701	1467.35	582.2
917.4954	1836.3633	1468.4	584.95
917.6353	1838.0248	1460.15	576.6
917.7751	1839.6856	1466.6	582.6
917.915	1841.3457	1459.7	577.95
918.0548	1843.005	1459.3	575.75
918.1946	1844.6636	1455.75	573.8
918.3344	1846.3214	1456.3	574.85
918.4742	1847.9785	1453.4	569.6
918.6139	1849.6349	1459.2	576.05
918.7537	1851.2904	1461.5	567.7
918.8934	1852.9453	1451.7	567.7
919.0331	1854.5994	1447.75	562.4
919.1727	1856.2528	1456.45	567.35
919.3124	1857.9054	1446.85	563.6
919.452	1859.5572	1445.85	563.1
919.5916	1861.2083	1446.9	561.75
919.7312	1862.8587	1441.25	558.65
919.8708	1864.5084	1440.6	557.65
920.0103	1866.1572	1441.35	559.75
920.1498	1867.8054	1437.55	553.8
920.2893	1869.4528	1429.9	546.05
920.4288	1871.0994	1434	551.1
920.5683	1872.7453	1429.2	545.2
920.7077	1874.3905	1434.1	542.75
920.8471	1876.0349	1433.25	547.25
920.9865	1877.6786	1427.3	539.55
921.1259	1879.3215	1427.15	543.5
921.2653	1880.9637	1427.95	542.25
921.4046	1882.6051	1422.85	540.25
921.5439	1884.2458	1424	538.9
921.6832	1885.8858	1424.4	539.6
921.8225	1887.525	1419.35	537.5
921.9617	1889.1634	1412.2	529.5
922.101	1890.8011	1409.95	526.65
922.2402	1892.4381	1415.8	532.4
922.3794	1894.0743	1412.6	529.6
922.5185	1895.7098	1411.65	528.95
922.6577	1897.3446	1405.95	521.9
922.7968	1898.9786	1403.05	514.8
922.9359	1900.6118	1407.5	525.2
923.075	1902.2443	1405.2	522.05
923.214	1903.8761	1405.7	522
923.3531	1905.5071	1401	515.9
923.4921	1907.1374	1405.6	521.3
923.6311	1908.7669	1401	518
923.77	1910.3957	1403.15	519.3
923.909	1912.0237	1397.95	514.1
924.0479	1913.651	1393.05	508.05
924.1868	1915.2776	1393.9	513.1
924.3257	1916.9034	1391	508.25
924.4646	1918.5285	1382.6	499.85
924.6034	1920.1528	1390.35	506.2
924.7422	1921.7764	1379.6	497.15
924.881	1923.3992	1380.25	496.05
925.0198	1925.0213	1385.95	502.4
925.1586	1926.6427	1381.7	499.5
925.2973	1928.2633	1445.55	491.6
925.436	1929.8832	1383.95	500
925.5747	1931.5023	1369.1	485.9
925.7134	1933.1207	1371.6	489.8
925.852	1934.7383	1375.35	492.65
925.9906	1936.3552	1373.15	490.2
926.1292	1937.9714	1369.7	487.3
926.2678	1939.5868	1369.4	482.55
926.4064	1941.2015	1367.55	481.85
926.5449	1942.8154	1363.2	480.65
926.6834	1944.4286	1353.65	469.1
926.8219	1946.041	1383.55	476.5
926.9604	1947.6528	1362.95	473.9
927.0988	1949.2637	1358.45	476.6
927.2372	1950.8739	1357.7	473.55
927.3756	1952.4834	1364.1	479.45
927.514	1954.0921	1353.2	470.45
927.6523	1955.7001	1350.3	461.75
927.7907	1957.3074	1351.05	469.95
927.929	1958.9139	1355.25	471.95
928.0673	1960.5197	1353.5	467.15
928.2055	1962.1247	1349.65	466.65
928.3438	1963.729	1348.45	465.65
928.482	1965.3325	1373.25	467.25
928.6202	1966.9353	1340.9	458.4
928.7584	1968.5374	1342.85	458.3
928.8965	1970.1387	1345.45	463.5
929.0346	1971.7393	1337.9	454.7
929.1727	1973.3392	1336.4	452.45
929.3108	1974.9383	1335.35	454.25
929.4489	1976.5366	1331.7	449.7
929.5869	1978.1342	1337.8	453.2
929.7249	1979.7311	1337.7	454.4
929.8629	1981.3273	1331.75	450
930.0009	1982.9227	1331.65	445.5
930.1388	1984.5173	1328.8	446.2
930.2767	1986.1112	1328.2	444.55
930.4146	1987.7044	1326.55	444.55
930.5525	1989.2968	1327.2	444.05
930.6904	1990.8885	1330.05	442.4
930.8282	1992.4795	1327.55	443.1
930.966	1994.0697	1324.25	441.6
931.1038	1995.6592	1319.8	436.55
931.2415	1997.2479	1321.2	438.25
931.3793	1998.8359	1319.25	436.2
931.517	2000.4232	1315.35	431.85
931.6547	2002.0097	1313.65	432.6
931.7923	2003.5955	1315.85	433.4
931.93	2005.1805	1317.35	432.1
932.0676	2006.7648	1310.6	428.45
932.2052	2008.3484	1316.15	431.95
932.3427	2009.9312	1315.65	431.1
932.4803	2011.5133	1315.35	432.45
932.6178	2013.0946	1309.75	426.9
932.7553	2014.6752	1307.6	427.2
932.8928	2016.2551	1311.2	427.4
933.0302	2017.8342	1308.45	425.55
933.1676	2019.4126	1307.45	426.85
933.305	2020.9902	1301.35	420.3
933.4424	2022.5672	1309.25	424.25
933.5798	2024.1433	1310.7	421.05
933.7171	2025.7188	1304.85	424.3
933.8544	2027.2935	1299.8	414.2
933.9917	2028.8674	1299.55	417.6
934.129	2030.4406	1302.75	420.65
934.2662	2032.0131	1288.35	404.8
934.4034	2033.5849	1300.8	414.75
934.5406	2035.1559	1297.6	416.25
934.6778	2036.7261	1297.15	416
934.8149	2038.2957	1297.6	416.9
934.952	2039.8645	1296.35	412
935.0891	2041.4325	1301.45	415.75
935.2262	2042.9998	1294.5	411.6
935.3632	2044.5664	1292.55	407.65
935.5002	2046.1323	1297.95	414.7
935.6372	2047.6974	1294.8	413.35
935.7742	2049.2617	1288.2	405.8
935.9111	2050.8254	1294.6	407.3
936.048	2052.3883	1295.35	411.55
936.1849	2053.9504	1289.85	408.95
936.3218	2055.5118	1292.35	407.05
936.4586	2057.0725	1289.65	402.85
936.5955	2058.6325	1286.6	402.85
936.7323	2060.1917	1284.25	401.6
936.869	2061.7502	1288.65	404.05
937.0058	2063.3079	1281.25	399.05
937.1425	2064.8649	1284.3	396.6
937.2792	2066.4212	1285.65	402.65
937.4159	2067.9767	1285.3	403.7
937.5525	2069.5315	1285.2	402.9
937.6891	2071.0856	1285.45	403.35
937.8257	2072.6389	1284.45	401.95
937.9623	2074.1915	1281.75	401.7
938.0989	2075.7433	1278.75	394.9
938.2354	2077.2945	1271.15	390.15
938.3719	2078.8448	1271.2	388.3
938.5084	2080.3945	1267.4	384.35
938.6448	2081.9434	1275.95	393.15
938.7812	2083.4916	1274	389.8
938.9176	2085.039	1277.7	392.95
939.054	2086.5857	1275.9	391.1
939.1903	2088.1317	1270.35	387.15
939.3267	2089.677	1270.7	386.85
939.463	2091.2215	1272.9	390
939.5992	2092.7652	1274.55	389.5
939.7355	2094.3083	1271.6	388.8
939.8717	2095.8506	1270.55	388.45
940.0079	2097.3921	1267.65	386.95
940.1441	2098.933	1265.45	385.2
940.2802	2100.4731	1264.55	382.75
940.4163	2102.0124	1277.15	387.3
940.5524	2103.5511	1265.85	382.35
940.6885	2105.089	1264.1	380.25
940.8245	2106.6261	1266.3	382.7
940.9606	2108.1626	1269.7	385.05
941.0965	2109.6983	1294.35	382.9
941.2325	2111.2332	1267.75	383.7
941.3684	2112.7675	1267.15	384.95
941.5044	2114.301	1270.2	385.5
941.6403	2115.8337	1266.6	385.3
941.7761	2117.3657	1262.95	381
941.912	2118.897	1266.3	382.6
942.0478	2120.4276	1263.1	372.75
942.1835	2121.9575	1259.45	374.95
942.3193	2123.4866	1278.25	380.15
942.455	2125.0149	1265.2	380.2
942.5907	2126.5426	1257	374.3
942.7264	2128.0695	1258.05	369.25
942.8621	2129.5956	1253.45	374.55
942.9977	2131.1211	1263.3	375.9
943.1333	2132.6458	1259.9	378.9
943.2689	2134.1698	1252.95	370.95
943.4044	2135.693	1265.5	382.3
943.54	2137.2155	1262	377.35
943.6755	2138.7373	1254.45	371.2
943.8109	2140.2584	1258.8	378
943.9464	2141.7787	1262.65	374.3
944.0818	2143.2983	1249.3	367.7
944.2172	2144.8171	1250.55	367.45
944.3526	2146.3353	1246.4	361.45
944.4879	2147.8527	1243.25	362.2
944.6232	2149.3693	1247.6	366.3
944.7585	2150.8853	1246.85	362.65
944.8938	2152.4005	1247.25	364.1
945.029	2153.9149	1247.8	364.65
945.1642	2155.4287	1340.75	356.8
945.2994	2156.9417	1245.8	361.6
945.4346	2158.454	1246	360.85
945.5697	2159.9655	1242.65	360.8
945.7048	2161.4764	1241	358.3
945.8399	2162.9865	1233.35	351.6
945.9749	2164.4958	1243.5	359.45
946.1099	2166.0045	1239.15	354.35
946.2449	2167.5124	1242.05	359.35
946.3799	2169.0195	1240.9	356.7
946.5148	2170.526	1239.65	356.05
946.6498	2172.0317	1237.05	353.15
946.7846	2173.5367	1237.55	354.05
946.9195	2175.0409	1233.25	351.2
947.0543	2176.5445	1240.05	357.8
947.1891	2178.0473	1240.45	356.8
947.3239	2179.5494	1234.2	349.3
947.4587	2181.0507	1234.75	349.65
947.5934	2182.5513	1229.75	347.45
947.7281	2184.0512	1235.2	353
947.8628	2185.5504	1230.35	349.3
947.9974	2187.0488	1224.55	339.8
948.132	2188.5465	1225.1	343.6
948.2666	2190.0435	1229.6	348
948.4012	2191.5397	1230.3	346.15
948.5357	2193.0353	1225.9	344.7
948.6702	2194.5301	1225.45	340.95
948.8047	2196.0241	1223.55	339.15
948.9392	2197.5175	1221.5	339.05
949.0736	2199.0101	1224.15	338.25
949.208	2200.502	1222.75	341.45
949.3424	2201.9931	1220.5	337.5
949.4767	2203.4835	1214.55	328.7
949.611	2204.9733	1234.7	334.7
949.7453	2206.4622	1216.3	335.05
949.8796	2207.9505	1219.1	332.25
950.0138	2209.438	1212.5	330.35
950.148	2210.9248	1214.1	329.8
950.2822	2212.4109	1211.8	330.15
950.4164	2213.8962	1209.85	326.35
950.5505	2215.3809	1213.45	327.75
950.6846	2216.8648	1207.5	324.85
950.8186	2218.3479	1211.45	324.2
950.9527	2219.8304	1207	323.75
951.0867	2221.3121	1210.7	327.8
951.2207	2222.7931	1210	330.75
951.3546	2224.2733	1200.25	315.9
951.4886	2225.7529	1200.55	318.15
951.6225	2227.2317	1213.65	329.85
951.7563	2228.7098	1200.35	318.65
951.8902	2230.1872	1195.1	312.5
952.024	2231.6638	1203.4	320.3
952.1578	2233.1397	1200.6	311.5
952.2916	2234.6149	1199.4	316.1
952.4253	2236.0894	1197.9	313.75
952.559	2237.5632	1195.35	310.85
952.6927	2239.0362	1195.35	313.35
952.8263	2240.5085	1190.05	305.95
952.9599	2241.9801	1195.05	312.15
953.0935	2243.4509	1191	307.6
953.2271	2244.921	1189.3	306.85
953.3606	2246.3904	1191.55	305.25
953.4941	2247.8591	1188.65	306.35
953.6276	2249.3271	1186.15	303.6
953.7611	2250.7943	1184.9	301.5
953.8945	2252.2608	1186.2	303.15
954.0279	2253.7266	1184.45	301
954.1612	2255.1917	1185.1	302
954.2946	2256.656	1186.45	303.45
954.4279	2258.1197	1181.15	299.5
954.5612	2259.5826	1183.7	298.7
954.6944	2261.0447	1181.9	297.7
954.8276	2262.5062	1182.1	295.9
954.9608	2263.9669	1175.1	289.75
955.094	2265.4269	1173	290.25
955.2271	2266.8862	1175.3	294.55
955.3602	2268.3448	1176.8	294.85
955.4933	2269.8026	1173	289.35
955.6264	2271.2598	1174.75	291.15
955.7594	2272.7162	1173.55	291.75
955.8924	2274.1719	1175.55	293.75
956.0253	2275.6268	1170.7	289
956.1583	2277.0811	1169.3	284.2
956.2912	2278.5346	1173.25	291.1
956.4241	2279.9874	1169.15	287
956.5569	2281.4395	1165.8	283.35
956.6897	2282.8908	1172.4	286.65
956.8225	2284.3414	1167.9	283.7
956.9553	2285.7914	1162.6	279.65
957.088	2287.2406	1168.75	283.9
957.2207	2288.689	1165.4	282.5
957.3534	2290.1368	1164.95	281.65
957.486	2291.5838	1164.1	279.35
957.6186	2293.0302	1161.2	277.15
957.7512	2294.4758	1161.55	280.15
957.8838	2295.9206	1160.85	274.35
958.0163	2297.3648	1156.6	273.65
958.1488	2298.8082	1160.75	276.45
958.2813	2300.251	1159.05	276.25
958.4137	2301.693	1161.2	275.25
958.5461	2303.1343	1155.5	270
958.6785	2304.5748	1155.35	272.85
958.8108	2306.0147	1159.25	276.85
958.9432	2307.4538	1159.05	273.9
959.0754	2308.8922	1156.4	273.75
959.2077	2310.3299	1156.55	272.55
959.3399	2311.7669	1152.5	269.6
959.4721	2313.2031	1153.05	269.9
959.6043	2314.6387	1150.95	266.25
959.7365	2316.0735	1149.5	266.35
959.8686	2317.5076	1149.15	262.95
960.0006	2318.941	1150.95	269.1
960.1327	2320.3737	1150.35	266.4
960.2647	2321.8056	1152.7	267.2
960.3967	2323.2369	1147.6	264.7
960.5287	2324.6674	1154.65	267.35
960.6606	2326.0972	1150.6	268.15
960.7925	2327.5263	1145.25	262.75
960.9244	2328.9547	1152.2	268.25
961.0562	2330.3823	1149.6	266.9
961.1881	2331.8092	1147.9	262.9
961.3198	2333.2355	1144.3	260.6
961.4516	2334.661	1144.1	261.45
961.5833	2336.0858	1141.4	254.65
961.715	2337.5098	1137.45	254.5
961.8467	2338.9332	1136.7	253.15
961.9783	2340.3558	1139.55	253.3
962.1099	2341.7778	1139.3	256.05
962.2415	2343.199	1136.05	251.05
962.373	2344.6195	1131.15	248.25
962.5045	2346.0393	1137.95	253.7
962.636	2347.4583	1134.15	249.45
962.7675	2348.8767	1133.1	248.85
962.8989	2350.2943	1127.7	244.05
963.0303	2351.7113	1132.05	248.3
963.1617	2353.1275	1134.65	251.55
963.293	2354.543	1155.15	247.35
963.4243	2355.9578	1134.05	251.95
963.5556	2357.3718	1132.45	250.2
963.6868	2358.7852	1134.3	247.5
963.818	2360.1978	1128.35	244.35
963.9492	2361.6098	1128.15	244.85
964.0803	2363.021	1130.6	242.4
964.2114	2364.4315	1126	242.95
964.3425	2365.8413	1130.2	241.4
964.4736	2367.2504	1122.6	240.7
964.6046	2368.6587	1121.7	237.9
964.7356	2370.0664	1123.8	240.85
964.8666	2371.4733	1119.1	233.5
964.9975	2372.8795	1116.45	234
965.1284	2374.285	1120.55	236.65
965.2593	2375.6899	1122.85	240.9
965.3901	2377.0939	1117.6	233.5
965.5209	2378.4973	1119.4	236.1
965.6517	2379.9	1115.6	230.7
965.7825	2381.3019	1115.8	232.9
965.9132	2382.7032	1107.65	224.75
966.0439	2384.1037	1114.95	234.6
966.1745	2385.5035	1111.9	225.75
966.3051	2386.9027	1106.25	222.3
966.4357	2388.3011	1114	228.1
966.5663	2389.6987	1108.7	222.8
966.6968	2391.0957	1111.3	227.5
966.8273	2392.492	1103.05	219.6
966.9578	2393.8876	1104.45	220.5
967.0882	2395.2824	1106.9	224.95
967.2186	2396.6765	1107.95	227.75
967.349	2398.07	1107.3	223.8
967.4793	2399.4627	1106.2	219.9
967.6097	2400.8547	1103.3	218.15
967.7399	2402.246	1109	217.5
967.8702	2403.6366	1102.05	214.7
968.0004	2405.0265	1101.3	218.9
968.1306	2406.4156	1100.7	213.9
968.2607	2407.8041	1100.55	212.95
968.3909	2409.1918	1100.95	215.25
968.521	2410.5789	1095.65	212
968.651	2411.9652	1098.6	212.35
968.781	2413.3508	1091.95	209.75
968.911	2414.7358	1091.25	207.6
969.041	2416.12	1088.5	205.5
969.1709	2417.5035	1092.85	211.75
969.3008	2418.8863	1087.1	200.45
969.4307	2420.2684	1093.2	209.3
969.5606	2421.6497	1091.65	206.45
969.6904	2423.0304	1089.35	206.55
969.8201	2424.4104	1091.05	207.75
969.9499	2425.7896	1089.75	204.75
970.0796	2427.1682	1085.65	202.9
970.2093	2428.546	1090.3	204.8
970.3389	2429.9232	1085.55	199.1
970.4685	2431.2996	1088.3	205.2
970.5981	2432.6753	1085.35	202.85
970.7277	2434.0503	1087.3	204.7
970.8572	2435.4246	1085.2	200.75
970.9867	2436.7982	1078.1	193.85
971.1161	2438.1711	1077.85	195.35
971.2456	2439.5433	1087.75	202.55
971.375	2440.9148	1091.35	204.65
971.5043	2442.2856	1077.2	193.5
971.6336	2443.6557	1080.5	195.75
971.7629	2445.025	1080.15	196.25
971.8922	2446.3937	1071.5	186.4
972.0214	2447.7617	1082.2	198.6
972.1506	2449.1289	1074.95	191.6
972.2798	2450.4955	1084.25	195.35
972.4089	2451.8613	1076.05	194.55
972.538	2453.2265	1071.85	187.05
972.6671	2454.5909	1075.6	191.8
972.7961	2455.9546	1070.8	186.9
972.9251	2457.3177	1067.25	185.95
973.0541	2458.68	1076.1	191.35
973.1831	2460.0416	1072.8	188.75
973.312	2461.4025	1077.85	194.9
973.4408	2462.7627	1081.5	187
973.5697	2464.1222	1065.95	183.8
973.6985	2465.4811	1071.75	187.4
973.8273	2466.8392	1067.3	181.55
973.956	2468.1966	1070.35	184.7
974.0847	2469.5533	1071.35	184.55
974.2134	2470.9093	1066.25	181
974.3421	2472.2645	1067.85	184.65
974.4707	2473.6191	1067.15	183.65
974.5993	2474.973	1068.55	185.3
974.7278	2476.3262	1066.95	179.75
974.8563	2477.6787	1062.15	179.15
974.9848	2479.0305	1067.6	185
975.1132	2480.3816	1066.25	181.1
975.2417	2481.7319	1062.9	180.45
975.37	2483.0816	1067.5	181.75
975.4984	2484.4306	1057.55	172.85
975.6267	2485.7789	1061.9	179.45
975.755	2487.1264	1060.6	175.55
975.8833	2488.4733	1060.3	178.3
976.0115	2489.8195	1079.65	178.4
976.1397	2491.165	1061.1	175.2
976.2678	2492.5097	1059.6	175.4
976.3959	2493.8538	1057.7	174.75
976.524	2495.1972	1059.35	177.65
976.6521	2496.5398	1057	171.95
976.7801	2497.8818	1057.65	169.75
976.9081	2499.2231	1053.6	169.2
977.036	2500.5637	1052.55	166.5
977.164	2501.9035	1051.4	165.85
977.2918	2503.2427	1056.85	171.5
977.4197	2504.5812	1054.9	173.55
977.5475	2505.919	1047.45	161.1
977.6753	2507.256	1050.55	166.95
977.8031	2508.5924	1048.25	164.3
977.9308	2509.9281	1053.55	164.65
978.0585	2511.2631	1051.35	165.8
978.1861	2512.5974	1045.65	162.2
978.3137	2513.9309	1049.15	164.25
978.4413	2515.2638	1077.4	166.05
978.5689	2516.596	1048.8	166.5
978.6964	2517.9275	1047.65	163.85
978.8239	2519.2583	1047.4	164.6
978.9513	2520.5884	1046.35	160.25
979.0788	2521.9178	1040.75	158.3
979.2062	2523.2465	1046.3	163.8
979.3335	2524.5745	1040.65	156.45
979.4608	2525.9018	1045.2	162.35
979.5881	2527.2284	1040.55	156.65
979.7154	2528.5543	1040.05	156.9
979.8426	2529.8796	1044.55	161.15
979.9698	2531.2041	1041.5	157
980.0969	2532.5279	1038.3	157
980.224	2533.851	1038	153.6
980.3511	2535.1735	1038.65	155.35
980.4781	2536.4952	1035.15	152.35
980.6052	2537.8163	1039.15	153.05
980.7321	2539.1366	1036.9	155.1
980.8591	2540.4562	1035.85	150.95
980.986	2541.7752	1032.25	148.75
981.1129	2543.0935	1039.45	156.2
981.2397	2544.411	1034.15	149.6
981.3665	2545.7279	1036.8	154.05
981.4933	2547.0441	1037.65	153.7
981.62	2548.3596	1037.1	150.7
981.7467	2549.6744	1033.9	151.45
981.8734	2550.9885	1034.45	146.6
982.0001	2552.3019	1035.45	154.05
982.1267	2553.6146	1033.4	148.35
982.2532	2554.9266	1033.05	147.45
982.3798	2556.2379	1037.45	152.8
982.5063	2557.5485	1029.25	144.75
982.6327	2558.8585	1039.2	148.8
982.7592	2560.1677	1034.6	145.55
982.8856	2561.4762	1030.25	146.6
983.0119	2562.7841	1031.95	145.7
983.1383	2564.0913	1028.85	148
983.2646	2565.3977	1027.65	143.8
983.3908	2566.7035	1032.15	148.95
983.517	2568.0086	1027.9	141.6
983.6432	2569.313	1027	143.8
983.7694	2570.6167	1024.9	136.95
983.8955	2571.9197	1027.55	146.15
984.0216	2573.222	1031.65	144.25
984.1476	2574.5236	1025.25	142.15
984.2737	2575.8246	1027.85	140.95
984.3996	2577.1248	1026.5	140.45
984.5256	2578.4244	1024.35	140.35
984.6515	2579.7232	1024.55	142.35
984.7774	2581.0214	1053.8	137.2
984.9032	2582.3189	1022.8	140.1
985.029	2583.6157	1039.7	142.35
985.1548	2584.9118	1022.15	139.15
985.2806	2586.2072	1021.05	138.25
985.4063	2587.5019	1024.4	140.35
985.5319	2588.7959	1022.15	138.4
985.6576	2590.0893	1027.75	142.1
985.7832	2591.3819	1020.8	139.25
985.9087	2592.6739	1020.55	137.05
986.0343	2593.9652	1023.3	140.35
986.1597	2595.2557	1021.95	139.55
986.2852	2596.5456	1022.95	137.05
986.4106	2597.8348	1021.55	139.8
986.536	2599.1234	1018.6	137.55
986.6614	2600.4112	1021.8	137.05
986.7867	2601.6983	1021.55	133.9
986.912	2602.9848	1017.8	132.95
987.0372	2604.2705	1024.15	133.75
987.1624	2605.5556	1019.55	134.85
987.2876	2606.84	1013.65	131.25
987.4128	2608.1237	1014.45	131.1
987.5379	2609.4067	1015.5	133.5
987.6629	2610.689	1023.1	129.85
987.788	2611.9707	1021	132.3
987.913	2613.2516	1016.2	127.1
988.0379	2614.5319	1009.65	127.05
988.1629	2615.8115	1011.7	126.4
988.2878	2617.0903	1012.7	127.55
988.4126	2618.3685	1013.5	129.9
988.5375	2619.6461	1010.2	127.3
988.6622	2620.9229	1008.9	126.3
988.787	2622.199	1008.75	125.1
988.9117	2623.4745	1008.75	123.5
989.0364	2624.7493	1006.8	122.85
989.161	2626.0234	1007.2	123.65
989.2857	2627.2968	1005.75	121.35
989.4102	2628.5695	1004	119.05
989.5348	2629.8415	1005.15	120.75
989.6593	2631.1128	1007.6	121.85
989.7837	2632.3835	1008.85	124.6
989.9082	2633.6535	1007.8	123.65
990.0326	2634.9228	1002.5	119.5
990.1569	2636.1914	1005.85	123.6
990.2812	2637.4593	1005.75	122.8
990.4055	2638.7265	1003.35	119.3
990.5298	2639.9931	1004.35	122.05
990.654	2641.259	1006.75	121.15
990.7782	2642.5242	1004.85	119.85
990.9023	2643.7887	999.3	115.15
991.0264	2645.0525	1004.55	120.05
991.1505	2646.3156	1012.2	112.6
991.2745	2647.5781	999.15	116.2
991.3985	2648.8398	999.7	117.15
991.5225	2650.1009	1025.3	117.25
991.6464	2651.3613	997.7	114.6
991.7703	2652.6211	997.9	116.1
991.8942	2653.8801	993.9	111.25
992.018	2655.1385	998.25	109.9
992.1418	2656.3961	997.5	113.35
992.2655	2657.6531	993.3	110.75
992.3892	2658.9094	995	110.3
992.5129	2660.1651	999.8	115.7
992.6366	2661.42	996	112.8
992.7602	2662.6743	998.75	116
992.8837	2663.9279	995.3	112.55
993.0073	2665.1808	994.4	109.85
993.1307	2666.433	994.1	108.15
993.2542	2667.6846	993.2	111.8
993.3776	2668.9354	994.9	108.25
993.501	2670.1856	994.7	111.05
993.6244	2671.4351	993.65	110.8
993.7477	2672.6839	995.65	110.2
993.8709	2673.9321	993.9	111.15
993.9942	2675.1795	993	108.3
994.1174	2676.4263	995.9	111.55
994.2405	2677.6724	991.3	108.35
994.3637	2678.9179	992.4	106.55
994.4868	2680.1626	990.55	109.2
994.6098	2681.4067	991.8	108.3
994.7328	2682.6501	992.9	111.5
994.8558	2683.8928	989.2	105.5
994.9788	2685.1348	988.6	105.75
995.1017	2686.3761	986.8	103.6
995.2245	2687.6168	988.5	103.65
995.3474	2688.8568	983.1	98.6
995.4702	2690.0961	985.7	102.9
995.5929	2691.3348	988.75	105.85
995.7156	2692.5727	989	105.8
995.8383	2693.81	984.45	101.5
995.961	2695.0466	984.45	101.85
996.0836	2696.2826	983.35	97.1
996.2062	2697.5178	987.65	101
996.3287	2698.7524	984.15	100.2
996.4512	2699.9863	984.9	100.95
996.5737	2701.2195	982.25	99.1
996.6961	2702.452	988.1	104.05
996.8185	2703.6839	989.6	106
996.9408	2704.9151	983	100.7
997.0631	2706.1456	981.65	98.75
997.1854	2707.3755	983.3	101.2
997.3077	2708.6046	985.85	98.9
997.4299	2709.8331	984.9	101.75
997.552	2711.0609	986.25	102.85
997.6742	2712.2881	983.05	99
997.7963	2713.5145	988.65	104.7
997.9183	2714.7403	980.9	100.35
998.0403	2715.9654	987.05	103.4
998.1623	2717.1899	998.35	99.35
998.2842	2718.4136	988.6	105
998.4062	2719.6367	986.35	102.9
998.528	2720.8591	992	101.7
998.6498	2722.0809	986.6	105
998.7716	2723.3019	991.5	103.85
998.8934	2724.5223	988.25	102.4
999.0151	2725.7421	987.45	102.9
999.1368	2726.9611	988.05	103.2
999.2584	2728.1795	990.3	102.75
999.38	2729.3972	982	97.25
999.5016	2730.6142	989.3	98.6
999.6231	2731.8306	982.15	98.45
999.7446	2733.0462	982.55	95.55
999.8661	2734.2612	983.8	94.95
999.9875	2735.4756	982.8	96.95
1000.1089	2736.6892	977.6	93.95
1000.2302	2737.9022	976.25	95.5
1000.3515	2739.1145	975.3	92.5
1000.4728	2740.3262	980.25	89.05
1000.594	2741.5372	974.2	89.6
1000.7152	2742.7475	972.7	88.3
1000.8363	2743.9571	975.6	90.05
1000.9575	2745.1661	977.45	88
1001.0785	2746.3744	973.25	90.15
1001.1996	2747.582	968.25	87.85
1001.3206	2748.7889	970.9	86.9
1001.4415	2749.9952	970.15	88.4
1001.5625	2751.2008	968.3	83.55
1001.6833	2752.4057	974.9	89.4
1001.8042	2753.61	968	82
1001.925	2754.8136	968.45	82.9
1002.0458	2756.0165	968.55	85.35
1002.1665	2757.2188	965.95	83.6
1002.2872	2758.4204	967.35	83.75
1002.4078	2759.6213	973.4	88.95
1002.5285	2760.8215	972.6	85.5
1002.649	2762.0211	969	84.15
1002.7696	2763.22	967.65	80.15
1002.8901	2764.4182	969.5	84.55
1003.0106	2765.6158	965.8	83.1
1003.131	2766.8127	966.45	82.15
1003.2514	2768.009	966.05	83.85
1003.3717	2769.2045	962.95	79.15
1003.492	2770.3994	961.6	75.85
1003.6123	2771.5936	964.95	80.05
1003.7325	2772.7872	961.6	78.7
1003.8527	2773.9801	963.55	78.7
1003.9729	2775.1723	979.5	78.5
1004.093	2776.3639	960.75	77.15
1004.2131	2777.5548	964.95	80.15
1004.3331	2778.745	963.55	77.45
1004.4531	2779.9346	960.9	79.3
1004.5731	2781.1235	960.2	75.65
1004.693	2782.3117	958	75.7
1004.8129	2783.4992	961.75	78.3
1004.9328	2784.6861	958.5	76.6
1005.0526	2785.8723	960.25	75.85
1005.1723	2787.0579	958.35	74.3
1005.2921	2788.2428	958.65	75.3
1005.4118	2789.427	959.7	75.3
1005.5314	2790.6106	960.15	75.9
1005.651	2791.7935	958.7	75.95
1005.7706	2792.9757	956.7	74.25
1005.8902	2794.1573	958.65	72.7
1006.0097	2795.3382	957.3	75.1
1006.1291	2796.5184	954.35	71.95
1006.2485	2797.698	959.25	74.5
1006.3679	2798.8769	958.85	76.85
1006.4873	2800.0551	961.25	75.8
1006.6066	2801.2327	961.45	75.1
1006.7258	2802.4096	958.9	76.2
1006.8451	2803.5859	960.5	76.1
1006.9642	2804.7615	957.15	72.85
1007.0834	2805.9364	954.55	71.1
1007.2025	2807.1106	956.3	74.4
1007.3216	2808.2842	960.8	76.35
1007.4406	2809.4572	956.2	73.95
1007.5596	2810.6294	959.55	74.65
1007.6785	2811.801	958.05	74.8
1007.7975	2812.972	957.85	75.1
1007.9163	2814.1423	964.65	83.25
1008.0352	2815.3119	966.65	83.5
1008.154	2816.4808	965.45	83.85
1008.2727	2817.6491	968.2	83.3
1008.3914	2818.8167	970.15	87.95
1008.5101	2819.9837	977.85	89.2
1008.6288	2821.15	975.35	92.75
1008.7474	2822.3157	982.55	99.5
1008.8659	2823.4807	982.45	99.15
1008.9844	2824.645	992.65	109.65
1009.1029	2825.8086	994.95	112.2
1009.2214	2826.9716	1000.85	118.45
1009.3398	2828.134	1008.05	126.45
1009.4581	2829.2957	1013.25	130.15
1009.5764	2830.4567	1018.2	134.7
1009.6947	2831.617	1019.55	137.2
1009.813	2832.7767	1022.7	139.2
1009.9312	2833.9358	1023.15	140.7
1010.0493	2835.0941	1025.25	140.85
1010.1675	2836.2519	1021.9	140.35
1010.2855	2837.4089	1017.95	133.65
1010.4036	2838.5653	1014.75	131
1010.5216	2839.7211	1010.5	127.2
1010.6396	2840.8761	1006.45	120.5
1010.7575	2842.0306	1007.8	125.4
1010.8754	2843.1843	1006.95	124.75
1010.9932	2844.3374	1006.65	123.2
1011.111	2845.4899	1012.6	129.1
1011.2288	2846.6417	1011.65	126.75
1011.3465	2847.7928	1012.35	132
1011.4642	2848.9433	1015.4	134.05
1011.5818	2850.0931	1014.05	132.5
1011.6995	2851.2422	1016.5	130.55
1011.817	2852.3907	1011.35	126.25
1011.9345	2853.5385	1019.6	135.35
1012.052	2854.6857	1025.6	132.5
1012.1695	2855.8323	1015.5	132.7
1012.2869	2856.9781	1019.4	137.05
1012.4042	2858.1233	1017.95	135.5
1012.5216	2859.2679	1025.35	142.3
1012.6389	2860.4118	1031.15	149.75
1012.7561	2861.555	1034.2	147.35
1012.8733	2862.6976	1035.1	149.4
1012.9905	2863.8395	1032.7	150.55
1013.1076	2864.9808	1034.95	152.65
1013.2247	2866.1214	1033.85	152.4
1013.3417	2867.2614	1035.9	150.1
1013.4587	2868.4007	1040.5	157.25
1013.5757	2869.5393	1039.7	153.5
1013.6926	2870.6773	1039.65	155.5
1013.8095	2871.8146	1046.3	162.2
1013.9263	2872.9513	1044.7	159.4
1014.0431	2874.0874	1040.65	156.7
1014.1599	2875.2227	1044.15	159.75
1014.2766	2876.3574	1047.9	164.6
1014.3933	2877.4915	1049.3	166.45
1014.51	2878.6249	1047.15	166
1014.6266	2879.7577	1058.15	173
1014.7431	2880.8898	1062.8	168.4
1014.8596	2882.0212	1053.65	171.85
1014.9761	2883.152	1056.05	172
1015.0925	2884.2821	1055.8	174.25
1015.2089	2885.4116	1056.8	175.75
1015.3253	2886.5405	1061.75	178.7
1015.4416	2887.6686	1065.2	178.95
1015.5579	2888.7962	1059.2	177.4
1015.6741	2889.923	1063.05	179.6
1015.7903	2891.0493	1058.8	177.3
1015.9065	2892.1748	1058	174.1
1016.0226	2893.2997	1065.7	183
1016.1387	2894.424	1060.95	179.8
1016.2547	2895.5476	1062.45	181
1016.3707	2896.6706	1060.6	178.2
1016.4866	2897.7929	1062.5	179.6
1016.6025	2898.9145	1060.2	175.1
1016.7184	2900.0355	1058.2	174.4
1016.8342	2901.1559	1057.9	173.5
1016.95	2902.2756	1062	174.65
1017.0658	2903.3946	1055.85	174.85
1017.1815	2904.513	1056.4	170.1
1017.2971	2905.6308	1059.7	177
1017.4127	2906.7479	1052.1	169.7
1017.5283	2907.8643	1057.55	172.95
1017.6439	2908.9801	1054.8	171.85
1017.7594	2910.0953	1053.4	170
1017.8748	2911.2098	1060.35	174.15
1017.9902	2912.3236	1061.25	172.85
1018.1056	2913.4368	1056.9	170.65
1018.2209	2914.5494	1053.05	171.05
1018.3362	2915.6613	1056.35	166.2
1018.4515	2916.7725	1052.15	164.9
1018.5667	2917.8831	1049.35	165.45
1018.6819	2918.9931	1048.7	161.65
1018.797	2920.1024	1046.15	158.75
1018.9121	2921.211	1039.9	155.95
1019.0271	2922.319	1038.1	155
1019.1421	2923.4264	1040.55	156.9
1019.2571	2924.5331	1035	153.85
1019.372	2925.6391	1038.4	154.8
1019.4869	2926.7445	1035.75	152.75
1019.6017	2927.8493	1034.6	151.5
1019.7165	2928.9534	1038.4	153.2
1019.8313	2930.0569	1041.6	154.1
1019.946	2931.1597	1039.5	154.35
1020.0606	2932.2619	1040.6	158.55
1020.1753	2933.3634	1042.3	160.25
1020.2899	2934.4643	1050	160.95
1020.4044	2935.5645	1050.45	162.6
1020.5189	2936.6641	1043.05	158.85
1020.6334	2937.763	1042.2	160.1
1020.7478	2938.8613	1041.1	158.75
1020.8622	2939.959	1047	156.85
1020.9765	2941.056	1033.9	151.85
1021.0908	2942.1523	1029.2	143.25
1021.2051	2943.248	1031.2	149.15
1021.3193	2944.3431	1021.85	138.35
1021.4334	2945.4375	1020.55	136.65
1021.5476	2946.5313	1016.05	135
1021.6617	2947.6244	1007.95	124.15
1021.7757	2948.7169	1001.75	116.55
1021.8897	2949.8087	997.65	114.9
1022.0037	2950.8999	991.95	108.55
1022.1176	2951.9904	985.1	103
1022.2315	2953.0803	985.2	98.95
1022.3453	2954.1696	979	95.9
1022.4591	2955.2582	975.5	92.55
1022.5728	2956.3462	976.6	91.35
1022.6865	2957.4335	972.1	89.25
1022.8002	2958.5202	975.9	89.8
1022.9138	2959.6062	973.6	91.65
1023.0274	2960.6916	970.2	87.7
1023.141	2961.7764	973.4	88.5
1023.2545	2962.8605	972.2	88.5
1023.3679	2963.9439	971	88.05
1023.4813	2965.0267	969.65	84.8
1023.5947	2966.1089	994.25	88.45
1023.708	2967.1905	970.3	87.35
1023.8213	2968.2714	968.45	86.25
1023.9346	2969.3516	970.45	88.6
1024.0478	2970.4312	977.15	85.8
1024.1609	2971.5102	966.8	83.6
1024.274	2972.5885	965.75	82.35
1024.3871	2973.6662	973.85	85.25
1024.5002	2974.7432	964	80.45
1024.6132	2975.8196	963.05	78.2
1024.7261	2976.8954	964.8	82.3
1024.839	2977.9705	966.65	84.3
1024.9519	2979.045	968.1	86.25
1025.0647	2980.1188	965.85	83.8
1025.1775	2981.192	966.7	83.25
1025.2902	2982.2645	967.05	82
1025.4029	2983.3364	966.25	83.6
1025.5156	2984.4077	960.65	79.05
1025.6282	2985.4783	967.25	77.6
1025.7407	2986.5483	958.05	76.45
1025.8532	2987.6177	954.2	71.55
1025.9657	2988.6864	955.8	72.8
1026.0782	2989.7545	955.45	72.7
1026.1906	2990.8219	950.05	67.85
1026.3029	2991.8887	951.3	67.85
1026.4152	2992.9548	948.4	65.2
1026.5275	2994.0204	944.5	63.5
1026.6397	2995.0852	943.35	61.15
1026.7519	2996.1495	941.3	58.5
1026.864	2997.2131	935.55	52.35
1026.9761	2998.276	937.5	55.5
1027.0882	2999.3383	936.85	53.1
1027.2002	3000.4	936.05	51.5
1027.3122	3001.4611	934.45	52.75
1027.4241	3002.5215	933.65	51.2
1027.536	3003.5812	931.1	48.65
1027.6478	3004.6404	929.15	43.9
1027.7596	3005.6989	929.5	44.55
1027.8714	3006.7567	928.45	44.6
1027.9831	3007.8139	947.05	44.25
1028.0947	3008.8705	926.15	45.9
1028.2064	3009.9264	941.75	40.85
1028.3179	3010.9818	923.35	39.5
1028.4295	3012.0364	922.8	41.05
1028.541	3013.0905	924.8	40.05
1028.6524	3014.1439	923.6	39.25
1028.7638	3015.1966	921.1	38.95
1028.8752	3016.2487	922.7	39.4
1028.9865	3017.3002	928.35	44.05
1029.0978	3018.3511	921.4	39.7
1029.209	3019.4013	922.6	40.3
1029.3202	3020.4509	918.8	37
1029.4314	3021.4998	922.05	37.25
1029.5425	3022.5481	922.1	40.3
1029.6535	3023.5958	921.05	39.75
1029.7645	3024.6428	923.35	38.15
1029.8755	3025.6892	918	37.7
1029.9864	3026.735	920.25	36.45
1030.0973	3027.7802	918.95	33.85
1030.2082	3028.8247	921.1	37.65
1030.319	3029.8685	918.45	34.65
1030.4297	3030.9118	919.45	35.85
1030.5404	3031.9544	918.25	35.35
1030.6511	3032.9963	919.2	34.3
1030.7617	3034.0376	921.05	39.8
1030.8723	3035.0783	922.55	34.8
1030.9829	3036.1184	918.35	34.85
1031.0934	3037.1578	920.5	39.2
1031.2038	3038.1966	920.05	35.85
1031.3142	3039.2348	917.85	35.6
1031.4246	3040.2723	926.15	34.3
1031.5349	3041.3092	917.6	33.7
1031.6452	3042.3455	919.5	37.4
1031.7554	3043.3811	918.95	35.15
1031.8656	3044.4161	919.55	35.6
1031.9758	3045.4505	918	36.1
1032.0859	3046.4842	918.8	34.05
1032.1959	3047.5173	916.2	34.75
1032.3059	3048.5498	920.25	35.05
1032.4159	3049.5816	920.55	38.25
1032.5258	3050.6128	919.3	35.85
1032.6357	3051.6434	920.2	36.35
1032.7455	3052.6734	921.5	36.7
1032.8553	3053.7027	919.7	37.5
1032.9651	3054.7314	917.8	36.25
1033.0748	3055.7594	917.9	36
1033.1845	3056.7868	917.75	32.25
1033.2941	3057.8136	920	36.1
1033.4037	3058.8398	921.15	39.7
1033.5132	3059.8653	918.45	35.7
1033.6227	3060.8902	918.2	35.75
1033.7321	3061.9145	918.5	34.9
1033.8415	3062.9381	920.15	39.25
1033.9509	3063.9612	935.5	35.8
1034.0602	3064.9835	920.9	38.8
1034.1694	3066.0053	920.8	36.3
1034.2787	3067.0264	918.15	34.4
1034.3878	3068.0469	919.85	36.95
1034.497	3069.0668	921.95	34.6
1034.6061	3070.086	918.45	37.6
1034.7151	3071.1046	921.35	36.05
1034.8241	3072.1226	921.05	36.7
1034.9331	3073.1399	918.5	36.75
1035.042	3074.1567	918.15	34.8
1035.1508	3075.1727	920.1	36.65
1035.2597	3076.1882	917.9	34.55
1035.3684	3077.203	915.65	33
1035.4772	3078.2173	918.15	33.3
1035.5859	3079.2308	915.95	29.8
1035.6945	3080.2438	917.8	32.7
1035.8031	3081.2561	916.9	34.55
1035.9117	3082.2678	914.25	32.95
1036.0202	3083.2789	912.8	27.25
1036.1286	3084.2893	914.55	32.9
1036.2371	3085.2991	914.85	30.85
1036.3454	3086.3083	917.4	33.25
1036.4538	3087.3169	915	31.2
1036.562	3088.3248	913.1	28.8
1036.6703	3089.3321	914.4	29.25
1036.7785	3090.3388	910.35	30.55
1036.8866	3091.3449	910.3	26.75
1036.9948	3092.3503	912.15	27.8
1037.1028	3093.3551	907.25	27.1
1037.2108	3094.3593	910.05	26.85
1037.3188	3095.3629	910.35	27.95
1037.4267	3096.3658	909.4	24.1
1037.5346	3097.3681	910.6	29.05
1037.6425	3098.3698	909.65	24.8
1037.7503	3099.3708	916.05	25.45
1037.858	3100.3713	909	27.05
1037.9657	3101.3711	909.5	28.35
1038.0734	3102.3702	1043.05	25.85
1038.181	3103.3688	912.2	28.75
1038.2886	3104.3667	907.8	27.3
1038.3961	3105.364	909.55	26.55
1038.5036	3106.3607	911.4	29.1
1038.611	3107.3568	908.1	25.4
1038.7184	3108.3522	906.05	24.05
1038.8257	3109.347	908.15	25.2
1038.933	3110.3412	910.6	24.75
1039.0403	3111.3348	906.3	24.5
1039.1475	3112.3277	906.85	26.15
1039.2547	3113.32	905.05	22.5
1039.3618	3114.3117	906.6	24.5
1039.4689	3115.3028	904.6	21.35
1039.5759	3116.2932	907.2	21.75
1039.6829	3117.2831	911.75	22.95
1039.7898	3118.2723	905.2	21.9
1039.8967	3119.2608	904.6	21.15
1040.0035	3120.2488	906.7	23.75
1040.1103	3121.2361	906.95	24.7
1040.2171	3122.2229	907.2	24.45
1040.3238	3123.209	902.95	19.7
1040.4305	3124.1944	904.65	23
1040.5371	3125.1793	901.8	16.95
1040.6437	3126.1635	902.55	20.95
1040.7502	3127.1471	900.65	20.45
1040.8567	3128.1301	903.3	19.2
1040.9631	3129.1125	902.55	20
1041.0695	3130.0942	904.65	21.35
1041.1759	3131.0753	912.3	20.8
1041.2822	3132.0558	907.2	23.85
1041.3884	3133.0357	905.1	21.3
1041.4946	3134.015	903.55	20.9
1041.6008	3134.9936	904.3	21
1041.7069	3135.9716	922.9	16.3
1041.813	3136.949	901.05	17.35
1041.919	3137.9258	922.2	22.35
1042.025	3138.902	907.15	17.65
1042.1309	3139.8775	901.6	18
1042.2368	3140.8524	903.9	19.7
1042.3427	3141.8267	904.2	19.45
1042.4485	3142.8004	902.4	19.1
1042.5542	3143.7735	906.2	17.9
1042.6599	3144.7459	902	16
1042.7656	3145.7178	900.4	16.45
1042.8712	3146.689	901.95	21.35
1042.9768	3147.6596	903.7	17.55
1043.0823	3148.6295	901.4	18.1
1043.1878	3149.5989	904.3	23.1
1043.2932	3150.5676	898.15	16.55
1043.3986	3151.5357	898.55	16.95
1043.5039	3152.5032	899.3	17.45
1043.6092	3153.4701	899.65	16.85
1043.7145	3154.4364	900.85	15.45
1043.8197	3155.402	899.15	17.85
1043.9248	3156.367	901.2	14.75
1044.03	3157.3315	938.6	18.35
1044.135	3158.2952	902.2	19.2
1044.24	3159.2584	899.25	18.2
1044.345	3160.221	900.65	14.95
1044.4499	3161.1829	899.75	16.6
1044.5548	3162.1442	898.05	15.25
1044.6596	3163.105	900	17.7
1044.7644	3164.065	900.25	16.8
1044.8692	3165.0245	903.15	17.8
1044.9739	3165.9834	898.8	18.2
1045.0785	3166.9416	898.7	17.3
1045.1831	3167.8993	898.15	15
1045.2877	3168.8563	897.4	15.4
1045.3922	3169.8127	898.75	16.35
1045.4966	3170.7684	899.15	16.75
1045.6011	3171.7236	901.25	18.55
1045.7054	3172.6782	900.15	17.75
1045.8098	3173.6321	900.35	16.25
1045.914	3174.5854	901.1	12.65
1046.0183	3175.5381	897.1	14.4
1046.1224	3176.4902	898.1	15.55
1046.2266	3177.4417	896.05	13.7
1046.3307	3178.3926	897.95	17.75
1046.4347	3179.3428	896.45	14.75
1046.5387	3180.2924	898.3	16.55
1046.6427	3181.2415	897.8	14.2
1046.7466	3182.1899	900.5	15.6
1046.8504	3183.1377	897.55	16.05
1046.9542	3184.0848	899.45	13.25
1047.058	3185.0314	897.6	14.4
1047.1617	3185.9773	898.6	16.05
1047.2654	3186.9227	897.9	14.75
1047.369	3187.8674	896.9	14.1
1047.4726	3188.8115	900.45	12.9
1047.5761	3189.755	899.95	19.25
1047.6796	3190.6979	896.95	14.4
1047.783	3191.6402	895.9	13.8
1047.8864	3192.5818	894.6	12.45
1047.9898	3193.5229	902.9	11.15
1048.0931	3194.4633	894.65	11.35
1048.1963	3195.4031	896.55	15.35
1048.2995	3196.3423	898.2	13.75
1048.4027	3197.2809	896.35	15.05
1048.5058	3198.2189	900.25	18.3
1048.6089	3199.1563	901.25	10.95
1048.7119	3200.0931	897	15.35
1048.8148	3201.0292	896	13.7
1048.9178	3201.9648	896.2	14.55
1049.0206	3202.8997	898.45	12.35
1049.1235	3203.834	894.1	11.95
1049.2262	3204.7677	895.7	14.8
1049.329	3205.7008	896.25	10.05
1049.4317	3206.6333	896.4	15.05
1049.5343	3207.5652	896.75	9.25
1049.6369	3208.4964	896	13.35
1049.7394	3209.4271	896.8	16.15
1049.8419	3210.3571	893.8	10.35
1049.9444	3211.2865	896.5	13.95
1050.0468	3212.2154	896.4	12.8
1050.1491	3213.1436	897.4	12.65
1050.2514	3214.0712	902.5	12.35
1050.3537	3214.9982	896.05	11.45
1050.4559	3215.9246	894.95	10.95
1050.5581	3216.8503	892.1	11.35
1050.6602	3217.7755	894.65	13.05
1050.7623	3218.7001	893.1	11.3
1050.8643	3219.624	896.45	13.85
1050.9663	3220.5473	895.85	11.6
1051.0682	3221.4701	894.45	11.1
1051.1701	3222.3922	897.4	10.7
1051.2719	3223.3137	894.05	11.2
1051.3737	3224.2346	893.6	10.3
1051.4754	3225.1549	894.55	12.65
1051.5771	3226.0746	896.8	14.35
1051.6788	3226.9937	894.65	8.3
1051.7804	3227.9121	894.4	13.1
1051.8819	3228.83	895.75	11.9
1051.9834	3229.7473	894.3	12
1052.0849	3230.6639	896.85	12.55
1052.1863	3231.5799	893.15	10.1
1052.2876	3232.4954	895.35	9.75
1052.3889	3233.4102	894.05	12.4
1052.4902	3234.3244	894	10.15
1052.5914	3235.238	894.5	12.75
1052.6926	3236.151	920.25	12.95
1052.7937	3237.0634	893.15	12.05
1052.8948	3237.9752	894.75	12.2
1052.9958	3238.8864	894.2	10.8
1053.0968	3239.797	892.8	8.55
1053.1977	3240.7069	895.45	11.2
1053.2986	3241.6163	895.45	10.65
1053.3994	3242.5251	894.6	13.8
1053.5002	3243.4332	892.85	10.65
1053.6009	3244.3408	893.45	11.25
1053.7016	3245.2477	892.65	10.35
1053.8022	3246.154	897.75	15.35
1053.9028	3247.0598	895.5	13.35
1054.0034	3247.9649	892.75	10.6
1054.1039	3248.8694	894	12
1054.2043	3249.7733	893.2	8.55
1054.3047	3250.6766	893.55	11.1
1054.4051	3251.5793	895.6	11.95
1054.5054	3252.4814	891.6	9.45
1054.6056	3253.3829	892.9	9.3
1054.7058	3254.2838	893.55	10.2
1054.806	3255.1841	891.45	10.25
1054.9061	3256.0838	891.65	9.5
1055.0061	3256.9829	891.55	8.55
1055.1062	3257.8814	894.6	10.1
1055.2061	3258.7792	894.35	8.85
1055.306	3259.6765	890.9	6.1
1055.4059	3260.5731	892	9.65
1055.5057	3261.4692	890.8	8.3
1055.6055	3262.3647	892.15	9.55
1055.7052	3263.2595	892.1	9.2
1055.8049	3264.1538	892.85	10.45
1055.9045	3265.0474	891.4	6.35
1056.0041	3265.9404	890.75	5.75
1056.1036	3266.8329	889.55	5.95
1056.2031	3267.7247	899.1	4.5
1056.3025	3268.616	889.05	6.9
1056.4019	3269.5066	890.35	5.95
1056.5013	3270.3966	892.35	7.55
1056.6005	3271.286	890.1	8.95
