Software Version:	3.9.2.0
Unit SN:	10000200
Spectrometer SN:	6960
Date:	3/26/2024 2:05:44 PM
Data Line Index:	25
Spectral Points:	2048
Integration time (ms):	125
Averages:	20
Delay (ms):	30000
Sequence Number:	1
Processing:	dark subtract
Laser Power (mW):	300
Laser Current (mA):	819
Laser Diode Temp (C):	25
Laser Case Temp (C):	27.4
System Temp (C):	27.4
Spectrometer Temp (C):	25.3
CCD Temp (C):	0.002
Secondary Temp (C):	20.006
Heatsink Temp (C):	22.645
CCDPCB Temp (C):	36.896
SecondaryPCB Temp (C):	34.628

Wavelength	RamanShift	Raw Counts	Dark Subtracted
787.061	30.1047	655	245.05
787.2016	32.3739	666.3	258.45
787.3422	34.6426	682.6	275.35
787.4828	36.9109	701.1	288.85
787.6235	39.1787	723.15	307.8
787.7642	41.4461	747.25	327.55
787.9049	43.7131	770.9	344.1
788.0456	45.9796	806.05	379.6
788.1863	48.2456	832.35	401.65
788.3271	50.5112	860.85	427.65
788.4679	52.7764	880.5	442.55
788.6087	55.0411	915	473.85
788.7496	57.3054	943.1	497.05
788.8904	59.5692	977.75	529.45
789.0313	61.8326	1018.8	566.8
789.1722	64.0955	1057.5	601.85
789.3132	66.3579	1114.85	652.8
789.4541	68.6199	1173.25	708.7
789.5951	70.8815	1271.05	803.7
789.7361	73.1426	1471.95	999.55
789.8771	75.4032	2006.6	1528.2
790.0181	77.6634	3317.5	2832.85
790.1592	79.9231	6616.1	6119
790.3003	82.1824	14186.1	13671.75
790.4414	84.4412	32683.8	32133.35
790.5825	86.6995	59159.65	58556.1
790.7237	88.9574	64697.5	64046.75
790.8648	91.2148	65497.85	64820
791.006	93.4717	65535	64828.75
791.1472	95.7282	65535	64816.25
791.2885	97.9842	65535	64818.3
791.4297	100.2398	65535	64810.8
791.571	102.4949	65535	64805.1
791.7123	104.7495	65535	64807.95
791.8536	107.0036	65535	64806.35
791.9949	109.2573	65535	64807.6
792.1363	111.5105	65535	64800.5
792.2777	113.7632	65535	64798.8
792.4191	116.0154	65535	64789.5
792.5605	118.2672	65535	64791.55
792.7019	120.5185	65535	64795.45
792.8434	122.7693	65535	64790.3
792.9849	125.0197	65535	64789.3
793.1264	127.2696	65535	64786.8
793.2679	129.519	65535	64786.55
793.4094	131.7679	65535	64777
793.551	134.0163	65535	64774.05
793.6926	136.2642	65535	64769.75
793.8342	138.5117	65535	64763.35
793.9758	140.7587	65535	64769.1
794.1175	143.0052	65535	64764.55
794.2591	145.2512	65535	64763.9
794.4008	147.4967	65535	64766.4
794.5425	149.7417	65535	64764.55
794.6842	151.9863	65535	64757.7
794.826	154.2304	65535	64751.7
794.9677	156.4739	65535	64753.7
795.1095	158.717	65535	64749.15
795.2513	160.9596	65535	64747.4
795.3931	163.2017	65535	64742.7
795.535	165.4433	65535	64742.5
795.6768	167.6844	65535	64744
795.8187	169.925	65535	64742.95
795.9606	172.1651	65535	64736.6
796.1025	174.4047	65535	64736.45
796.2445	176.6439	65535	64733.75
796.3864	178.8825	65531.45	64724.8
796.5284	181.1206	65535	64724.5
796.6704	183.3582	65535	64716.6
796.8124	185.5954	65535	64720.35
796.9544	187.832	65535	64714.45
797.0965	190.0681	65529.25	64705.9
797.2386	192.3037	65535	64711.3
797.3806	194.5388	65535	64709.2
797.5228	196.7734	65524.35	64692.55
797.6649	199.0075	65535	64698.3
797.807	201.2411	65535	64694.4
797.9492	203.4742	65535	64697
798.0914	205.7068	65535	64690.55
798.2336	207.9389	65535	64694.45
798.3758	210.1704	65535	64693.05
798.518	212.4015	65535	64693.5
798.6603	214.632	65535	64689.4
798.8025	216.862	65535	64698.2
798.9448	219.0915	65535	64700.95
799.0871	221.3205	65535	64710.1
799.2294	223.549	65535	64711.8
799.3718	225.777	65535	64707.75
799.5141	228.0044	65535	64709.05
799.6565	230.2314	65535	64713.25
799.7989	232.4578	65535	64712.2
799.9413	234.6837	65535	64703.8
800.0837	236.909	65535	64704.65
800.2262	239.1339	65535	64677.8
800.3687	241.3582	65535	64688.8
800.5111	243.582	65535	64661.75
800.6536	245.8053	65535	64676.4
800.7961	248.0281	65535	64678.75
800.9387	250.2503	65535	64671.85
801.0812	252.472	65535	64667.25
801.2238	254.6932	65535	64669
801.3664	256.9139	65535	64666.85
801.509	259.134	65535	64665.4
801.6516	261.3536	65535	64661.5
801.7942	263.5727	65535	64659.7
801.9369	265.7912	65535	64662.75
802.0795	268.0092	65535	64664.95
802.2222	270.2267	65535	64664.35
802.3649	272.4436	65535	64662.25
802.5076	274.6601	65535	64655
802.6504	276.8759	65535	64663.55
802.7931	279.0913	65535	64658.65
802.9359	281.3061	65535	64659.05
803.0787	283.5204	65535	64651.15
803.2215	285.7341	65535	64648.8
803.3643	287.9473	65535	64641.5
803.5071	290.16	65535	64643.35
803.6499	292.3721	65535	64646.45
803.7928	294.5837	65535	64647.45
803.9357	296.7947	65535	64648.75
804.0786	299.0052	65535	64648.65
804.2215	301.2152	65535	64645.2
804.3644	303.4246	65535	64643.7
804.5074	305.6334	65535	64648.95
804.6503	307.8418	65535	64647.35
804.7933	310.0495	65535	64644.2
804.9363	312.2568	65535	64643.95
805.0793	314.4635	65535	64639.05
805.2223	316.6696	65535	64640.5
805.3653	318.8752	65535	64633.85
805.5084	321.0802	65535	64637.4
805.6514	323.2847	65535	64633.7
805.7945	325.4887	65535	64634.25
805.9376	327.692	65535	64634.45
806.0807	329.8949	65535	64632.5
806.2238	332.0972	65535	64635
806.367	334.2989	65535	64628.5
806.5101	336.5001	65535	64628.25
806.6533	338.7007	65535	64629.4
806.7965	340.9008	65535	64627.6
806.9397	343.1003	65535	64625
807.0829	345.2992	65535	64630.75
807.2261	347.4976	65535	64621.85
807.3693	349.6955	65535	64620.5
807.5126	351.8927	65535	64621.95
807.6559	354.0895	65535	64606.4
807.7991	356.2856	65535	64615.85
807.9424	358.4812	65535	64618.8
808.0857	360.6763	65535	64620.5
808.2291	362.8707	65535	64616.3
808.3724	365.0646	65535	64613.45
808.5158	367.258	65535	64619.05
808.6591	369.4508	65535	64613.2
808.8025	371.643	65535	64612.35
808.9459	373.8346	65535	64607.9
809.0893	376.0257	65535	64603.8
809.2327	378.2162	65535	64607.25
809.3762	380.4062	65535	64608.65
809.5196	382.5956	65535	64603.4
809.6631	384.7844	65535	64608.9
809.8066	386.9726	65535	64607.55
809.9501	389.1603	65535	64608.55
810.0936	391.3474	65535	64576.1
810.2371	393.5339	65535	64605.75
810.3806	395.7199	65535	64615.15
810.5241	397.9052	65535	64612.7
810.6677	400.09	65535	64617.4
810.8113	402.2743	65535	64616.95
810.9548	404.4579	65535	64621.85
811.0984	406.641	65535	64615.4
811.2421	408.8235	65535	64617.3
811.3857	411.0054	65535	64614.05
811.5293	413.1868	65535	64616.9
811.673	415.3675	65535	64607.25
811.8166	417.5477	65535	64605.95
811.9603	419.7273	65535	64606.95
812.104	421.9064	65535	64602.95
812.2477	424.0848	65535	64606.5
812.3914	426.2627	65535	64606.1
812.5351	428.4399	65535	64601.6
812.6788	430.6166	65535	64597.9
812.8226	432.7928	65535	64597.95
812.9663	434.9683	65535	64607.9
813.1101	437.1432	65535	64602.25
813.2539	439.3176	65535	64605.85
813.3977	441.4914	65535	64612.2
813.5415	443.6645	65535	64606
813.6853	445.8371	65535	64600.15
813.8291	448.0091	65535	64599
813.973	450.1806	65530.95	64604.6
814.1168	452.3514	65534.95	64609.8
814.2607	454.5216	65525.65	64584.35
814.4046	456.6913	65535	64600.95
814.5485	458.8603	65535	64609.4
814.6924	461.0288	65524.7	64602.75
814.8363	463.1967	65535	64616.25
814.9802	465.3639	65535	64609.25
815.1241	467.5306	65518.95	64589.55
815.2681	469.6967	65533.15	64614.85
815.412	471.8622	65535	64609.95
815.556	474.0271	65530.05	64601.1
815.7	476.1914	65533.45	64598
815.844	478.3551	65534.1	64599.9
815.988	480.5182	65535	64607.05
816.132	482.6807	65527.65	64604.65
816.276	484.8426	65527.9	64616.15
816.4201	487.0039	65535	64617.6
816.5641	489.1647	65535	64598.8
816.7082	491.3248	65530.2	64598
816.8522	493.4843	65535	64611.05
816.9963	495.6432	65535	64610.2
817.1404	497.8015	65533.2	64593.75
817.2845	499.9592	65535	64589.8
817.4286	502.1163	65535	64590.15
817.5727	504.2728	65535	64603.7
817.7168	506.4287	65534.75	64615.3
817.861	508.5839	65526.9	64605.35
818.0051	510.7386	65535	64605.7
818.1493	512.8927	65531.35	64588.3
818.2935	515.0461	65530.4	64593.15
818.4377	517.199	65535	64595.45
818.5818	519.3512	65523.05	64587.05
818.726	521.5029	65529.3	64591.1
818.8703	523.6539	65529.15	64589.75
819.0145	525.8043	65508.25	64564.45
819.1587	527.9541	65528.15	64584
819.303	530.1033	65528.75	64589.5
819.4472	532.2519	65522	64586.5
819.5915	534.3999	65535	64592.75
819.7357	536.5472	65535	64596.25
819.88	538.694	65524.65	64588.45
820.0243	540.8401	65535	64591
820.1686	542.9856	65535	64583.45
820.3129	545.1305	65535	64574.45
820.4572	547.2748	65534.4	64572.75
820.6016	549.4185	65527.7	64564
820.7459	551.5615	65535	64578.55
820.8902	553.704	65535	64578.2
821.0346	555.8458	65529.3	64580.15
821.1789	557.987	65531.55	64581.05
821.3233	560.1276	65534.55	64582.9
821.4677	562.2675	65525.6	64571.7
821.6121	564.4069	65528.25	64570.75
821.7565	566.5456	65535	64583.15
821.9009	568.6837	65522.3	64575.5
822.0453	570.8212	65527.1	64576.85
822.1897	572.958	65486.3	64540.65
822.3342	575.0942	65523.85	64578.8
822.4786	577.2299	65505.7	64565.2
822.6231	579.3648	65494.95	64570.25
822.7675	581.4992	65492.85	64578.85
822.912	583.6329	65500.15	64585.3
823.0565	585.766	65506.4	64585.95
823.201	587.8985	65519.6	64586.45
823.3454	590.0304	65458.2	64508.9
823.4899	592.1616	65495.3	64545.95
823.6345	594.2922	65474.3	64521.95
823.779	596.4222	65429.5	64478.35
823.9235	598.5515	65445.95	64489.8
824.068	600.6802	65489.4	64533.55
824.2126	602.8083	65421.25	64470.9
824.3571	604.9358	65411.75	64458.2
824.5017	607.0626	65462.4	64507.9
824.6462	609.1888	65385.3	64422.75
824.7908	611.3144	65424.95	64461.9
824.9354	613.4393	65401.35	64440
825.08	615.5636	65363.75	64403.35
825.2246	617.6873	65395.75	64436.65
825.3692	619.8103	65348.75	64389.5
825.5138	621.9327	65416.6	64462.7
825.6584	624.0544	65412	64464
825.803	626.1756	65387.95	64438.75
825.9477	628.2961	65385.2	64428.3
826.0923	630.4159	65355.85	64394.7
826.237	632.5351	65332.2	64373.85
826.3816	634.6537	65418.25	64460
826.5263	636.7716	65328	64362.4
826.6709	638.8889	65345.6	64379.35
826.8156	641.0056	65354.65	64387.15
826.9603	643.1216	65370.15	64406.75
827.105	645.237	65384.5	64420.7
827.2497	647.3518	65334.5	64380.55
827.3944	649.4659	65350.45	64403.4
827.5391	651.5793	65353.45	64403.65
827.6838	653.6922	65368.9	64415.85
827.8285	655.8043	65301.25	64347.3
827.9733	657.9159	65381.4	64428
828.118	660.0268	65240.85	64281.65
828.2627	662.137	65326.95	64373.4
828.4075	664.2466	65331.95	64368.4
828.5522	666.3556	65300.95	64339.7
828.697	668.4639	65322	64363.7
828.8418	670.5716	65290.6	64337.05
828.9865	672.6786	65330.3	64372.05
829.1313	674.785	65279.25	64314
829.2761	676.8907	65281.95	64323.75
829.4209	678.9958	65307.4	64356.15
829.5657	681.1002	65317.9	64360.7
829.7105	683.204	65269.5	64298.4
829.8553	685.3072	65239.45	64274.05
830.0001	687.4097	65265.25	64300.2
830.1449	689.5115	65242.8	64278.55
830.2898	691.6127	65297.35	64336.65
830.4346	693.7132	65246.3	64290.15
830.5794	695.8131	65248.85	64267.8
830.7243	697.9123	65256.9	64288.9
830.8691	700.0109	65257.6	64286.8
831.014	702.1089	65186.95	64223
831.1588	704.2061	65217.95	64252.65
831.3037	706.3028	65226	64261.8
831.4486	708.3987	65248	64284.55
831.5935	710.4941	65228.05	64268.9
831.7383	712.5887	65258.45	64297.5
831.8832	714.6827	65233.1	64269.2
832.0281	716.7761	65275.85	64320.4
832.173	718.8688	65293.55	64332.25
832.3179	720.9608	65238.6	64269.8
832.4628	723.0522	65259.4	64284.45
832.6077	725.1429	65207.35	64239.2
832.7527	727.233	65302.95	64334.65
832.8976	729.3224	65073.9	64111.75
833.0425	731.4112	65160.2	64193.8
833.1874	733.4993	65163.5	64194.4
833.3324	735.5867	65175.5	64211.25
833.4773	737.6735	65116.75	64147.1
833.6222	739.7596	65047.15	64079.55
833.7672	741.845	65044.05	64081.85
833.9122	743.9298	65130.8	64165.6
834.0571	746.014	65046.2	64078.4
834.2021	748.0974	64973.1	63999.9
834.347	750.1802	65112.2	64139.75
834.492	752.2624	64951.6	63980.1
834.637	754.3439	64967.25	63995.05
834.782	756.4247	65002	64022.75
834.9269	758.5048	64943.5	63973.5
835.0719	760.5843	64972.85	63998.7
835.2169	762.6631	65028	64050.6
835.3619	764.7413	64989.9	64017.75
835.5069	766.8188	65007.45	64035.75
835.6519	768.8956	65059.05	64088.5
835.7969	770.9718	65052.45	64086.25
835.9419	773.0473	65030.75	64053.8
836.0869	775.1221	64937.55	63966.9
836.232	777.1962	64932.4	63961.7
836.377	779.2697	64820.8	63852.25
836.522	781.3426	64890.55	63902.65
836.667	783.4147	64928.8	63958.2
836.8121	785.4862	64922.75	63947.95
836.9571	787.557	64825.6	63852.3
837.1021	789.6271	64913	63938.4
837.2472	791.6966	64798.15	63827.85
837.3922	793.7654	64667.25	63693.3
837.5373	795.8335	64670.3	63700.2
837.6823	797.901	64681.2	63709.9
837.8274	799.9678	64609.95	63630.05
837.9724	802.0339	64606.95	63630.5
838.1175	804.0993	64620.1	63632.35
838.2626	806.1641	64575.65	63602.25
838.4076	808.2282	64542.65	63572.9
838.5527	810.2916	64496.45	63527.25
838.6978	812.3544	64561.15	63589.6
838.8428	814.4164	64409.8	63440.15
838.9879	816.4778	64443.05	63469.4
839.133	818.5385	64443.75	63470.65
839.2781	820.5986	64427.35	63451.85
839.4232	822.658	64443.05	63466.15
839.5682	824.7166	64447.85	63471.55
839.7133	826.7747	64326.25	63350.8
839.8584	828.832	64393.35	63417.05
840.0035	830.8886	64459.55	63477.45
840.1486	832.9446	64456.3	63481.7
840.2937	834.9999	64218.25	63245.7
840.4388	837.0545	64347.65	63364.55
840.5839	839.1085	64417.15	63438.1
840.729	841.1618	64369.3	63391.55
840.8741	843.2143	64195.15	63223
841.0192	845.2662	64202.05	63228.55
841.1643	847.3175	64235.5	63259.6
841.3095	849.368	64028.95	63051.55
841.4546	851.4179	64162.65	63189.7
841.5997	853.467	64036.9	63057.85
841.7448	855.5155	64109.3	63132.55
841.8899	857.5633	63992.65	63013.5
842.0351	859.6105	63924.05	62948.1
842.1802	861.6569	63980.35	63006.7
842.3253	863.7027	63830.4	62857.45
842.4704	865.7478	63870.55	62896.55
842.6156	867.7922	63840.05	62864.85
842.7607	869.8359	63930.75	62951.5
842.9058	871.8789	63777.35	62795.45
843.0509	873.9212	63879.95	62872
843.1961	875.9629	63869.65	62889.85
843.3412	878.0039	63868.1	62889.65
843.4863	880.0441	63808.15	62831.4
843.6315	882.0837	63804.6	62831.35
843.7766	884.1226	63785.5	62809.5
843.9218	886.1609	63769.7	62795.65
844.0669	888.1984	63690.75	62714
844.212	890.2352	63788.25	62811.4
844.3572	892.2714	63621.2	62638.25
844.5023	894.3069	63684.2	62707.1
844.6475	896.3416	63602.65	62627.7
844.7926	898.3757	63600	62621.55
844.9377	900.4091	63454.15	62474.7
845.0829	902.4418	63611.35	62629.05
845.228	904.4739	63500.65	62516.1
845.3732	906.5052	63543.55	62564.25
845.5183	908.5358	63443.95	62464.1
845.6635	910.5658	63362.05	62383
845.8086	912.595	63347.95	62373.95
845.9538	914.6236	63113.95	62138.85
846.0989	916.6515	63394.2	62419.6
846.2441	918.6786	63090.35	62109.95
846.3892	920.7051	63168.5	62187.45
846.5344	922.7309	63119.85	62138.55
846.6795	924.756	63171.3	62193.65
846.8246	926.7804	63092.5	62111.7
846.9698	928.8041	62790.65	61814.6
847.1149	930.8272	62988.8	62011.6
847.2601	932.8495	62987.8	62010.1
847.4052	934.8711	62781.25	61801.4
847.5504	936.892	62598.05	61617.1
847.6955	938.9123	62652.25	61669.3
847.8407	940.9318	62502.45	61519.4
847.9858	942.9506	62446.05	61467.25
848.131	944.9688	62465.45	61487.55
848.2761	946.9862	62074.9	61094.55
848.4213	949.003	62202.15	61220.05
848.5664	951.019	61861.3	60880.85
848.7115	953.0344	61966.1	60987.35
848.8567	955.0491	61840.15	60857.3
849.0018	957.063	62034	61056.75
849.147	959.0763	62075.05	61088.15
849.2921	961.0888	61719.75	60740.9
849.4373	963.1007	61971.95	60993.35
849.5824	965.1119	61963.75	60990.3
849.7275	967.1223	61681.45	60721.25
849.8727	969.1321	61972.75	61013.5
850.0178	971.1412	61547.3	60578
850.1629	973.1495	61353.55	60378.85
850.3081	975.1572	61634.4	60604.7
850.4532	977.1641	61379.65	60399.85
850.5983	979.1704	61340.75	60359.55
850.7435	981.1759	61359.4	60379.5
850.8886	983.1808	61069.75	60086.65
851.0337	985.1849	61089.4	60099.45
851.1788	987.1884	61199.45	60223.2
851.324	989.1911	61445.55	60471.35
851.4691	991.1932	60710.6	59733.4
851.6142	993.1945	60926.3	59952
851.7593	995.1951	61106.3	60128.95
851.9045	997.1951	60652	59669.6
852.0496	999.1943	60511.45	59536.95
852.1947	1001.1928	60347.25	59370.15
852.3398	1003.1906	60459.5	59485.55
852.4849	1005.1877	59895.3	58920.2
852.63	1007.1841	59764.95	58791.45
852.7751	1009.1798	59739.15	58764.7
852.9202	1011.1748	59629.8	58655.2
853.0653	1013.1691	59489.35	58515.9
853.2104	1015.1627	58097.6	57122.25
853.3555	1017.1556	58619.65	57647.3
853.5006	1019.1477	58765.3	57792.75
853.6457	1021.1392	58090.55	57125.05
853.7908	1023.1299	57323.3	56362.4
853.9359	1025.12	57782	56826.8
854.081	1027.1093	57391.3	56449.25
854.2261	1029.0979	57397.95	56459.95
854.3712	1031.0859	57312.5	56365.45
854.5163	1033.0731	56655.4	55694.9
854.6613	1035.0596	56899.9	55934.9
854.8064	1037.0454	56650.1	55681.95
854.9515	1039.0304	56267.55	55298.65
855.0965	1041.0148	55494.7	54524.35
855.2416	1042.9985	55601.8	54627.65
855.3867	1044.9814	55932.7	54967.2
855.5317	1046.9636	55188.5	54217.8
855.6768	1048.9452	55236.6	54269.05
855.8219	1050.926	55086.65	54118.25
855.9669	1052.9061	55025.5	54058.45
856.112	1054.8855	55007.9	54037
856.257	1056.8642	54654.05	53680.55
856.4021	1058.8421	54363.45	53384.9
856.5471	1060.8194	54409.25	53437.35
856.6921	1062.7959	54196.95	53223.95
856.8372	1064.7717	54429.85	53456
856.9822	1066.7469	54151.65	53179.25
857.1272	1068.7213	54112.25	53140.8
857.2723	1070.695	53868.25	52896.35
857.4173	1072.6679	53444.1	52472.65
857.5623	1074.6402	53612.6	52639.8
857.7073	1076.6117	53296.35	52322.95
857.8523	1078.5826	53279.55	52307.1
857.9973	1080.5527	53242.7	52269
858.1423	1082.5221	52969.6	51996.55
858.2873	1084.4908	53181.85	52210.7
858.4323	1086.4587	53117.7	52143.45
858.5773	1088.426	53187.25	52216.1
858.7223	1090.3925	53041.7	52066.85
858.8673	1092.3584	52880.95	51910.6
859.0123	1094.3235	52381.2	51413.4
859.1573	1096.2879	52268.4	51300.15
859.3022	1098.2515	52246.05	51277.8
859.4472	1100.2145	52054.3	51082.8
859.5922	1102.1767	51982.5	51013.05
859.7371	1104.1382	52114.7	51143.7
859.8821	1106.099	52051.65	51077.55
860.027	1108.0591	52007.35	51038.55
860.172	1110.0185	51656.45	50683.1
860.3169	1111.9771	52030.85	51063.4
860.4619	1113.9351	51544.35	50574.95
860.6068	1115.8923	51071.05	50103.4
860.7517	1117.8488	50656.4	49687
860.8967	1119.8045	50100.45	49133.4
861.0416	1121.7596	50003.1	49035.4
861.1865	1123.7139	49719.4	48754
861.3314	1125.6675	49747.15	48780.15
861.4763	1127.6204	49644	48674.1
861.6212	1129.5726	49342.05	48372.1
861.7661	1131.524	49433.3	48463.6
861.911	1133.4748	49448.9	48483.5
862.0559	1135.4248	49114.85	48146.9
862.2008	1137.3741	49049.8	48082.15
862.3457	1139.3226	48928.7	47955.95
862.4905	1141.2705	48798.5	47828.45
862.6354	1143.2176	48507.4	47533.55
862.7803	1145.164	48330.25	47362
862.9251	1147.1097	48294.1	47324.35
863.07	1149.0546	48227.85	47261.35
863.2148	1150.9989	48152.1	47185.95
863.3597	1152.9424	47804.95	46841.2
863.5045	1154.8852	47640.2	46674.65
863.6493	1156.8272	47398.8	46431.95
863.7942	1158.7686	47446.55	46473.25
863.939	1160.7092	47021.75	46053.05
864.0838	1162.6491	46883.95	45910.65
864.2286	1164.5883	46902.2	45934.3
864.3734	1166.5267	46822.15	45855.95
864.5182	1168.4644	46898.55	45930.35
864.663	1170.4014	46974.6	46002.9
864.8078	1172.3377	47137	46170.85
864.9526	1174.2732	47301.1	46336.65
865.0974	1176.2081	47304.35	46337.35
865.2421	1178.1421	47336.4	46364.25
865.3869	1180.0755	47586.7	46622.7
865.5317	1182.0082	47381.25	46417.5
865.6764	1183.9401	47353.9	46390.5
865.8212	1185.8713	46977.35	46020.8
865.9659	1187.8017	46693.45	45744.75
866.1106	1189.7315	46433.75	45494.05
866.2554	1191.6605	45945.7	45003.95
866.4001	1193.5888	45574.9	44628.65
866.5448	1195.5163	45385	44428.05
866.6895	1197.4432	45197.35	44235.65
866.8342	1199.3693	45053.25	44093.7
866.9789	1201.2947	44864.7	43899.8
867.1236	1203.2193	44625.5	43660.75
867.2683	1205.1432	44505.05	43542.7
867.413	1207.0664	44427.95	43466.15
867.5576	1208.9889	44338.4	43375.4
867.7023	1210.9106	44181.55	43219.95
867.847	1212.8316	44042.85	43077.55
867.9916	1214.7519	44026.75	43055.05
868.1363	1216.6715	43886.5	42925.05
868.2809	1218.5903	43826.2	42864
868.4255	1220.5084	43669.6	42706.55
868.5701	1222.4257	43600.85	42637.35
868.7148	1224.3424	43298.85	42341.1
868.8594	1226.2583	43272.3	42305.55
869.004	1228.1735	43301.65	42340.95
869.1486	1230.0879	43083.7	42124
869.2932	1232.0016	43148.3	42186.2
869.4377	1233.9146	43013.45	42048.9
869.5823	1235.8269	42836.65	41874.85
869.7269	1237.7384	42659.5	41701.7
869.8715	1239.6492	42295.7	41335.1
870.016	1241.5592	42185.65	41225.15
870.1606	1243.4686	41926.75	40965.25
870.3051	1245.3772	41751.85	40791
870.4496	1247.285	41619.45	40658.3
870.5941	1249.1922	41456.25	40497.4
870.7387	1251.0986	41366.1	40406.35
870.8832	1253.0042	41186.3	40224.45
871.0277	1254.9092	41188.25	40228.25
871.1722	1256.8134	41109.25	40155.1
871.3167	1258.7169	41221.45	40261.75
871.4611	1260.6196	41228.7	40271.6
871.6056	1262.5216	41293.1	40333.85
871.7501	1264.4229	41362.45	40407.5
871.8945	1266.3234	41445.65	40487.5
872.039	1268.2232	41406	40447.95
872.1834	1270.1223	41313	40353.45
872.3278	1272.0207	41185.8	40227.1
872.4723	1273.9183	41044	40081.2
872.6167	1275.8151	40872.05	39913
872.7611	1277.7113	40757.05	39797.5
872.9055	1279.6067	40506.1	39552.2
873.0499	1281.5014	40300.75	39340.15
873.1943	1283.3953	40113.35	39152.6
873.3386	1285.2885	40036	39078.65
873.483	1287.181	39917.35	38960.9
873.6274	1289.0727	40034.7	39080.9
873.7717	1290.9637	39855.4	38897.9
873.9161	1292.854	40017.45	39061.4
874.0604	1294.7435	39983.5	39024.65
874.2047	1296.6323	40058.75	39103.1
874.349	1298.5204	40193.7	39235.4
874.4933	1300.4077	40320.95	39363.9
874.6376	1302.2943	40369.8	39412.95
874.7819	1304.1802	40393.7	39436.25
874.9262	1306.0653	40199.7	39240.8
875.0705	1307.9497	39911.35	38957.05
875.2147	1309.8333	39735.2	38778.15
875.359	1311.7162	39645.15	38687.1
875.5032	1313.5984	39598.75	38637.85
875.6475	1315.4798	39589.4	38621.1
875.7917	1317.3605	39535.6	38571.9
875.9359	1319.2405	39715	38753.1
876.0801	1321.1197	39603.1	38644.05
876.2243	1322.9982	39372.1	38410.55
876.3685	1324.876	39398.25	38443.2
876.5127	1326.753	39160.15	38205.65
876.6569	1328.6293	39155.2	38195.8
876.801	1330.5048	39180.15	38218.15
876.9452	1332.3796	39012.4	38055.65
877.0893	1334.2537	38979.75	38001
877.2335	1336.127	38792.65	37836.9
877.3776	1337.9996	38667.25	37711.95
877.5217	1339.8714	38556.95	37598.9
877.6658	1341.7426	38455.55	37451.5
877.8099	1343.6129	38401.65	37444.95
877.954	1345.4826	38256.5	37301.15
878.0981	1347.3515	38257.2	37296.15
878.2422	1349.2196	38051.05	37097.65
878.3862	1351.087	38092.2	37137.35
878.5303	1352.9537	38021.5	37061.8
878.6743	1354.8197	38062.65	37102.9
878.8184	1356.6849	38198.1	37240
878.9624	1358.5493	38194.5	37235.25
879.1064	1360.4131	38118.05	37162.45
879.2504	1362.276	37980.1	37026.95
879.3944	1364.1383	37760.35	36805.9
879.5384	1365.9998	37553.55	36594.15
879.6823	1367.8606	37105.05	36146.4
879.8263	1369.7206	36717.1	35761.85
879.9702	1371.5799	36409.85	35451.95
880.1142	1373.4384	36186.35	35227.25
880.2581	1375.2962	36032	35079.9
880.402	1377.1533	35689.7	34739.25
880.5459	1379.0096	35240.75	34289.3
880.6898	1380.8652	34919.1	33971.6
880.8337	1382.7201	34582.35	33635.75
880.9776	1384.5742	34199.55	33246.5
881.1215	1386.4275	33964.6	33007.7
881.2653	1388.2802	33810.3	32855.5
881.4092	1390.132	33579.25	32625.1
881.553	1391.9832	33503.55	32546.45
881.6968	1393.8336	33299.7	32346.85
881.8406	1395.6832	33155.35	32198.8
881.9844	1397.5322	32984.3	32030.3
882.1282	1399.3803	32832.1	31876.4
882.272	1401.2278	32658.65	31705.85
882.4158	1403.0745	32599.35	31650.7
882.5595	1404.9204	32441.8	31490
882.7033	1406.7656	32404.95	31453.55
882.847	1408.6101	32292.8	31337.65
882.9908	1410.4538	32189.25	31236.5
883.1345	1412.2968	32142.85	31191.45
883.2782	1414.139	32019	31068.7
883.4219	1415.9805	32061.85	31108.1
883.5656	1417.8213	32003.35	31032.35
883.7092	1419.6613	32029.55	31079.5
883.8529	1421.5006	32134.7	31185.55
883.9965	1423.3391	32248.95	31294.95
884.1402	1425.1769	32408.95	31455.15
884.2838	1427.0139	32820.65	31871.7
884.4274	1428.8502	33314.55	32361.15
884.571	1430.6858	33749.5	32798.75
884.7146	1432.5206	33978.25	33025.55
884.8582	1434.3547	34207.7	33253.05
885.0018	1436.188	34180.05	33227.9
885.1453	1438.0206	34106.05	33156.3
885.2889	1439.8524	33860.9	32911.5
885.4324	1441.6835	33757.95	32807.9
885.5759	1443.5139	33559.2	32604.7
885.7194	1445.3435	33388.6	32441.65
885.8629	1447.1724	33276.5	32330.5
886.0064	1449.0005	33204.75	32256.1
886.1499	1450.8279	33077.25	32130.35
886.2933	1452.6545	32983.45	32034.45
886.4368	1454.4804	33005.6	32059.3
886.5802	1456.3056	32892.15	31936.9
886.7237	1458.13	32760.9	31815.15
886.8671	1459.9536	32562.5	31615.05
887.0105	1461.7766	32224.3	31275.85
887.1539	1463.5987	31702.35	30752.4
887.2972	1465.4202	31297.3	30350.05
887.4406	1467.2409	30846.15	29897.45
887.584	1469.0608	30626.6	29676.85
887.7273	1470.88	30352.65	29405.35
887.8706	1472.6984	30069.6	29121.85
888.0139	1474.5161	29812.35	28863.7
888.1572	1476.3331	29612.55	28668.65
888.3005	1478.1493	29436.55	28489.2
888.4438	1479.9648	29298.8	28351.05
888.5871	1481.7795	29187.05	28240.35
888.7303	1483.5935	29093.15	28143.75
888.8736	1485.4067	28941.55	27993.1
889.0168	1487.2192	28877.4	27926.35
889.16	1489.031	28800	27849.55
889.3032	1490.842	28637.65	27690.6
889.4464	1492.6522	28633.35	27685.65
889.5896	1494.4618	28539.3	27589.65
889.7327	1496.2705	28481.55	27533.3
889.8759	1498.0785	28364.35	27413.8
890.019	1499.8858	28313.6	27366.4
890.1622	1501.6924	28222.2	27276.1
890.3053	1503.4981	28162.65	27217.1
890.4484	1505.3032	28106.2	27158.7
890.5914	1507.1075	27989.4	27041.45
890.7345	1508.911	27915.3	26968.7
890.8776	1510.7138	27841.8	26894.5
891.0206	1512.5159	27730.6	26784
891.1637	1514.3172	27661.6	26718.6
891.3067	1516.1178	27518	26572.35
891.4497	1517.9176	27503.25	26555
891.5927	1519.7166	27320.2	26376.95
891.7357	1521.515	27268.5	26320.1
891.8786	1523.3126	27222	26277.85
892.0216	1525.1094	27080.75	26136.35
892.1645	1526.9055	26986	26044.2
892.3074	1528.7008	26875.7	25934.95
892.4503	1530.4954	26717.15	25768
892.5932	1532.2893	26695.15	25756.4
892.7361	1534.0824	26526.85	25581.95
892.879	1535.8747	26517.1	25579.45
893.0218	1537.6663	26417.1	25479.55
893.1647	1539.4572	26311.65	25374.55
893.3075	1541.2473	26289.55	25350.8
893.4503	1543.0367	26170.3	25233.45
893.5931	1544.8253	26079.5	25137.6
893.7359	1546.6132	26056.7	25116.6
893.8787	1548.4003	25922.8	24975.05
894.0214	1550.1867	25871.35	24926.65
894.1642	1551.9723	25843.5	24902.5
894.3069	1553.7572	25849.3	24914.5
894.4496	1555.5414	25753.1	24816.5
894.5923	1557.3247	25743.05	24811.45
894.735	1559.1074	25734.15	24804.4
894.8777	1560.8893	25718	24786.45
895.0204	1562.6705	25705.2	24774.5
895.163	1564.4509	25741.65	24811.25
895.3056	1566.2305	25715.4	24789
895.4482	1568.0094	25813.9	24886.55
895.5908	1569.7876	25801	24871.3
895.7334	1571.565	25811.15	24878.5
895.876	1573.3417	25786.85	24855.8
896.0186	1575.1176	25695.85	24763.85
896.1611	1576.8928	25633.3	24707.4
896.3036	1578.6672	25475.1	24555.25
896.4461	1580.4409	25313.2	24393.9
896.5886	1582.2138	25144.5	24220.15
896.7311	1583.986	24979.35	24052.75
896.8736	1585.7575	24895.15	23966.3
897.0161	1587.5282	24770	23847.3
897.1585	1589.2981	24671.9	23752.2
897.3009	1591.0673	24526.65	23605.15
897.4433	1592.8358	24518.25	23597.5
897.5857	1594.6035	24431.45	23505.55
897.7281	1596.3704	24427.3	23498.8
897.8705	1598.1366	24383.15	23458.35
898.0128	1599.9021	24332.1	23409.95
898.1551	1601.6668	24272.9	23347.55
898.2975	1603.4308	24299.45	23371.55
898.4398	1605.194	24341.1	23410.45
898.5821	1606.9564	24355.6	23438.4
898.7243	1608.7182	24406.75	23491.95
898.8666	1610.4791	24423.05	23515.35
899.0088	1612.2394	24526	23618.15
899.1511	1613.9988	24589.2	23681.35
899.2933	1615.7576	24773.75	23858.05
899.4355	1617.5156	24944.75	24014.6
899.5776	1619.2728	25118.2	24191.8
899.7198	1621.0293	25208.8	24283.35
899.862	1622.785	25166.1	24246.25
900.0041	1624.54	25001.2	24086.5
900.1462	1626.2942	24900.3	23984.7
900.2883	1628.0477	24551.15	23633.05
900.4304	1629.8005	24319	23398.1
900.5725	1631.5525	24077.65	23165.25
900.7145	1633.3037	23812.6	22897.15
900.8566	1635.0542	23656.6	22740.7
900.9986	1636.804	23504.3	22587.9
901.1406	1638.553	23444	22476.6
901.2826	1640.3013	23258.9	22341.45
901.4245	1642.0488	23133.7	22212.85
901.5665	1643.7955	23170.7	22258.05
901.7085	1645.5416	23118.1	22206.4
901.8504	1647.2868	23170.05	22255.2
901.9923	1649.0313	23178.7	22258.15
902.1342	1650.7751	23287.75	22367.75
902.2761	1652.5181	23384.55	22469.15
902.4179	1654.2604	23458.9	22549.5
902.5598	1656.0019	23699.35	22787.35
902.7016	1657.7427	23945.9	23030.4
902.8434	1659.4828	24207.7	23290.3
902.9852	1661.222	24359.85	23439.85
903.127	1662.9606	24307.85	23388.95
903.2687	1664.6984	24168.85	23252
903.4105	1666.4354	23813.15	22891.25
903.5522	1668.1717	23311	22388.8
903.6939	1669.9072	22783.55	21861.6
903.8356	1671.642	22360.2	21437.2
903.9773	1673.3761	22059.15	21139.55
904.119	1675.1094	21751.45	20834.3
904.2606	1676.8419	21468.9	20551.1
904.4022	1678.5737	21250.25	20332.6
904.5439	1680.3048	21121.8	20200.5
904.6855	1682.0351	20921.25	20003.7
904.827	1683.7646	20799.85	19879.25
904.9686	1685.4934	20692.7	19775.85
905.1101	1687.2215	20596.15	19680
905.2517	1688.9488	20445.85	19529.1
905.3932	1690.6754	20339.05	19425.9
905.5347	1692.4012	20321.55	19403.6
905.6761	1694.1263	20257.95	19339.2
905.8176	1695.8506	20184.45	19265.4
905.9591	1697.5742	20116.25	19206.2
906.1005	1699.297	19988.75	19080.5
906.2419	1701.0191	19852.7	18942.15
906.3833	1702.7404	19816.05	18904.9
906.5246	1704.461	19676.8	18764.2
906.666	1706.1808	19599.9	18685.85
906.8073	1707.8999	19547.65	18635.3
906.9487	1709.6182	19473.3	18566.4
907.09	1711.3358	19428.8	18523.65
907.2313	1713.0527	19387.4	18482.5
907.3725	1714.7688	19267.85	18356.5
907.5138	1716.4841	19224.75	18313.9
907.655	1718.1987	19205.6	18290.2
907.7962	1719.9126	19077.4	18170.35
907.9374	1721.6257	19040.2	18133.4
908.0786	1723.338	18999.3	18094.55
908.2198	1725.0496	18903.45	17994.25
908.3609	1726.7605	18857.95	17949.15
908.502	1728.4706	18788.45	17879.65
908.6431	1730.18	18661.35	17754.65
908.7842	1731.8886	18634.1	17731.1
908.9253	1733.5964	18600.15	17672.7
909.0664	1735.3036	18551.1	17641.95
909.2074	1737.0099	18487.2	17581.15
909.3484	1738.7156	18450.8	17547.65
909.4894	1740.4204	18346	17434.2
909.6304	1742.1246	18331.85	17423.45
909.7714	1743.8279	18254.95	17350.2
909.9123	1745.5306	18258.45	17353.25
910.0532	1747.2325	18202.8	17298.25
910.1941	1748.9336	18097.45	17192.65
910.335	1750.634	18009.8	17103.6
910.4759	1752.3336	17980.05	17075.05
910.6168	1754.0325	17950.1	17047.2
910.7576	1755.7307	17909.4	17004.9
910.8984	1757.4281	17894	16985.65
911.0392	1759.1247	17882.9	16962.5
911.18	1760.8206	17812.75	16895.55
911.3208	1762.5158	17798.15	16884.65
911.4615	1764.2102	17710.9	16804.4
911.6022	1765.9039	17667.45	16763
911.7429	1767.5968	17608.55	16707.1
911.8836	1769.289	17580.35	16677.75
912.0243	1770.9804	17531.85	16624.15
912.1649	1772.6711	17487.45	16577.25
912.3056	1774.361	17474.8	16563.85
912.4462	1776.0502	17412.5	16502.75
912.5868	1777.7386	17399.85	16488.6
912.7274	1779.4263	17307.35	16403.5
912.8679	1781.1132	17298.15	16396.2
913.0084	1782.7994	17240.8	16341.65
913.149	1784.4849	17184.85	16284.05
913.2895	1786.1696	17163.35	16255.2
913.4299	1787.8535	17097.25	16198.75
913.5704	1789.5367	17049.95	16151.2
913.7108	1791.2192	17029.45	16129.5
913.8513	1792.9009	16991.65	16060.9
913.9917	1794.5818	16917.15	16010.65
914.132	1796.2621	16880.6	15975.7
914.2724	1797.9415	16824.6	15916.7
914.4128	1799.6202	16788.1	15882.2
914.5531	1801.2982	16738.15	15832.35
914.6934	1802.9755	16721.2	15814.9
914.8337	1804.6519	16689.15	15782.7
914.9739	1806.3277	16598.25	15696.2
915.1142	1808.0027	16546.35	15648.3
915.2544	1809.6769	16557.2	15657.45
915.3946	1811.3504	16472.15	15574.7
915.5348	1813.0231	16441.9	15542.85
915.675	1814.6951	16433.05	15531.8
915.8151	1816.3664	16449.55	15545.05
915.9553	1818.0369	16393.4	15487.95
916.0954	1819.7067	16292.7	15389.3
916.2355	1821.3757	16300.75	15393.6
916.3755	1823.044	16223.25	15316.15
916.5156	1824.7115	16232.6	15326.95
916.6556	1826.3783	16135.3	15229.1
916.7956	1828.0443	16071	15168.4
916.9356	1829.7096	16082.75	15180.4
917.0756	1831.3741	16083.35	15177.2
917.2155	1833.0379	15979.1	15079.9
917.3555	1834.701	15917.8	15017.7
917.4954	1836.3633	15915	15015.65
917.6353	1838.0248	15896.7	14996.65
917.7751	1839.6856	15836	14934.45
917.915	1841.3457	15854.4	14952.8
918.0548	1843.005	15809.15	14904.8
918.1946	1844.6636	15769.25	14868.05
918.3344	1846.3214	15722.85	14819
918.4742	1847.9785	15705.85	14802.95
918.6139	1849.6349	15668.05	14761.05
918.7537	1851.2904	15636.05	14720.5
918.8934	1852.9453	15593.15	14686.4
919.0331	1854.5994	15552.45	14645.4
919.1727	1856.2528	15531.95	14623
919.3124	1857.9054	15484.9	14580.4
919.452	1859.5572	15505.8	14604.85
919.5916	1861.2083	15459.6	14556.75
919.7312	1862.8587	15484.7	14581.95
919.8708	1864.5084	15403.75	14496.3
920.0103	1866.1572	15352.7	14447.3
920.1498	1867.8054	15292.35	14385.35
920.2893	1869.4528	15272.35	14366.55
920.4288	1871.0994	15210.5	14304.75
920.5683	1872.7453	15179.6	14273.9
920.7077	1874.3905	15132.25	14222.45
920.8471	1876.0349	15114.75	14210
920.9865	1877.6786	15081.65	14175.9
921.1259	1879.3215	15078.1	14171.85
921.2653	1880.9637	15041.3	14136.5
921.4046	1882.6051	14994.95	14092.6
921.5439	1884.2458	14934.55	14031.25
921.6832	1885.8858	14871.5	13969.55
921.8225	1887.525	14870.5	13965.4
921.9617	1889.1634	14769.25	13864.55
922.101	1890.8011	14749.25	13846.3
922.2402	1892.4381	14722.2	13817.75
922.3794	1894.0743	14717.75	13813.15
922.5185	1895.7098	14726.9	13822.9
922.6577	1897.3446	14666.9	13762.65
922.7968	1898.9786	14593.15	13687.4
922.9359	1900.6118	14582.35	13680.3
923.075	1902.2443	14497.05	13592.4
923.214	1903.8761	14461.95	13559.6
923.3531	1905.5071	14390.2	13485.25
923.4921	1907.1374	14335.35	13432.3
923.6311	1908.7669	14360.25	13458.25
923.77	1910.3957	14318.3	13417.5
923.909	1912.0237	14238.2	13336.5
924.0479	1913.651	14181.35	13278.25
924.1868	1915.2776	14157.85	13257.05
924.3257	1916.9034	14132.95	13234.55
924.4646	1918.5285	14054.25	13155.85
924.6034	1920.1528	13992.05	13088
924.7422	1921.7764	13973.25	13073.2
924.881	1923.3992	13911.65	13009
925.0198	1925.0213	13842.7	12939.75
925.1586	1926.6427	13805.2	12905.05
925.2973	1928.2633	13817.9	12850.15
925.436	1929.8832	13748.85	12844.4
925.5747	1931.5023	13661.25	12759.75
925.7134	1933.1207	13643.9	12744.15
925.852	1934.7383	13583.95	12681.1
925.9906	1936.3552	13550.35	12650.7
926.1292	1937.9714	13536.3	12636.95
926.2678	1939.5868	13455.15	12551.55
926.4064	1941.2015	13400.4	12495.2
926.5449	1942.8154	13373.45	12466.85
926.6834	1944.4286	13304.25	12400.75
926.8219	1946.041	13282	12359.25
926.9604	1947.6528	13200.4	12292.95
927.0988	1949.2637	13169.45	12270.95
927.2372	1950.8739	13142.3	12240.55
927.3756	1952.4834	13137.1	12237.6
927.514	1954.0921	13078	12179.3
927.6523	1955.7001	13036.95	12133.45
927.7907	1957.3074	12973.95	12077.8
927.929	1958.9139	12955.1	12061.7
928.0673	1960.5197	12900	12001
928.2055	1962.1247	12858.1	11962.05
928.3438	1963.729	12796.35	11899.85
928.482	1965.3325	12763.3	11842.15
928.6202	1966.9353	12716.25	11821.1
928.7584	1968.5374	12670.8	11775.45
928.8965	1970.1387	12615.85	11720.1
929.0346	1971.7393	12586.1	11691.15
929.1727	1973.3392	12540.45	11644.2
929.3108	1974.9383	12492.75	11600.6
929.4489	1976.5366	12430.1	11536.25
929.5869	1978.1342	12436.65	11542.1
929.7249	1979.7311	12391.7	11497.1
929.8629	1981.3273	12320.15	11426.65
930.0009	1982.9227	12306.8	11411.05
930.1388	1984.5173	12250.7	11358.8
930.2767	1986.1112	12217.45	11325.9
930.4146	1987.7044	12198.05	11304.8
930.5525	1989.2968	12161.75	11267.05
930.6904	1990.8885	12112.85	11215.85
930.8282	1992.4795	12070.65	11180
930.966	1994.0697	12066.3	11176.25
931.1038	1995.6592	12005	11114
931.2415	1997.2479	11984.5	11091.6
931.3793	1998.8359	11948.95	11058.6
931.517	2000.4232	11927.75	11040.6
931.6547	2002.0097	11834.2	10948.85
931.7923	2003.5955	11778.05	10890.15
931.93	2005.1805	11811.35	10921.1
932.0676	2006.7648	11772.95	10882.35
932.2052	2008.3484	11740.95	10849.9
932.3427	2009.9312	11753.5	10865
932.4803	2011.5133	11683.85	10799.35
932.6178	2013.0946	11658.55	10772
932.7553	2014.6752	11639	10750.5
932.8928	2016.2551	11610	10720.25
933.0302	2017.8342	11577.2	10688.75
933.1676	2019.4126	11513.5	10627.75
933.305	2020.9902	11471.85	10586
933.4424	2022.5672	11450.55	10563.8
933.5798	2024.1433	11437.15	10544.4
933.7171	2025.7188	11368.35	10484.3
933.8544	2027.2935	11341.2	10454.05
933.9917	2028.8674	11301.5	10417.7
934.129	2030.4406	11270.3	10386.65
934.2662	2032.0131	11213.25	10331.35
934.4034	2033.5849	11200.15	10312.75
934.5406	2035.1559	11190.05	10305.1
934.6778	2036.7261	11159.65	10272.45
934.8149	2038.2957	11105.1	10215.05
934.952	2039.8645	11122.45	10229.3
935.0891	2041.4325	11130.15	10235.85
935.2262	2042.9998	11034	10146.4
935.3632	2044.5664	11004.7	10119.45
935.5002	2046.1323	10963.45	10077.65
935.6372	2047.6974	10937.7	10053.95
935.7742	2049.2617	10924.7	10040.45
935.9111	2050.8254	10922.1	10029.5
936.048	2052.3883	10892.6	10003.4
936.1849	2053.9504	10834.35	9942.7
936.3218	2055.5118	10819.8	9927.4
936.4586	2057.0725	10754.7	9863.95
936.5955	2058.6325	10735.95	9847.3
936.7323	2060.1917	10722.6	9836.8
936.869	2061.7502	10676.1	9787.35
937.0058	2063.3079	10646.95	9762.7
937.1425	2064.8649	10602.95	9714.75
937.2792	2066.4212	10584.15	9694.15
937.4159	2067.9767	10537.35	9648.65
937.5525	2069.5315	10527.6	9638.05
937.6891	2071.0856	10470.3	9582.55
937.8257	2072.6389	10410.15	9523.55
937.9623	2074.1915	10374.5	9490.8
938.0989	2075.7433	10329.65	9443.6
938.2354	2077.2945	10301.7	9415.95
938.3719	2078.8448	10298.85	9408.5
938.5084	2080.3945	10261.45	9370.15
938.6448	2081.9434	10254.25	9363.6
938.7812	2083.4916	10206.2	9313.6
938.9176	2085.039	10159.5	9263.25
939.054	2086.5857	10161.65	9264.55
939.1903	2088.1317	10135.65	9237.1
939.3267	2089.677	10094.85	9196.4
939.463	2091.2215	10072.6	9174.65
939.5992	2092.7652	10060.75	9160.7
939.7355	2094.3083	10050.7	9155.7
939.8717	2095.8506	10015.35	9118.75
940.0079	2097.3921	10011.75	9119.6
940.1441	2098.933	9979.6	9088.3
940.2802	2100.4731	9953.2	9061.85
940.4163	2102.0124	9939.95	9039.25
940.5524	2103.5511	9899.1	9003.8
940.6885	2105.089	9863.25	8971.05
940.8245	2106.6261	9856.15	8962.7
940.9606	2108.1626	9823.35	8931.5
941.0965	2109.6983	9799.8	8881.95
941.2325	2111.2332	9785.3	8891.7
941.3684	2112.7675	9752.15	8858.7
941.5044	2114.301	9729.05	8832.75
941.6403	2115.8337	9716.35	8823.25
941.7761	2117.3657	9669	8778.4
941.912	2118.897	9660.4	8766.15
942.0478	2120.4276	9609.9	8710.65
942.1835	2121.9575	9586.3	8691.15
942.3193	2123.4866	9584.2	8689
942.455	2125.0149	9554.75	8659.55
942.5907	2126.5426	9499	8609.9
942.7264	2128.0695	9492.85	8603.65
942.8621	2129.5956	9454.2	8568.1
942.9977	2131.1211	9428	8538.25
943.1333	2132.6458	9433.8	8543.25
943.2689	2134.1698	9416.85	8523
943.4044	2135.693	9372.2	8473.8
943.54	2137.2155	9366.6	8468.55
943.6755	2138.7373	9350.5	8456.95
943.8109	2140.2584	9303.1	8413.3
943.9464	2141.7787	9261.4	8369
944.0818	2143.2983	9216.45	8331.6
944.2172	2144.8171	9189.85	8305.4
944.3526	2146.3353	9169.4	8279.35
944.4879	2147.8527	9163.5	8276.65
944.6232	2149.3693	9111.3	8217.8
944.7585	2150.8853	9100.2	8205.35
944.8938	2152.4005	9050.3	8156.4
945.029	2153.9149	9060.2	8164.9
945.1642	2155.4287	9115.9	8116
945.2994	2156.9417	9017.75	8121.95
945.4346	2158.454	8963.75	8069.15
945.5697	2159.9655	8930.3	8042.05
945.7048	2161.4764	8919.25	8030.15
945.8399	2162.9865	8908	8020.5
945.9749	2164.4958	8880.1	7988.65
946.1099	2166.0045	8845.2	7953.2
946.2449	2167.5124	8831.9	7941.1
946.3799	2169.0195	8830.5	7937.35
946.5148	2170.526	8820.6	7927.9
946.6498	2172.0317	8786.1	7892.2
946.7846	2173.5367	8760.05	7866.7
946.9195	2175.0409	8728.3	7837.45
947.0543	2176.5445	8721.95	7829.05
947.1891	2178.0473	8699.6	7804.25
947.3239	2179.5494	8627.55	7728.05
947.4587	2181.0507	8610.55	7717.2
947.5934	2182.5513	8580.1	7686.65
947.7281	2184.0512	8584.95	7692.7
947.8628	2185.5504	8557.15	7666.55
947.9974	2187.0488	8491.8	7601.6
948.132	2188.5465	8491.4	7604.3
948.2666	2190.0435	8465.4	7575
948.4012	2191.5397	8425.95	7532.75
948.5357	2193.0353	8399.9	7506.85
948.6702	2194.5301	8362.25	7465.5
948.8047	2196.0241	8369.9	7472.45
948.9392	2197.5175	8349.9	7451
949.0736	2199.0101	8310.3	7406.3
949.208	2200.502	8241.55	7349.1
949.3424	2201.9931	8219.45	7329.5
949.4767	2203.4835	8203.6	7314.15
949.611	2204.9733	8187.5	7282.7
949.7453	2206.4622	8180.15	7291.05
949.8796	2207.9505	8116.6	7226
950.0138	2209.438	8086.2	7202
950.148	2210.9248	8080.7	7189.15
950.2822	2212.4109	8061.1	7172.9
950.4164	2213.8962	8009.85	7111.2
950.5505	2215.3809	8019.25	7123.15
950.6846	2216.8648	8026.2	7125.25
950.8186	2218.3479	7985.55	7083.5
950.9527	2219.8304	7917.85	7017
951.0867	2221.3121	7900.55	6998.2
951.2207	2222.7931	7876.45	6979.65
951.3546	2224.2733	7853.9	6958.7
951.4886	2225.7529	7808.5	6914.35
951.6225	2227.2317	7800.5	6907.9
951.7563	2228.7098	7801.15	6910.2
951.8902	2230.1872	7754.5	6865.45
952.024	2231.6638	7724.2	6834.1
952.1578	2233.1397	7691.9	6801.25
952.2916	2234.6149	7700.55	6812.25
952.4253	2236.0894	7674.1	6783.6
952.559	2237.5632	7660.15	6767.5
952.6927	2239.0362	7621.7	6729.9
952.8263	2240.5085	7600.6	6709
952.9599	2241.9801	7558.75	6664.3
953.0935	2243.4509	7532.95	6637
953.2271	2244.921	7521.85	6626.6
953.3606	2246.3904	7502.7	6603.8
953.4941	2247.8591	7471.8	6578.4
953.6276	2249.3271	7464.3	6571.15
953.7611	2250.7943	7439.65	6542.95
953.8945	2252.2608	7402.4	6507.65
954.0279	2253.7266	7383.05	6488.35
954.1612	2255.1917	7344.95	6451.45
954.2946	2256.656	7337.9	6446.85
954.4279	2258.1197	7312.15	6422.65
954.5612	2259.5826	7324.05	6430.95
954.6944	2261.0447	7288.45	6393.35
954.8276	2262.5062	7255.65	6360.2
954.9608	2263.9669	7283.1	6387.2
955.094	2265.4269	7232.9	6339.55
955.2271	2266.8862	7200.7	6306.05
955.3602	2268.3448	7188.9	6298.2
955.4933	2269.8026	7171.9	6280.6
955.6264	2271.2598	7164.65	6275.95
955.7594	2272.7162	7124.75	6232.25
955.8924	2274.1719	7119.05	6225.25
956.0253	2275.6268	7115.65	6216.55
956.1583	2277.0811	7098.25	6202.35
956.2912	2278.5346	7059.5	6168.8
956.4241	2279.9874	7053.75	6162.1
956.5569	2281.4395	7027.95	6138.85
956.6897	2282.8908	6986.65	6089.75
956.8225	2284.3414	6992.6	6100.45
956.9553	2285.7914	6974.9	6081.1
957.088	2287.2406	6943.65	6047.2
957.2207	2288.689	6952.9	6057.85
957.3534	2290.1368	6925.4	6025.35
957.486	2291.5838	6905.65	6002.65
957.6186	2293.0302	6899.5	5998.65
957.7512	2294.4758	6858.2	5961.35
957.8838	2295.9206	6843.3	5945.9
958.0163	2297.3648	6803.65	5912.7
958.1488	2298.8082	6788.45	5892.15
958.2813	2300.251	6777.35	5883.55
958.4137	2301.693	6754.55	5854.5
958.5461	2303.1343	6763.8	5864.55
958.6785	2304.5748	6714.95	5822.5
958.8108	2306.0147	6709.1	5816.7
958.9432	2307.4538	6676.55	5785.3
959.0754	2308.8922	6660.65	5773.95
959.2077	2310.3299	6626.35	5739.7
959.3399	2311.7669	6622.35	5733.1
959.4721	2313.2031	6599.15	5706.5
959.6043	2314.6387	6575.5	5678.85
959.7365	2316.0735	6543.8	5651.05
959.8686	2317.5076	6546.9	5652.25
960.0006	2318.941	6533.3	5640.65
960.1327	2320.3737	6521.6	5623.5
960.2647	2321.8056	6471.95	5572.65
960.3967	2323.2369	6467.8	5571.85
960.5287	2324.6674	6461.2	5566.05
960.6606	2326.0972	6429.9	5535.5
960.7925	2327.5263	6409.85	5515.15
960.9244	2328.9547	6387.8	5490.7
961.0562	2330.3823	6393.1	5496.1
961.1881	2331.8092	6398.3	5496.45
961.3198	2333.2355	6345.3	5446.5
961.4516	2334.661	6337.2	5439.5
961.5833	2336.0858	6327.3	5429
961.715	2337.5098	6298.6	5404.05
961.8467	2338.9332	6284.95	5388.3
961.9783	2340.3558	6255.65	5359.9
962.1099	2341.7778	6240.15	5347.75
962.2415	2343.199	6231.6	5335.6
962.373	2344.6195	6210.85	5318.85
962.5045	2346.0393	6205.5	5313.55
962.636	2347.4583	6194.35	5301.7
962.7675	2348.8767	6172.75	5278.4
962.8989	2350.2943	6159.05	5261.3
963.0303	2351.7113	6130.2	5232.85
963.1617	2353.1275	6129.1	5230.05
963.293	2354.543	6124.3	5217.95
963.4243	2355.9578	6102.2	5206.65
963.5556	2357.3718	6061.15	5166.3
963.6868	2358.7852	6022.3	5128.55
963.818	2360.1978	6007.65	5116.8
963.9492	2361.6098	5999.55	5106.25
964.0803	2363.021	5987.6	5090.1
964.2114	2364.4315	5966.65	5072.4
964.3425	2365.8413	5941.3	5046.35
964.4736	2367.2504	5933.35	5042.85
964.6046	2368.6587	5894.85	5002.95
964.7356	2370.0664	5868.1	4975.25
964.8666	2371.4733	5864	4969.6
964.9975	2372.8795	5862.45	4968.9
965.1284	2374.285	5830.6	4940.6
965.2593	2375.6899	5798.95	4907.8
965.3901	2377.0939	5777.6	4885
965.5209	2378.4973	5753.95	4861
965.6517	2379.9	5736.75	4843
965.7825	2381.3019	5722.4	4831.9
965.9132	2382.7032	5709.5	4820.65
966.0439	2384.1037	5693.25	4804
966.1745	2385.5035	5669.05	4780.25
966.3051	2386.9027	5653.05	4763.85
966.4357	2388.3011	5647.4	4754.7
966.5663	2389.6987	5617.45	4726.35
966.6968	2391.0957	5613.55	4722.1
966.8273	2392.492	5577.65	4685.4
966.9578	2393.8876	5556.45	4664.3
967.0882	2395.2824	5537.7	4645.45
967.2186	2396.6765	5519.95	4628.6
967.349	2398.07	5499.8	4608.3
967.4793	2399.4627	5508.9	4614.15
967.6097	2400.8547	5477.4	4583.85
967.7399	2402.246	5469.1	4567.1
967.8702	2403.6366	5430.8	4536.85
968.0004	2405.0265	5415.85	4522.5
968.1306	2406.4156	5396.9	4501.05
968.2607	2407.8041	5393.7	4498.6
968.3909	2409.1918	5359.95	4463.95
968.521	2410.5789	5328	4435.5
968.651	2411.9652	5353.1	4457.3
968.781	2413.3508	5320.75	4425.8
968.911	2414.7358	5307.6	4411.75
969.041	2416.12	5263.55	4371.7
969.1709	2417.5035	5275.75	4383.6
969.3008	2418.8863	5248.15	4354.7
969.4307	2420.2684	5230	4336.35
969.5606	2421.6497	5211.4	4316.15
969.6904	2423.0304	5177.15	4286.45
969.8201	2424.4104	5168.45	4275.4
969.9499	2425.7896	5157.2	4263.2
970.0796	2427.1682	5151.55	4259.2
970.2093	2428.546	5130.9	4240.95
970.3389	2429.9232	5123.6	4231.4
970.4685	2431.2996	5108.25	4213.45
970.5981	2432.6753	5102.75	4208.3
970.7277	2434.0503	5084.35	4189.9
970.8572	2435.4246	5051.7	4157.95
970.9867	2436.7982	5049.25	4153.15
971.1161	2438.1711	5019.85	4126.6
971.2456	2439.5433	5024.7	4128.35
971.375	2440.9148	4996.2	4098.3
971.5043	2442.2856	4972.5	4079.9
971.6336	2443.6557	4974.45	4081.1
971.7629	2445.025	4953.85	4060.55
971.8922	2446.3937	4939.9	4044.2
972.0214	2447.7617	4921.5	4027.5
972.1506	2449.1289	4920.9	4026.7
972.2798	2450.4955	4895.6	3999.4
972.4089	2451.8613	4870.95	3979.5
972.538	2453.2265	4875.35	3982.5
972.6671	2454.5909	4856.45	3962.45
972.7961	2455.9546	4839.35	3947.95
972.9251	2457.3177	4841.25	3947.8
973.0541	2458.68	4836.9	3940.75
973.1831	2460.0416	4839.95	3945.45
973.312	2461.4025	4823.85	3931.35
973.4408	2462.7627	4802.5	3899
973.5697	2464.1222	4806.1	3916.75
973.6985	2465.4811	4773.3	3883.75
973.8273	2466.8392	4752.4	3860.95
973.956	2468.1966	4768.55	3873.4
974.0847	2469.5533	4751.25	3854.3
974.2134	2470.9093	4732.4	3839.95
974.3421	2472.2645	4724.9	3831.35
974.4707	2473.6191	4718.3	3825.95
974.5993	2474.973	4694.6	3800.95
974.7278	2476.3262	4666.95	3773.7
974.8563	2477.6787	4665.8	3776.45
974.9848	2479.0305	4640.85	3750.2
975.1132	2480.3816	4632.95	3739.65
975.2417	2481.7319	4622.55	3729.8
975.37	2483.0816	4603.65	3709.25
975.4984	2484.4306	4579.2	3685.95
975.6267	2485.7789	4571.4	3681.95
975.755	2487.1264	4559.9	3666.5
975.8833	2488.4733	4521.2	3632.3
976.0115	2489.8195	4527.6	3618.95
976.1397	2491.165	4507.6	3610.75
976.2678	2492.5097	4489.15	3595.4
976.3959	2493.8538	4484.35	3594.45
976.524	2495.1972	4452.75	3560.3
976.6521	2496.5398	4454.4	3559.4
976.7801	2497.8818	4433.3	3536.55
976.9081	2499.2231	4426.55	3532.55
977.036	2500.5637	4407	3510.95
977.164	2501.9035	4394.65	3499.6
977.2918	2503.2427	4390.4	3491.1
977.4197	2504.5812	4369.4	3477.2
977.5475	2505.919	4376.75	3481.4
977.6753	2507.256	4358.4	3465.25
977.8031	2508.5924	4339.9	3447.7
977.9308	2509.9281	4321.4	3423.4
978.0585	2511.2631	4309.65	3416.55
978.1861	2512.5974	4301.35	3409.15
978.3137	2513.9309	4286.7	3394.3
978.4413	2515.2638	4299.8	3382.7
978.5689	2516.596	4254.15	3362.5
978.6964	2517.9275	4231.1	3338.05
978.8239	2519.2583	4235.05	3341.95
978.9513	2520.5884	4218.15	3323.25
979.0788	2521.9178	4220.5	3330.1
979.2062	2523.2465	4199.25	3306.95
979.3335	2524.5745	4188.35	3296.45
979.4608	2525.9018	4179.6	3288.45
979.5881	2527.2284	4166.6	3275.35
979.7154	2528.5543	4154.4	3262.3
979.8426	2529.8796	4141.15	3250.1
979.9698	2531.2041	4139.35	3247.15
980.0969	2532.5279	4127.25	3238.95
980.224	2533.851	4104.65	3212.25
980.3511	2535.1735	4112.65	3221.2
980.4781	2536.4952	4106.05	3211
980.6052	2537.8163	4085.25	3191.25
980.7321	2539.1366	4081.6	3191.05
980.8591	2540.4562	4063.75	3167.15
980.986	2541.7752	4068.1	3174.1
981.1129	2543.0935	4046.35	3151.1
981.2397	2544.411	4052.55	3156.45
981.3665	2545.7279	4042.55	3149.45
981.4933	2547.0441	4017.2	3123.45
981.62	2548.3596	4036.95	3140.75
981.7467	2549.6744	4018.95	3126
981.8734	2550.9885	4023.6	3129.25
982.0001	2552.3019	4007.25	3117.65
982.1267	2553.6146	4003.8	3109.95
982.2532	2554.9266	3976.55	3083.9
982.3798	2556.2379	3959.45	3064.35
982.5063	2557.5485	3949.75	3056.75
982.6327	2558.8585	3953.95	3052.05
982.7592	2560.1677	3953.25	3056.25
982.8856	2561.4762	3931.6	3037.65
983.0119	2562.7841	3927.75	3030.65
983.1383	2564.0913	3914.2	3022.8
983.2646	2565.3977	3905.95	3012.2
983.3908	2566.7035	3918.1	3022.55
983.517	2568.0086	3908.05	3011.2
983.6432	2569.313	3892.45	2995.9
983.7694	2570.6167	3876.15	2979
983.8955	2571.9197	3880.75	2986.95
984.0216	2573.222	3865	2968.3
984.1476	2574.5236	3853.75	2958.45
984.2737	2575.8246	3855.1	2958.85
984.3996	2577.1248	3849.15	2952.5
984.5256	2578.4244	3837.5	2944.55
984.6515	2579.7232	3835.1	2941.3
984.7774	2581.0214	3860.1	2936.3
984.9032	2582.3189	3824.8	2931.4
985.029	2583.6157	3825.95	2928.2
985.1548	2584.9118	3806.25	2912
985.2806	2586.2072	3794.65	2901.65
985.4063	2587.5019	3787.05	2894.2
985.5319	2588.7959	3771.9	2879.1
985.6576	2590.0893	3785.7	2890
985.7832	2591.3819	3781.6	2886.35
985.9087	2592.6739	3763.75	2872.05
986.0343	2593.9652	3756.5	2859.2
986.1597	2595.2557	3733.35	2839.55
986.2852	2596.5456	3717.9	2821.9
986.4106	2597.8348	3718.55	2825.65
986.536	2599.1234	3703.35	2810.9
986.6614	2600.4112	3697	2803.2
986.7867	2601.6983	3700.05	2802.35
986.912	2602.9848	3677.9	2782.15
987.0372	2604.2705	3686.4	2786.25
987.1624	2605.5556	3673.15	2779.9
987.2876	2606.84	3660.55	2766.4
987.4128	2608.1237	3650.8	2758.35
987.5379	2609.4067	3635.8	2740.5
987.6629	2610.689	3632.55	2730.55
987.788	2611.9707	3624.7	2728.25
987.913	2613.2516	3597.6	2698.35
988.0379	2614.5319	3564.75	2670.95
988.1629	2615.8115	3587.95	2692.35
988.2878	2617.0903	3559.35	2662.9
988.4126	2618.3685	3551.5	2657.95
988.5375	2619.6461	3548.3	2655.15
988.6622	2620.9229	3552.35	2659.4
988.787	2622.199	3526.45	2633.3
988.9117	2623.4745	3512.45	2617.05
989.0364	2624.7493	3525.05	2631.85
989.161	2626.0234	3513.75	2621.65
989.2857	2627.2968	3503.95	2610.9
989.4102	2628.5695	3487.35	2592.7
989.5348	2629.8415	3469.95	2576.4
989.6593	2631.1128	3462.5	2568.8
989.7837	2632.3835	3437.65	2544.45
989.9082	2633.6535	3446.1	2554.95
990.0326	2634.9228	3421.3	2528.75
990.1569	2636.1914	3427.9	2534.75
990.2812	2637.4593	3420.75	2529.05
990.4055	2638.7265	3407.35	2513.9
990.5298	2639.9931	3400.4	2508.85
990.654	2641.259	3401.6	2508.4
990.7782	2642.5242	3393.7	2500.65
990.9023	2643.7887	3375.55	2484.05
991.0264	2645.0525	3369.35	2475.6
991.1505	2646.3156	3374.5	2465.55
991.2745	2647.5781	3356.6	2465.7
991.3985	2648.8398	3334.95	2441.75
991.5225	2650.1009	3327.35	2427.7
991.6464	2651.3613	3316.8	2424.95
991.7703	2652.6211	3312.9	2420.8
991.8942	2653.8801	3297.55	2406.55
992.018	2655.1385	3284.05	2388.75
992.1418	2656.3961	3295.4	2402.7
992.2655	2657.6531	3289.65	2397.2
992.3892	2658.9094	3280.7	2385.65
992.5129	2660.1651	3271.2	2378.55
992.6366	2661.42	3273.3	2379.6
992.7602	2662.6743	3270.75	2377.7
992.8837	2663.9279	3256.75	2364.25
993.0073	2665.1808	3249.8	2357.15
993.1307	2666.433	3243.65	2348.05
993.2542	2667.6846	3258.35	2365.85
993.3776	2668.9354	3244.65	2348.95
993.501	2670.1856	3245.4	2352.05
993.6244	2671.4351	3236.65	2344.75
993.7477	2672.6839	3221.3	2329.3
993.8709	2673.9321	3223.3	2335.2
993.9942	2675.1795	3216.15	2325.1
994.1174	2676.4263	3215.6	2321.55
994.2405	2677.6724	3190.75	2298.1
994.3637	2678.9179	3194.4	2301.85
994.4868	2680.1626	3186.6	2294.75
994.6098	2681.4067	3190.85	2296.9
994.7328	2682.6501	3185.2	2294
994.8558	2683.8928	3177.3	2284.95
994.9788	2685.1348	3163.85	2272.55
995.1017	2686.3761	3151.65	2258.25
995.2245	2687.6168	3144.95	2251.75
995.3474	2688.8568	3127.9	2235.4
995.4702	2690.0961	3113.6	2220.6
995.5929	2691.3348	3118.3	2226.4
995.7156	2692.5727	3095.5	2203.9
995.8383	2693.81	3103.55	2211.85
995.961	2695.0466	3094.1	2204.3
996.0836	2696.2826	3080.4	2186.35
996.2062	2697.5178	3078.55	2185.05
996.3287	2698.7524	3066.6	2173.75
996.4512	2699.9863	3071.75	2178.95
996.5737	2701.2195	3060.95	2171.2
996.6961	2702.452	3061.75	2167.55
996.8185	2703.6839	3048.8	2154.95
996.9408	2704.9151	3046.05	2154.1
997.0631	2706.1456	3044.25	2153.25
997.1854	2707.3755	3041.95	2147.75
997.3077	2708.6046	3045.4	2152.05
997.4299	2709.8331	3042.05	2151.2
997.552	2711.0609	3036.4	2144.55
997.6742	2712.2881	3037.8	2146.15
997.7963	2713.5145	3052.9	2158.3
997.9183	2714.7403	3044.55	2150.9
998.0403	2715.9654	3043.8	2152.55
998.1623	2717.1899	3065.65	2158.85
998.2842	2718.4136	3050.4	2160.55
998.4062	2719.6367	3065	2174.35
998.528	2720.8591	3054.25	2157.45
998.6498	2722.0809	3062.55	2169.1
998.7716	2723.3019	3051.9	2155.4
998.8934	2724.5223	3057.8	2164.8
999.0151	2725.7421	3051	2157.95
999.1368	2726.9611	3036.15	2143.45
999.2584	2728.1795	3035.9	2139.75
999.38	2729.3972	3025.7	2133.25
999.5016	2730.6142	3012.4	2115.2
999.6231	2731.8306	2988.15	2094.4
999.7446	2733.0462	2982.45	2092.75
999.8661	2734.2612	2953.4	2058.8
999.9875	2735.4756	2931.6	2038.55
1000.1089	2736.6892	2913.95	2021.7
1000.2302	2737.9022	2892.1	2004.05
1000.3515	2739.1145	2866.65	1976.75
1000.4728	2740.3262	2859.15	1959.5
1000.594	2741.5372	2835.55	1946.35
1000.7152	2742.7475	2815.7	1924.4
1000.8363	2743.9571	2819.25	1927.05
1000.9575	2745.1661	2817.9	1924.2
1001.0785	2746.3744	2790.85	1900.3
1001.1996	2747.582	2781.5	1892
1001.3206	2748.7889	2760.4	1869.95
1001.4415	2749.9952	2744	1855.15
1001.5625	2751.2008	2744.8	1854.85
1001.6833	2752.4057	2738.95	1844.95
1001.8042	2753.61	2721.2	1829.2
1001.925	2754.8136	2710.35	1817.15
1002.0458	2756.0165	2707.4	1819.05
1002.1665	2757.2188	2695.55	1806.5
1002.2872	2758.4204	2686.45	1794.65
1002.4078	2759.6213	2680.05	1788.6
1002.5285	2760.8215	2687.9	1791.65
1002.649	2762.0211	2668.8	1777.35
1002.7696	2763.22	2665.4	1772.35
1002.8901	2764.4182	2656.05	1764.15
1003.0106	2765.6158	2647.3	1757.75
1003.131	2766.8127	2641.9	1753.25
1003.2514	2768.009	2641.95	1752.2
1003.3717	2769.2045	2626.3	1735.3
1003.492	2770.3994	2630.25	1737.35
1003.6123	2771.5936	2620.95	1732.65
1003.7325	2772.7872	2610.5	1723.15
1003.8527	2773.9801	2595.7	1706.35
1003.9729	2775.1723	2611.7	1705.8
1004.093	2776.3639	2592.25	1703.35
1004.2131	2777.5548	2587.6	1693.95
1004.3331	2778.745	2575.15	1682.4
1004.4531	2779.9346	2568.25	1679.05
1004.5731	2781.1235	2574.25	1684
1004.693	2782.3117	2565.35	1678.3
1004.8129	2783.4992	2562.65	1675.2
1004.9328	2784.6861	2552.6	1663.55
1005.0526	2785.8723	2582.95	1691.35
1005.1723	2787.0579	2560.15	1670.95
1005.2921	2788.2428	2559.1	1671.3
1005.4118	2789.427	2557.75	1671.75
1005.5314	2790.6106	2579.5	1691.55
1005.651	2791.7935	2575.65	1685.9
1005.7706	2792.9757	2570.5	1683.95
1005.8902	2794.1573	2570.2	1679.9
1006.0097	2795.3382	2582.45	1693
1006.1291	2796.5184	2583.3	1696.4
1006.2485	2797.698	2598.8	1708.05
1006.3679	2798.8769	2620.85	1733.9
1006.4873	2800.0551	2625.85	1737.1
1006.6066	2801.2327	2641	1751.25
1006.7258	2802.4096	2639.65	1753.55
1006.8451	2803.5859	2644	1753.15
1006.9642	2804.7615	2665.25	1774.75
1007.0834	2805.9364	2675.75	1786.7
1007.2025	2807.1106	2700.8	1811.75
1007.3216	2808.2842	2734.7	1846.2
1007.4406	2809.4572	2755.8	1867.1
1007.5596	2810.6294	2791.4	1903.65
1007.6785	2811.801	2814.15	1926.05
1007.7975	2812.972	2842.1	1954.2
1007.9163	2814.1423	2881.05	1992.05
1008.0352	2815.3119	2912.75	2022.15
1008.154	2816.4808	2950.9	2061.75
1008.2727	2817.6491	2991.8	2103.25
1008.3914	2818.8167	3042.7	2155.4
1008.5101	2819.9837	3079.95	2187.7
1008.6288	2821.15	3114.1	2225.9
1008.7474	2822.3157	3146.45	2259.7
1008.8659	2823.4807	3178.3	2290.05
1008.9844	2824.645	3230.7	2342.9
1009.1029	2825.8086	3264.4	2376.2
1009.2214	2826.9716	3307.3	2418.5
1009.3398	2828.134	3345.95	2459.45
1009.4581	2829.2957	3373.15	2485.2
1009.5764	2830.4567	3386.35	2500.8
1009.6947	2831.617	3407.35	2519.35
1009.813	2832.7767	3421.8	2533.65
1009.9312	2833.9358	3420.9	2534.5
1010.0493	2835.0941	3413.2	2524.75
1010.1675	2836.2519	3412.2	2524.3
1010.2855	2837.4089	3391.35	2501.15
1010.4036	2838.5653	3372.4	2482.1
1010.5216	2839.7211	3372.4	2483.5
1010.6396	2840.8761	3371.5	2483.85
1010.7575	2842.0306	3383.15	2498.45
1010.8754	2843.1843	3393.8	2506.85
1010.9932	2844.3374	3461.3	2573.4
1011.111	2845.4899	3506.85	2620.15
1011.2288	2846.6417	3564.65	2679.05
1011.3465	2847.7928	3624.55	2738.15
1011.4642	2848.9433	3689.95	2804
1011.5818	2850.0931	3759.15	2869.25
1011.6995	2851.2422	3837.6	2947.6
1011.817	2852.3907	3889.35	3000.55
1011.9345	2853.5385	3939.55	3051
1012.052	2854.6857	4003.6	3107.65
1012.1695	2855.8323	4029.45	3141.2
1012.2869	2856.9781	4073.05	3185.2
1012.4042	2858.1233	4110.2	3223.55
1012.5216	2859.2679	4150.6	3264.2
1012.6389	2860.4118	4188.3	3301.3
1012.7561	2861.555	4226.45	3335.35
1012.8733	2862.6976	4255.2	3366.4
1012.9905	2863.8395	4277.45	3392.45
1013.1076	2864.9808	4297.5	3410.3
1013.2247	2866.1214	4316.15	3430.55
1013.3417	2867.2614	4335.85	3449.05
1013.4587	2868.4007	4328.25	3439.9
1013.5757	2869.5393	4346.1	3458.1
1013.6926	2870.6773	4343.3	3453.4
1013.8095	2871.8146	4348.55	3456.3
1013.9263	2872.9513	4353.5	3467.7
1014.0431	2874.0874	4348.05	3463.25
1014.1599	2875.2227	4340.9	3456.65
1014.2766	2876.3574	4300.75	3415.8
1014.3933	2877.4915	4287.75	3401.7
1014.51	2878.6249	4252.8	3368
1014.6266	2879.7577	4214.3	3327.35
1014.7431	2880.8898	4230	3334.25
1014.8596	2882.0212	4183.75	3295.6
1014.9761	2883.152	4181.05	3293.25
1015.0925	2884.2821	4149.85	3263.75
1015.2089	2885.4116	4136.5	3249.1
1015.3253	2886.5405	4136.5	3250.75
1015.4416	2887.6686	4143.6	3253.85
1015.5579	2888.7962	4159.65	3273.55
1015.6741	2889.923	4148	3263.1
1015.7903	2891.0493	4143.8	3260.05
1015.9065	2892.1748	4156.75	3271.7
1016.0226	2893.2997	4151.15	3264.7
1016.1387	2894.424	4178.95	3294.5
1016.2547	2895.5476	4189.9	3304.25
1016.3707	2896.6706	4204.35	3319.6
1016.4866	2897.7929	4236.35	3350.9
1016.6025	2898.9145	4250	3364.9
1016.7184	2900.0355	4268.2	3380
1016.8342	2901.1559	4300.05	3413.55
1016.95	2902.2756	4309.15	3421.85
1017.0658	2903.3946	4349.35	3464.15
1017.1815	2904.513	4372.25	3480.8
1017.2971	2905.6308	4392.75	3506.35
1017.4127	2906.7479	4413.4	3526.85
1017.5283	2907.8643	4422.05	3534.7
1017.6439	2908.9801	4445.7	3562.5
1017.7594	2910.0953	4436.6	3551.7
1017.8748	2911.2098	4455.4	3565.55
1017.9902	2912.3236	4441	3547.85
1018.1056	2913.4368	4421.25	3530.1
1018.2209	2914.5494	4387.3	3500.6
1018.3362	2915.6613	4375.95	3484.8
1018.4515	2916.7725	4339.45	3451.7
1018.5667	2917.8831	4315.05	3428.5
1018.6819	2918.9931	4275.2	3388.25
1018.797	2920.1024	4250.5	3365.15
1018.9121	2921.211	4229.4	3342.8
1019.0271	2922.319	4212.65	3326.75
1019.1421	2923.4264	4192.8	3307.75
1019.2571	2924.5331	4164.85	3279.55
1019.372	2925.6391	4162.15	3275.5
1019.4869	2926.7445	4128.25	3242.2
1019.6017	2927.8493	4128.95	3243.3
1019.7165	2928.9534	4148.4	3261.55
1019.8313	2930.0569	4135.9	3248.9
1019.946	2931.1597	4120.45	3232.65
1020.0606	2932.2619	4101.5	3215.65
1020.1753	2933.3634	4094.3	3210.15
1020.2899	2934.4643	4088.35	3195.7
1020.4044	2935.5645	4072.4	3179.45
1020.5189	2936.6641	4041.7	3151.2
1020.6334	2937.763	4009.7	3126.5
1020.7478	2938.8613	3948.15	3062.1
1020.8622	2939.959	3913.85	3024.4
1020.9765	2941.056	3836.65	2953.1
1021.0908	2942.1523	3750.6	2864.5
1021.2051	2943.248	3676.1	2789.2
1021.3193	2944.3431	3588.35	2703.85
1021.4334	2945.4375	3494.15	2608.3
1021.5476	2946.5313	3394.65	2510.85
1021.6617	2947.6244	3301.8	2418.15
1021.7757	2948.7169	3212.75	2327.95
1021.8897	2949.8087	3131.35	2244.9
1022.0037	2950.8999	3026.95	2142.8
1022.1176	2951.9904	2958.6	2074.75
1022.2315	2953.0803	2890.2	2004.35
1022.3453	2954.1696	2818.3	1932.15
1022.4591	2955.2582	2772.55	1887.65
1022.5728	2956.3462	2709.85	1823
1022.6865	2957.4335	2670.1	1784.75
1022.8002	2958.5202	2637.85	1751.65
1022.9138	2959.6062	2616.25	1729.75
1023.0274	2960.6916	2595.1	1711.3
1023.141	2961.7764	2566.9	1682.6
1023.2545	2962.8605	2558.45	1674
1023.3679	2963.9439	2530.85	1645.25
1023.4813	2965.0267	2524.05	1639.65
1023.5947	2966.1089	2536.5	1627.8
1023.708	2967.1905	2520.3	1636.05
1023.8213	2968.2714	2503.4	1620.1
1023.9346	2969.3516	2496.2	1612.6
1024.0478	2970.4312	2500.75	1610.65
1024.1609	2971.5102	2486.75	1600.05
1024.274	2972.5885	2476.4	1593.3
1024.3871	2973.6662	2488	1598.05
1024.5002	2974.7432	2476.85	1595.5
1024.6132	2975.8196	2480.8	1596.45
1024.7261	2976.8954	2462.55	1578.1
1024.839	2977.9705	2456.45	1573
1024.9519	2979.045	2452.4	1568.65
1025.0647	2980.1188	2418.5	1531.65
1025.1775	2981.192	2396.6	1514.95
1025.2902	2982.2645	2385.5	1499.05
1025.4029	2983.3364	2366.15	1481.7
1025.5156	2984.4077	2327.45	1441.3
1025.6282	2985.4783	2303.9	1413.75
1025.7407	2986.5483	2273.25	1389.15
1025.8532	2987.6177	2234.6	1348.1
1025.9657	2988.6864	2204.35	1320.5
1026.0782	2989.7545	2171.4	1285.6
1026.1906	2990.8219	2133.8	1250.5
1026.3029	2991.8887	2098.35	1209.45
1026.4152	2992.9548	2082.65	1197.75
1026.5275	2994.0204	2037.6	1152.65
1026.6397	2995.0852	2018.4	1136.15
1026.7519	2996.1495	2003.75	1116.75
1026.864	2997.2131	1967.7	1084.75
1026.9761	2998.276	1946.65	1061.85
1027.0882	2999.3383	1923.15	1038.85
1027.2002	3000.4	1906.2	1021.9
1027.3122	3001.4611	1894.5	1010.7
1027.4241	3002.5215	1875.45	989.85
1027.536	3003.5812	1856.9	974.4
1027.6478	3004.6404	1839.5	956.1
1027.7596	3005.6989	1837.5	953.9
1027.8714	3006.7567	1819.25	935.65
1027.9831	3007.8139	1828.55	926.75
1028.0947	3008.8705	1805.4	920.5
1028.2064	3009.9264	1806.95	906.25
1028.3179	3010.9818	1791.85	906.4
1028.4295	3012.0364	1790.4	906.65
1028.541	3013.0905	1771.8	889.35
1028.6524	3014.1439	1780.6	897.25
1028.7638	3015.1966	1772	888.75
1028.8752	3016.2487	1768.5	884.3
1028.9865	3017.3002	1765.75	877.35
1029.0978	3018.3511	1771.15	887.4
1029.209	3019.4013	1754.8	872.25
1029.3202	3020.4509	1751.75	869.35
1029.4314	3021.4998	1753.3	867.4
1029.5425	3022.5481	1754.3	869.8
1029.6535	3023.5958	1749.25	866.3
1029.7645	3024.6428	1751.65	865.7
1029.8755	3025.6892	1748.8	866.15
1029.9864	3026.735	1752.6	870.1
1030.0973	3027.7802	1750.3	866.65
1030.2082	3028.8247	1747.5	862.45
1030.319	3029.8685	1742.65	859.45
1030.4297	3030.9118	1745.4	859.8
1030.5404	3031.9544	1743.15	859.65
1030.6511	3032.9963	1751.65	866.95
1030.7617	3034.0376	1743.5	861.25
1030.8723	3035.0783	1756.7	871.15
1030.9829	3036.1184	1755.1	869.5
1031.0934	3037.1578	1755.45	873.55
1031.2038	3038.1966	1753.75	867.75
1031.3142	3039.2348	1745.2	862.45
1031.4246	3040.2723	1762.65	871.3
1031.5349	3041.3092	1750.2	868.05
1031.6452	3042.3455	1749.15	866.4
1031.7554	3043.3811	1742.7	859.25
1031.8656	3044.4161	1737.4	852.8
1031.9758	3045.4505	1733.95	851.55
1032.0859	3046.4842	1730.45	846.5
1032.1959	3047.5173	1719.55	838.35
1032.3059	3048.5498	1703.7	820.7
1032.4159	3049.5816	1704.5	820.45
1032.5258	3050.6128	1700.9	816
1032.6357	3051.6434	1687	802.9
1032.7455	3052.6734	1690.85	807.7
1032.8553	3053.7027	1680.55	799.5
1032.9651	3054.7314	1670.2	785.95
1033.0748	3055.7594	1661.1	779.55
1033.1845	3056.7868	1663.3	778.7
1033.2941	3057.8136	1647.5	764.2
1033.4037	3058.8398	1646.05	764.1
1033.5132	3059.8653	1639.95	755.95
1033.6227	3060.8902	1626.95	744.6
1033.7321	3061.9145	1621.15	737.7
1033.8415	3062.9381	1619.9	739.4
1033.9509	3063.9612	1635.2	737.05
1034.0602	3064.9835	1610.3	726.5
1034.1694	3066.0053	1607.7	725.05
1034.2787	3067.0264	1591.1	708.35
1034.3878	3068.0469	1586.85	703.2
1034.497	3069.0668	1580.95	694.2
1034.6061	3070.086	1563.85	682.05
1034.7151	3071.1046	1561.95	678.9
1034.8241	3072.1226	1561.3	678.75
1034.9331	3073.1399	1543.15	659.4
1035.042	3074.1567	1529.85	647.55
1035.1508	3075.1727	1524.3	637.85
1035.2597	3076.1882	1514.75	634.7
1035.3684	3077.203	1504.4	620.05
1035.4772	3078.2173	1495.6	611.7
1035.5859	3079.2308	1494.45	608.1
1035.6945	3080.2438	1479.95	596.7
1035.8031	3081.2561	1466	583
1035.9117	3082.2678	1461.85	579.65
1036.0202	3083.2789	1462.2	579
1036.1286	3084.2893	1451.75	568.55
1036.2371	3085.2991	1441.05	558.3
1036.3454	3086.3083	1438	551.55
1036.4538	3087.3169	1435.3	551.9
1036.562	3088.3248	1427.25	542.5
1036.6703	3089.3321	1422.05	539.55
1036.7785	3090.3388	1415.2	535.7
1036.8866	3091.3449	1405.1	521.4
1036.9948	3092.3503	1406.65	523.05
1037.1028	3093.3551	1400.55	520.55
1037.2108	3094.3593	1393.1	511.35
1037.3188	3095.3629	1386.65	506.4
1037.4267	3096.3658	1379.9	494.55
1037.5346	3097.3681	1385.7	504.4
1037.6425	3098.3698	1385.2	502.1
1037.7503	3099.3708	1384.4	495.3
1037.858	3100.3713	1366.85	484.15
1037.9657	3101.3711	1367.15	485.65
1038.0734	3102.3702	1496.8	482.25
1038.181	3103.3688	1362.95	479.15
1038.2886	3104.3667	1356.3	474.35
1038.3961	3105.364	1347.9	466.45
1038.5036	3106.3607	1351.35	467.95
1038.611	3107.3568	1351.25	467.2
1038.7184	3108.3522	1343.65	460.4
1038.8257	3109.347	1334.05	451.1
1038.933	3110.3412	1339.2	452.4
1039.0403	3111.3348	1333.6	450.55
1039.1475	3112.3277	1324.3	441.75
1039.2547	3113.32	1317.75	438.6
1039.3618	3114.3117	1322.25	439.9
1039.4689	3115.3028	1319.95	437.55
1039.5759	3116.2932	1318.15	433.6
1039.6829	3117.2831	1312.5	427.75
1039.7898	3118.2723	1315.1	433.9
1039.8967	3119.2608	1313.7	432.15
1040.0035	3120.2488	1307.05	423.05
1040.1103	3121.2361	1302.65	421.5
1040.2171	3122.2229	1304.1	420.85
1040.3238	3123.209	1300.7	417.25
1040.4305	3124.1944	1300.45	417.85
1040.5371	3125.1793	1286.75	403.4
1040.6437	3126.1635	1292.1	410.35
1040.7502	3127.1471	1287.1	405.45
1040.8567	3128.1301	1281.95	400
1040.9631	3129.1125	1276	394.5
1041.0695	3130.0942	1286.6	404.65
1041.1759	3131.0753	1288.7	399.7
1041.2822	3132.0558	1281.45	395.2
1041.3884	3133.0357	1274.5	391.4
1041.4946	3134.015	1272.15	389.6
1041.6008	3134.9936	1269.95	387.85
1041.7069	3135.9716	1289.9	383.3
1041.813	3136.949	1268.55	387.6
1041.919	3137.9258	1281.35	380.95
1042.025	3138.902	1268.4	379.15
1042.1309	3139.8775	1257.75	377.4
1042.2368	3140.8524	1263.35	379.9
1042.3427	3141.8267	1260	378.55
1042.4485	3142.8004	1259.85	378.15
1042.5542	3143.7735	1260.3	370.35
1042.6599	3144.7459	1250.45	367.6
1042.7656	3145.7178	1254.25	373.2
1042.8712	3146.689	1244.15	364.2
1042.9768	3147.6596	1244.5	359.65
1043.0823	3148.6295	1241.45	360.4
1043.1878	3149.5989	1233.4	350.95
1043.2932	3150.5676	1229.7	349.85
1043.3986	3151.5357	1229.05	350
1043.5039	3152.5032	1226.3	346.35
1043.6092	3153.4701	1227.05	344.3
1043.7145	3154.4364	1234.3	350.75
1043.8197	3155.402	1220.95	341.25
1043.9248	3156.367	1222.5	340
1044.03	3157.3315	1261.2	336.2
1044.135	3158.2952	1222.55	341
1044.24	3159.2584	1208.7	328.2
1044.345	3160.221	1212.8	330.55
1044.4499	3161.1829	1215.1	332.75
1044.5548	3162.1442	1210.4	328.15
1044.6596	3163.105	1205.45	325.1
1044.7644	3164.065	1206.25	323.75
1044.8692	3165.0245	1207.65	323.45
1044.9739	3165.9834	1202.45	322.3
1045.0785	3166.9416	1197.9	314.6
1045.1831	3167.8993	1192.9	311.15
1045.2877	3168.8563	1195.4	314.05
1045.3922	3169.8127	1193.6	312.6
1045.4966	3170.7684	1189.35	306.75
1045.6011	3171.7236	1191	311.2
1045.7054	3172.6782	1186.9	305.3
1045.8098	3173.6321	1191.5	310.4
1045.914	3174.5854	1193.85	307.65
1046.0183	3175.5381	1184.2	301.55
1046.1224	3176.4902	1182.05	301.35
1046.2266	3177.4417	1179.15	296.45
1046.3307	3178.3926	1179.3	300.45
1046.4347	3179.3428	1177.2	297.2
1046.5387	3180.2924	1172.75	290.05
1046.6427	3181.2415	1176.05	295.3
1046.7466	3182.1899	1168.4	287.45
1046.8504	3183.1377	1170.85	291.2
1046.9542	3184.0848	1168.75	282.75
1047.058	3185.0314	1162.55	282.15
1047.1617	3185.9773	1169.25	286.35
1047.2654	3186.9227	1164.6	281.45
1047.369	3187.8674	1160.7	279.5
1047.4726	3188.8115	1170.45	284.85
1047.5761	3189.755	1161.65	280.7
1047.6796	3190.6979	1158.9	276.15
1047.783	3191.6402	1161.5	281.85
1047.8864	3192.5818	1153.85	270.95
1047.9898	3193.5229	1159.9	270.45
1048.0931	3194.4633	1150.6	268.95
1048.1963	3195.4031	1156.2	274.4
1048.2995	3196.3423	1151.65	270.65
1048.4027	3197.2809	1142.7	260.3
1048.5058	3198.2189	1147.35	267.45
1048.6089	3199.1563	1152.8	265.2
1048.7119	3200.0931	1144.1	265.6
1048.8148	3201.0292	1143.75	264.95
1048.9178	3201.9648	1142.8	261.45
1049.0206	3202.8997	1149.55	264.9
1049.1235	3203.834	1137.8	255.65
1049.2262	3204.7677	1144.1	264.4
1049.329	3205.7008	1134.9	252.7
1049.4317	3206.6333	1132.15	253.3
1049.5343	3207.5652	1134.1	250.2
1049.6369	3208.4964	1131.45	250
1049.7394	3209.4271	1132.1	253.2
1049.8419	3210.3571	1128.25	249.1
1049.9444	3211.2865	1127.6	245.9
1050.0468	3212.2154	1131.45	249.75
1050.1491	3213.1436	1129.9	247.05
1050.2514	3214.0712	1130.3	242.25
1050.3537	3214.9982	1124.9	245.55
1050.4559	3215.9246	1120.15	238.95
1050.5581	3216.8503	1118.3	236.95
1050.6602	3217.7755	1117.45	236
1050.7623	3218.7001	1121.4	242.45
1050.8643	3219.624	1119.25	239.65
1050.9663	3220.5473	1115.75	236.7
1051.0682	3221.4701	1110.55	229.15
1051.1701	3222.3922	1111.55	228.35
1051.2719	3223.3137	1109.15	229.8
1051.3737	3224.2346	1109.55	228.3
1051.4754	3225.1549	1109.6	229.45
1051.5771	3226.0746	1106.55	226.55
1051.6788	3226.9937	1106.9	226.4
1051.7804	3227.9121	1105.95	227.7
1051.8819	3228.83	1103.4	222.25
1051.9834	3229.7473	1107.65	229.3
1052.0849	3230.6639	1102	222.1
1052.1863	3231.5799	1105.3	224.9
1052.2876	3232.4954	1097.25	214.2
1052.3889	3233.4102	1097.05	216
1052.4902	3234.3244	1100.05	218.25
1052.5914	3235.238	1094.7	214.65
1052.6926	3236.151	1119.05	213.3
1052.7937	3237.0634	1091.15	211.85
1052.8948	3237.9752	1092.35	211.55
1052.9958	3238.8864	1091	210.3
1053.0968	3239.797	1093.75	213.5
1053.1977	3240.7069	1088.05	209.05
1053.2986	3241.6163	1088.3	206.55
1053.3994	3242.5251	1084	205.65
1053.5002	3243.4332	1079.9	200.7
1053.6009	3244.3408	1087.1	203.8
1053.7016	3245.2477	1083.5	204.45
1053.8022	3246.154	1083.85	203.75
1053.9028	3247.0598	1081.6	201.45
1054.0034	3247.9649	1077.3	195.7
1054.1039	3248.8694	1083.8	203.1
1054.2043	3249.7733	1074.4	195.5
1054.3047	3250.6766	1073.3	193.7
1054.4051	3251.5793	1072.65	190.05
1054.5054	3252.4814	1069.95	190.1
1054.6056	3253.3829	1070.95	190.45
1054.7058	3254.2838	1066.5	184.8
1054.806	3255.1841	1069.25	188.95
1054.9061	3256.0838	1068.15	186.85
1055.0061	3256.9829	1059.95	180
1055.1062	3257.8814	1064.15	182.65
1055.2061	3258.7792	1064.9	183.25
1055.306	3259.6765	1060.55	178.6
1055.4059	3260.5731	1054.7	174.6
1055.5057	3261.4692	1056.5	175.3
1055.6055	3262.3647	1055.05	173.8
1055.7052	3263.2595	1052.1	172.05
1055.8049	3264.1538	1050.35	170
1055.9045	3265.0474	1049.55	170.2
1056.0041	3265.9404	1045	164.4
1056.1036	3266.8329	1036.4	158.15
1056.2031	3267.7247	1046.65	154.7
1056.3025	3268.616	1032.6	155.25
1056.4019	3269.5066	1028.5	148.3
1056.5013	3270.3966	1025.95	144.2
1056.6005	3271.286	1017.05	139.35
