Software Version:	3.9.2.0
Unit SN:	10000200
Spectrometer SN:	6960
Date:	3/26/2024 2:27:01 PM
Data Line Index:	25
Spectral Points:	2048
Integration time (ms):	125
Averages:	20
Delay (ms):	30000
Sequence Number:	1
Processing:	dark subtract
Laser Power (mW):	300
Laser Current (mA):	819
Laser Diode Temp (C):	25
Laser Case Temp (C):	27.7
System Temp (C):	27.7
Spectrometer Temp (C):	25.6
CCD Temp (C):	0.004
Secondary Temp (C):	20.013
Heatsink Temp (C):	23.437
CCDPCB Temp (C):	37.152
SecondaryPCB Temp (C):	34.651

Wavelength	RamanShift	Raw Counts	Dark Subtracted
787.061	30.1047	661.75	254.05
787.2016	32.3739	665.8	259.55
787.3422	34.6426	689.75	281.05
787.4828	36.9109	710.65	300
787.6235	39.1787	728.75	314.95
787.7642	41.4461	751.85	331.85
787.9049	43.7131	782.6	359.15
788.0456	45.9796	803.85	377.85
788.1863	48.2456	833.55	401.8
788.3271	50.5112	857.2	422.35
788.4679	52.7764	893.95	457.15
788.6087	55.0411	919.75	478.75
788.7496	57.3054	953.85	507.75
788.8904	59.5692	990.2	540.6
789.0313	61.8326	1034	581.3
789.1722	64.0955	1070.35	611.45
789.3132	66.3579	1121	659.6
789.4541	68.6199	1179.25	714.6
789.5951	70.8815	1279.05	811.25
789.7361	73.1426	1494.2	1022.8
789.8771	75.4032	2035	1556.5
790.0181	77.6634	3375	2891.75
790.1592	79.9231	6730	6237.1
790.3003	82.1824	14493.8	13982.95
790.4414	84.4412	33544.3	32999.7
790.5825	86.6995	61704.3	61114.35
790.7237	88.9574	65535	64901.6
790.8648	91.2148	65535	64872.75
791.006	93.4717	65535	64851.75
791.1472	95.7282	65535	64838.55
791.2885	97.9842	65535	64832.4
791.4297	100.2398	65535	64830.3
791.571	102.4949	65535	64828.25
791.7123	104.7495	65535	64827.6
791.8536	107.0036	65535	64823.7
791.9949	109.2573	65535	64829.05
792.1363	111.5105	65535	64821.85
792.2777	113.7632	65535	64821.3
792.4191	116.0154	65535	64809.65
792.5605	118.2672	65535	64816.95
792.7019	120.5185	65535	64816.1
792.8434	122.7693	65535	64814
792.9849	125.0197	65535	64809.5
793.1264	127.2696	65535	64809.3
793.2679	129.519	65535	64806.55
793.4094	131.7679	65535	64799.75
793.551	134.0163	65535	64794.6
793.6926	136.2642	65535	64792.1
793.8342	138.5117	65535	64788.8
793.9758	140.7587	65535	64791.45
794.1175	143.0052	65535	64782.55
794.2591	145.2512	65535	64785.85
794.4008	147.4967	65535	64790.05
794.5425	149.7417	65535	64785.55
794.6842	151.9863	65535	64780.5
794.826	154.2304	65535	64778.35
794.9677	156.4739	65535	64772.95
795.1095	158.717	65535	64771.8
795.2513	160.9596	65535	64769.75
795.3931	163.2017	65535	64765.45
795.535	165.4433	65535	64768.25
795.6768	167.6844	65535	64765.4
795.8187	169.925	65535	64760.75
795.9606	172.1651	65535	64763.15
796.1025	174.4047	65535	64759.95
796.2445	176.6439	65535	64758.05
796.3864	178.8825	65535	64754.25
796.5284	181.1206	65535	64743.8
796.6704	183.3582	65535	64741.35
796.8124	185.5954	65535	64739.15
796.9544	187.832	65535	64735.35
797.0965	190.0681	65535	64735.75
797.2386	192.3037	65535	64732.9
797.3806	194.5388	65535	64728.7
797.5228	196.7734	65535	64721.05
797.6649	199.0075	65535	64722.9
797.807	201.2411	65535	64716.55
797.9492	203.4742	65535	64725.6
798.0914	205.7068	65535	64715.8
798.2336	207.9389	65535	64720.1
798.3758	210.1704	65535	64716.5
798.518	212.4015	65535	64713.15
798.6603	214.632	65535	64715.25
798.8025	216.862	65535	64722.35
798.9448	219.0915	65535	64729.05
799.0871	221.3205	65535	64731.15
799.2294	223.549	65535	64733
799.3718	225.777	65535	64737.9
799.5141	228.0044	65535	64732.9
799.6565	230.2314	65535	64737.6
799.7989	232.4578	65535	64733.35
799.9413	234.6837	65535	64724.3
800.0837	236.909	65535	64721.2
800.2262	239.1339	65535	64698.45
800.3687	241.3582	65535	64710.2
800.5111	243.582	65535	64682
800.6536	245.8053	65535	64697.7
800.7961	248.0281	65535	64702.4
800.9387	250.2503	65535	64695.9
801.0812	252.472	65535	64690.05
801.2238	254.6932	65535	64688.6
801.3664	256.9139	65535	64694.6
801.509	259.134	65535	64680.1
801.6516	261.3536	65535	64690.9
801.7942	263.5727	65535	64683.9
801.9369	265.7912	65535	64687.65
802.0795	268.0092	65535	64687.45
802.2222	270.2267	65535	64687.25
802.3649	272.4436	65535	64681.5
802.5076	274.6601	65535	64678.15
802.6504	276.8759	65535	64685.8
802.7931	279.0913	65535	64679.8
802.9359	281.3061	65535	64677.25
803.0787	283.5204	65535	64678.45
803.2215	285.7341	65535	64674.15
803.3643	287.9473	65535	64661
803.5071	290.16	65535	64665.6
803.6499	292.3721	65535	64675
803.7928	294.5837	65535	64669.3
803.9357	296.7947	65535	64666.75
804.0786	299.0052	65535	64670.75
804.2215	301.2152	65535	64665.75
804.3644	303.4246	65535	64673.5
804.5074	305.6334	65535	64679.35
804.6503	307.8418	65535	64671.8
804.7933	310.0495	65535	64666.85
804.9363	312.2568	65535	64664.7
805.0793	314.4635	65535	64669.05
805.2223	316.6696	65535	64662.65
805.3653	318.8752	65535	64659.35
805.5084	321.0802	65535	64663.25
805.6514	323.2847	65535	64660.85
805.7945	325.4887	65535	64661
805.9376	327.692	65535	64656.35
806.0807	329.8949	65535	64659.55
806.2238	332.0972	65535	64657.55
806.367	334.2989	65535	64653.05
806.5101	336.5001	65535	64652.2
806.6533	338.7007	65535	64656.5
806.7965	340.9008	65535	64651.9
806.9397	343.1003	65535	64647.85
807.0829	345.2992	65535	64649.1
807.2261	347.4976	65535	64647.55
807.3693	349.6955	65535	64646.4
807.5126	351.8927	65535	64642.9
807.6559	354.0895	65535	64633.15
807.7991	356.2856	65535	64641.6
807.9424	358.4812	65535	64642.55
808.0857	360.6763	65535	64640.5
808.2291	362.8707	65535	64638.75
808.3724	365.0646	65535	64640.65
808.5158	367.258	65535	64638.15
808.6591	369.4508	65535	64634.4
808.8025	371.643	65535	64637.05
808.9459	373.8346	65535	64631.65
809.0893	376.0257	65535	64629.25
809.2327	378.2162	65535	64633
809.3762	380.4062	65535	64630.7
809.5196	382.5956	65535	64630.1
809.6631	384.7844	65535	64629.15
809.8066	386.9726	65535	64629.3
809.9501	389.1603	65535	64628.85
810.0936	391.3474	65535	64590.85
810.2371	393.5339	65535	64631.1
810.3806	395.7199	65535	64639.55
810.5241	397.9052	65535	64637.7
810.6677	400.09	65535	64639.6
810.8113	402.2743	65535	64641.75
810.9548	404.4579	65535	64638.25
811.0984	406.641	65535	64639.25
811.2421	408.8235	65535	64641.5
811.3857	411.0054	65535	64641.05
811.5293	413.1868	65535	64633.25
811.673	415.3675	65535	64632.1
811.8166	417.5477	65535	64631.35
811.9603	419.7273	65535	64627.65
812.104	421.9064	65535	64623.4
812.2477	424.0848	65535	64626.8
812.3914	426.2627	65535	64627.9
812.5351	428.4399	65535	64626.5
812.6788	430.6166	65535	64619.6
812.8226	432.7928	65535	64624
812.9663	434.9683	65535	64628.6
813.1101	437.1432	65535	64625.55
813.2539	439.3176	65535	64631.2
813.3977	441.4914	65535	64635.65
813.5415	443.6645	65535	64625.75
813.6853	445.8371	65535	64621.3
813.8291	448.0091	65535	64626.95
813.973	450.1806	65535	64630
814.1168	452.3514	65535	64626.3
814.2607	454.5216	65535	64620.35
814.4046	456.6913	65535	64622.95
814.5485	458.8603	65535	64629.8
814.6924	461.0288	65535	64631.05
814.8363	463.1967	65535	64632.25
814.9802	465.3639	65535	64624.35
815.1241	467.5306	65535	64626.8
815.2681	469.6967	65535	64627.75
815.412	471.8622	65535	64629
815.556	474.0271	65535	64627.45
815.7	476.1914	65535	64624.3
815.844	478.3551	65535	64624.05
815.988	480.5182	65535	64623.9
816.132	482.6807	65535	64630.85
816.276	484.8426	65535	64634.75
816.4201	487.0039	65535	64629.05
816.5641	489.1647	65535	64626.05
816.7082	491.3248	65535	64623.4
816.8522	493.4843	65535	64629.65
816.9963	495.6432	65535	64626.35
817.1404	497.8015	65535	64618.95
817.2845	499.9592	65535	64612.75
817.4286	502.1163	65535	64611.7
817.5727	504.2728	65535	64620.7
817.7168	506.4287	65535	64629.1
817.861	508.5839	65535	64629.1
818.0051	510.7386	65535	64623.5
818.1493	512.8927	65535	64611.8
818.2935	515.0461	65535	64618.05
818.4377	517.199	65535	64611
818.5818	519.3512	65535	64617.1
818.726	521.5029	65535	64612.2
818.8703	523.6539	65535	64616.15
819.0145	525.8043	65535	64615.8
819.1587	527.9541	65535	64613.95
819.303	530.1033	65535	64616.65
819.4472	532.2519	65535	64614.85
819.5915	534.3999	65535	64610.05
819.7357	536.5472	65535	64621.65
819.88	538.694	65535	64615.75
820.0243	540.8401	65535	64614.9
820.1686	542.9856	65535	64607.9
820.3129	545.1305	65535	64603.95
820.4572	547.2748	65535	64599.3
820.6016	549.4185	65535	64594.45
820.7459	551.5615	65535	64601.3
820.8902	553.704	65535	64595.85
821.0346	555.8458	65535	64604.55
821.1789	557.987	65535	64599.95
821.3233	560.1276	65535	64598.55
821.4677	562.2675	65535	64597.25
821.6121	564.4069	65535	64607.75
821.7565	566.5456	65535	64605.95
821.9009	568.6837	65535	64608.1
822.0453	570.8212	65535	64609.35
822.1897	572.958	65535	64607.7
822.3342	575.0942	65535	64610.05
822.4786	577.2299	65535	64614.45
822.6231	579.3648	65535	64627.55
822.7675	581.4992	65535	64633.85
822.912	583.6329	65535	64633.95
823.0565	585.766	65535	64627.9
823.201	587.8985	65535	64624.3
823.3454	590.0304	65535	64589.8
823.4899	592.1616	65535	64605.55
823.6345	594.2922	65535	64603.75
823.779	596.4222	65535	64601.35
823.9235	598.5515	65535	64602.05
824.068	600.6802	65535	64601.75
824.2126	602.8083	65535	64604.35
824.3571	604.9358	65535	64604.35
824.5017	607.0626	65535	64601.7
824.6462	609.1888	65535	64595
824.7908	611.3144	65535	64597.1
824.9354	613.4393	65535	64598
825.08	615.5636	65535	64593
825.2246	617.6873	65535	64596.15
825.3692	619.8103	65535	64597.05
825.5138	621.9327	65535	64597.8
825.6584	624.0544	65535	64604.2
825.803	626.1756	65535	64605.15
825.9477	628.2961	65535	64600.5
826.0923	630.4159	65535	64600.2
826.237	632.5351	65535	64597.1
826.3816	634.6537	65535	64595
826.5263	636.7716	65535	64593.05
826.6709	638.8889	65535	64593.25
826.8156	641.0056	65535	64590.1
826.9603	643.1216	65535	64593.45
827.105	645.237	65535	64593.3
827.2497	647.3518	65535	64598.35
827.3944	649.4659	65535	64605.1
827.5391	651.5793	65535	64603.4
827.6838	653.6922	65535	64605.5
827.8285	655.8043	65535	64602.8
827.9733	657.9159	65535	64597.75
828.118	660.0268	65535	64599.6
828.2627	662.137	65535	64597.65
828.4075	664.2466	65535	64592.8
828.5522	666.3556	65535	64592.95
828.697	668.4639	65535	64597.3
828.8418	670.5716	65535	64603.95
828.9865	672.6786	65535	64596.7
829.1313	674.785	65535	64591.15
829.2761	676.8907	65535	64596.4
829.4209	678.9958	65535	64599.85
829.5657	681.1002	65535	64592.75
829.7105	683.204	65535	64587.3
829.8553	685.3072	65535	64593.15
830.0001	687.4097	65535	64594.1
830.1449	689.5115	65535	64590.4
830.2898	691.6127	65535	64594.45
830.4346	693.7132	65535	64598.4
830.5794	695.8131	65535	64570.25
830.7243	697.9123	65535	64591.4
830.8691	700.0109	65535	64590
831.014	702.1089	65535	64589.15
831.1588	704.2061	65535	64591.15
831.3037	706.3028	65535	64586.35
831.4486	708.3987	65535	64589.25
831.5935	710.4941	65535	64590.45
831.7383	712.5887	65535	64593.75
831.8832	714.6827	65535	64588.25
832.0281	716.7761	65535	64591.85
832.173	718.8688	65535	64592.5
832.3179	720.9608	65535	64582.95
832.4628	723.0522	65535	64579.6
832.6077	725.1429	65535	64589.9
832.7527	727.233	65535	64592.25
832.8976	729.3224	65535	64589.4
833.0425	731.4112	65535	64590.1
833.1874	733.4993	65535	64588.4
833.3324	735.5867	65535	64588.05
833.4773	737.6735	65535	64589.3
833.6222	739.7596	65535	64586.05
833.7672	741.845	65535	64588.35
833.9122	743.9298	65535	64588.5
834.0571	746.014	65535	64586.4
834.2021	748.0974	65535	64581.85
834.347	750.1802	65535	64582.1
834.492	752.2624	65535	64578.8
834.637	754.3439	65535	64582.65
834.782	756.4247	65535	64576.65
834.9269	758.5048	65535	64587.55
835.0719	760.5843	65535	64583.25
835.2169	762.6631	65535	64581.9
835.3619	764.7413	65535	64586.95
835.5069	766.8188	65535	64584
835.6519	768.8956	65535	64581.65
835.7969	770.9718	65535	64585.95
835.9419	773.0473	65535	64585
836.0869	775.1221	65535	64583.75
836.232	777.1962	65535	64583.15
836.377	779.2697	65535	64582.5
836.522	781.3426	65535	64563.55
836.667	783.4147	65535	64586.5
836.8121	785.4862	65535	64583.5
836.9571	787.557	65535	64581.65
837.1021	789.6271	65535	64584.2
837.2472	791.6966	65535	64585
837.3922	793.7654	65535	64584.8
837.5373	795.8335	65535	64586.4
837.6823	797.901	65535	64582.85
837.8274	799.9678	65535	64582.6
837.9724	802.0339	65535	64582.75
838.1175	804.0993	65535	64568.05
838.2626	806.1641	65535	64581.85
838.4076	808.2282	65535	64584.5
838.5527	810.2916	65535	64578.8
838.6978	812.3544	65535	64583.6
838.8428	814.4164	65534.3	64584.85
838.9879	816.4778	65532.8	64574.3
839.133	818.5385	65535	64579.5
839.2781	820.5986	65534.9	64580.05
839.4232	822.658	65535	64582.15
839.5682	824.7166	65535	64581.15
839.7133	826.7747	65524	64571.1
839.8584	828.832	65525.6	64569.7
840.0035	830.8886	65535	64576.85
840.1486	832.9446	65535	64574.4
840.2937	834.9999	65504	64550.85
840.4388	837.0545	65527.25	64567.4
840.5839	839.1085	65535	64579.15
840.729	841.1618	65534.4	64574
840.8741	843.2143	65506.05	64551.05
841.0192	845.2662	65498.65	64545.2
841.1643	847.3175	65518.6	64564.6
841.3095	849.368	65394.2	64439.75
841.4546	851.4179	65503.85	64547.15
841.5997	853.467	65414.35	64460.2
841.7448	855.5155	65484.15	64531.3
841.8899	857.5633	65368.05	64410.85
842.0351	859.6105	65305.3	64346.4
842.1802	861.6569	65379.7	64423.5
842.3253	863.7027	65179.3	64220.4
842.4704	865.7478	65257.2	64296.85
842.6156	867.7922	65238.25	64283
842.7607	869.8359	65325.15	64366.75
842.9058	871.8789	65117.9	64162
843.0509	873.9212	65255.8	64267.35
843.1961	875.9629	65301.55	64346.4
843.3412	878.0039	65247.1	64289.35
843.4863	880.0441	65195.25	64242.6
843.6315	882.0837	65187.65	64233.3
843.7766	884.1226	65150.9	64189.85
843.9218	886.1609	65095.7	64138
844.0669	888.1984	64981	64024.8
844.212	890.2352	65150.25	64192
844.3572	892.2714	64884.4	63921.85
844.5023	894.3069	65018.15	64062.95
844.6475	896.3416	64879.55	63923.2
844.7926	898.3757	64856.35	63898.4
844.9377	900.4091	64459.5	63498.25
845.0829	902.4418	64989.95	64028.2
845.228	904.4739	64730.85	63770.35
845.3732	906.5052	64731.15	63771.7
845.5183	908.5358	64547.5	63592.25
845.6635	910.5658	64398.7	63436.8
845.8086	912.595	64362.2	63404.2
845.9538	914.6236	63796.5	62838.75
846.0989	916.6515	64586.75	63631.15
846.2441	918.6786	63804.7	62845.95
846.3892	920.7051	64048.45	63088.6
846.5344	922.7309	63918	62959.55
846.6795	924.756	64083.3	63126.15
846.8246	926.7804	63805.2	62843.8
846.9698	928.8041	63130.25	62171.15
847.1149	930.8272	63651	62690.3
847.2601	932.8495	63688.75	62731.95
847.4052	934.8711	63176.8	62215.6
847.5504	936.892	62740.65	61782.6
847.6955	938.9123	62967.5	62008.55
847.8407	940.9318	62518.25	61560.4
847.9858	942.9506	62404.95	61446.7
848.131	944.9688	62461.7	61503.3
848.2761	946.9862	61445.05	60485.35
848.4213	949.003	61876.45	60917.65
848.5664	951.019	60919.25	59960.95
848.7115	953.0344	61175.75	60217.55
848.8567	955.0491	60983.5	60025.3
849.0018	957.063	61315.55	60358.4
849.147	959.0763	61425.7	60458
849.2921	961.0888	60732.25	59771.85
849.4373	963.1007	61275.55	60321.95
849.5824	965.1119	61216.75	60269
849.7275	967.1223	60654.1	59708.65
849.8727	969.1321	61290.45	60345.95
850.0178	971.1412	60453.1	59500.5
850.1629	973.1495	60087.75	59136.05
850.3081	975.1572	60460.05	59449
850.4532	977.1641	60118.5	59158
850.5983	979.1704	59946.8	58987.25
850.7435	981.1759	60061.9	59099.05
850.8886	983.1808	59587.85	58627.1
851.0337	985.1849	59670.8	58703.8
851.1788	987.1884	59848.45	58893.3
851.324	989.1911	60346.25	59390.2
851.4691	991.1932	59116.6	58161.95
851.6142	993.1945	59458	58504.7
851.7593	995.1951	59670.7	58713.65
851.9045	997.1951	58955.75	57992.85
852.0496	999.1943	58686.1	57731.1
852.1947	1001.1928	58429.35	57474.75
852.3398	1003.1906	58565.95	57609.9
852.4849	1005.1877	57769.4	56814.8
852.63	1007.1841	57471.85	56516
852.7751	1009.1798	57414.85	56458.85
852.9202	1011.1748	57186.55	56232.45
853.0653	1013.1691	56901.55	55946
853.2104	1015.1627	55676.4	54720.8
853.3555	1017.1556	55645.25	54696.35
853.5006	1019.1477	55850.4	54899.55
853.6457	1021.1392	55224.2	54274.6
853.7908	1023.1299	54526.85	53581.35
853.9359	1025.12	54833.35	53890.1
854.081	1027.1093	54408.5	53475.55
854.2261	1029.0979	54344.25	53414.15
854.3712	1031.0859	54315.85	53381.45
854.5163	1033.0731	53703.85	52756.95
854.6613	1035.0596	53759.2	52811.2
854.8064	1037.0454	53478.95	52526.7
854.9515	1039.0304	52981.25	52030.25
855.0965	1041.0148	52542.15	51589.3
855.2416	1042.9985	52378.05	51420.95
855.3867	1044.9814	52438.35	51487.55
855.5317	1046.9636	52030.3	51076.4
855.6768	1048.9452	51812.55	50864.4
855.8219	1050.926	51685.15	50733.55
855.9669	1052.9061	51531.1	50580.15
856.112	1054.8855	51441.8	50487.65
856.257	1056.8642	51133.25	50176.75
856.4021	1058.8421	51119.95	50163.3
856.5471	1060.8194	51014.4	50059.1
856.6921	1062.7959	50839.9	49884.35
856.8372	1064.7717	50783.25	49830.95
856.9822	1066.7469	50614.05	49658.9
857.1272	1068.7213	50496.6	49544.1
857.2723	1070.695	50287.45	49333.5
857.4173	1072.6679	49855.7	48904.3
857.5623	1074.6402	49769.5	48820.7
857.7073	1076.6117	49624.35	48668.75
857.8523	1078.5826	49590.4	48637.1
857.9973	1080.5527	49456.7	48500.05
858.1423	1082.5221	49489.65	48536.35
858.2873	1084.4908	49582.1	48628.6
858.4323	1086.4587	49636.9	48686.65
858.5773	1088.426	49685.85	48732.7
858.7223	1090.3925	49482.3	48523.75
858.8673	1092.3584	49329.8	48375.2
859.0123	1094.3235	48874.8	47923.55
859.1573	1096.2879	48612.15	47659.7
859.3022	1098.2515	48430.25	47478.5
859.4472	1100.2145	48377.7	47426.65
859.5922	1102.1767	48257.3	47302.65
859.7371	1104.1382	48254.75	47305.1
859.8821	1106.099	48300.1	47348.25
860.027	1108.0591	48315.7	47366.6
860.172	1110.0185	48291.6	47339.6
860.3169	1111.9771	48264.5	47313.7
860.4619	1113.9351	47754.65	46802.1
860.6068	1115.8923	47250.95	46298.1
860.7517	1117.8488	46778.6	45828
860.8967	1119.8045	46226.8	45276
861.0416	1121.7596	46076.05	45121.55
861.1865	1123.7139	45770.6	44819.95
861.3314	1125.6675	45670.2	44722.35
861.4763	1127.6204	45761.95	44810.8
861.6212	1129.5726	45575.65	44622.7
861.7661	1131.524	45558.95	44606.4
861.911	1133.4748	45555.05	44604.05
862.0559	1135.4248	45416.6	44465.25
862.2008	1137.3741	45319.55	44366.95
862.3457	1139.3226	45164.05	44211.25
862.4905	1141.2705	45139.05	44189.75
862.6354	1143.2176	44716.85	43760.6
862.7803	1145.164	44674.65	43720.85
862.9251	1147.1097	44576.05	43625.8
863.07	1149.0546	44459.7	43508.75
863.2148	1150.9989	44382.05	43432.85
863.3597	1152.9424	44102.7	43152.15
863.5045	1154.8852	43837.4	42884.7
863.6493	1156.8272	43536.6	42586.75
863.7942	1158.7686	43452.9	42493.35
863.939	1160.7092	43182.2	42230.1
864.0838	1162.6491	42963.8	42014.3
864.2286	1164.5883	43055.7	42106.65
864.3734	1166.5267	42925.25	41975.1
864.5182	1168.4644	43034.45	42087.2
864.663	1170.4014	43068.55	42114.4
864.8078	1172.3377	43229.3	42280.15
864.9526	1174.2732	43334.4	42389.9
865.0974	1176.2081	43457.1	42509.05
865.2421	1178.1421	43520.75	42570.05
865.3869	1180.0755	43582.6	42633
865.5317	1182.0082	43330.4	42384.95
865.6764	1183.9401	43187	42239.95
865.8212	1185.8713	42846.15	41904.9
865.9659	1187.8017	42461.95	41525.5
866.1106	1189.7315	42174.75	41246.55
866.2554	1191.6605	41717.9	40787.95
866.4001	1193.5888	41328.55	40391.5
866.5448	1195.5163	41145.3	40205.8
866.6895	1197.4432	40898.9	39950.05
866.8342	1199.3693	40714.25	39770.15
866.9789	1201.2947	40482.8	39528.45
867.1236	1203.2193	40284.95	39336.65
867.2683	1205.1432	40281.25	39336.8
867.413	1207.0664	40190	39246.6
867.5576	1208.9889	40121.7	39173.45
867.7023	1210.9106	40027.45	39082.75
867.847	1212.8316	39932.05	38987.75
867.9916	1214.7519	39955.25	39000.35
868.1363	1216.6715	39782.4	38834.9
868.2809	1218.5903	39751.65	38806.4
868.4255	1220.5084	39532.35	38584.85
868.5701	1222.4257	39460.1	38514.95
868.7148	1224.3424	39075.5	38133.5
868.8594	1226.2583	39084.5	38135.6
869.004	1228.1735	39036.1	38093.05
869.1486	1230.0879	39004.3	38058.6
869.2932	1232.0016	38990.35	38047.45
869.4377	1233.9146	38927.65	37984.7
869.5823	1235.8269	38718.4	37773.2
869.7269	1237.7384	38585	37636
869.8715	1239.6492	38181.8	37238.85
870.016	1241.5592	37992.05	37049.55
870.1606	1243.4686	37747.5	36803.15
870.3051	1245.3772	37554.2	36610.8
870.4496	1247.285	37381.55	36437.35
870.5941	1249.1922	37148.35	36205.2
870.7387	1251.0986	37135	36191.45
870.8832	1253.0042	36956	36008.9
871.0277	1254.9092	36945.05	36001.45
871.1722	1256.8134	36948.85	36008.85
871.3167	1258.7169	37072.15	36128.55
871.4611	1260.6196	37113.95	36171.05
871.6056	1262.5216	37211.35	36267.65
871.7501	1264.4229	37255.85	36314.7
871.8945	1266.3234	37314.4	36373.25
872.039	1268.2232	37255.75	36310.95
872.1834	1270.1223	37144.5	36200.45
872.3278	1272.0207	36990.8	36046.35
872.4723	1273.9183	36868.05	35918.05
872.6167	1275.8151	36715.15	35770.6
872.7611	1277.7113	36560.5	35621.5
872.9055	1279.6067	36268.35	35327
873.0499	1281.5014	35946.3	35001.45
873.1943	1283.3953	35704.05	34760.7
873.3386	1285.2885	35588.2	34646
873.483	1287.181	35405	34462.15
873.6274	1289.0727	35411.75	34471.15
873.7717	1290.9637	35271.55	34327.75
873.9161	1292.854	35422.75	34480.4
874.0604	1294.7435	35425.25	34484.9
874.2047	1296.6323	35553.85	34610.8
874.349	1298.5204	35686.4	34744.85
874.4933	1300.4077	35913.3	34970.2
874.6376	1302.2943	36079.8	35140.3
874.7819	1304.1802	36096.1	35155.8
874.9262	1306.0653	35975.7	35031.55
875.0705	1307.9497	35721.75	34782
875.2147	1309.8333	35600.15	34657.3
875.359	1311.7162	35537.7	34598.35
875.5032	1313.5984	35515.05	34569.4
875.6475	1315.4798	35553.75	34599.35
875.7917	1317.3605	35701.45	34743.95
875.9359	1319.2405	35802.55	34859.2
876.0801	1321.1197	35732.4	34787.3
876.2243	1322.9982	35583.85	34639.35
876.3685	1324.876	35611.7	34670.55
876.5127	1326.753	35443.2	34504.65
876.6569	1328.6293	35459.2	34516.45
876.801	1330.5048	35451.3	34508.65
876.9452	1332.3796	35354.4	34415.95
877.0893	1334.2537	35295.95	34332
877.2335	1336.127	35104.8	34164.3
877.3776	1337.9996	34976.95	34035.15
877.5217	1339.8714	34850.6	33906.7
877.6658	1341.7426	34771.25	33786.85
877.8099	1343.6129	34606.45	33661.5
877.954	1345.4826	34406.25	33465.05
878.0981	1347.3515	34396.9	33457.4
878.2422	1349.2196	34197.9	33256.95
878.3862	1351.087	34172.05	33229.75
878.5303	1352.9537	34103.8	33160.6
878.6743	1354.8197	34217.5	33275.75
878.8184	1356.6849	34343.35	33404.2
878.9624	1358.5493	34299.9	33358.65
879.1064	1360.4131	34257.35	33317.9
879.2504	1362.276	34047.95	33109.4
879.3944	1364.1383	33793.9	32854.45
879.5384	1365.9998	33508.9	32561.8
879.6823	1367.8606	33112.3	32172.55
879.8263	1369.7206	32813.05	31870.35
879.9702	1371.5799	32529.45	31583.3
880.1142	1373.4384	32329.85	31387.45
880.2581	1375.2962	32177.4	31235.05
880.402	1377.1533	31773.85	30837.45
880.5459	1379.0096	31354.65	30418.6
880.6898	1380.8652	31090	30152.95
880.8337	1382.7201	30711.1	29772.95
880.9776	1384.5742	30381.8	29442.65
881.1215	1386.4275	30165.5	29229.3
881.2653	1388.2802	29993.65	29058.3
881.4092	1390.132	29775.5	28832.6
881.553	1391.9832	29688.25	28742.4
881.6968	1393.8336	29472.65	28529.75
881.8406	1395.6832	29346.6	28403.65
881.9844	1397.5322	29172.5	28233.8
882.1282	1399.3803	29104.55	28160.7
882.272	1401.2278	28909.75	27970.15
882.4158	1403.0745	28838.7	27900.7
882.5595	1404.9204	28681.55	27745.45
882.7033	1406.7656	28674.3	27735.7
882.847	1408.6101	28569.35	27631.85
882.9908	1410.4538	28465.1	27526.1
883.1345	1412.2968	28434.85	27494.8
883.2782	1414.139	28354.05	27415.6
883.4219	1415.9805	28361.45	27425.55
883.5656	1417.8213	28382.75	27425.25
883.7092	1419.6613	28347.9	27411.35
883.8529	1421.5006	28510.9	27573.05
883.9965	1423.3391	28690.2	27752.5
884.1402	1425.1769	28916.15	27979.75
884.2838	1427.0139	29408	28469.45
884.4274	1428.8502	29964.75	29027
884.571	1430.6858	30484.4	29547.05
884.7146	1432.5206	30761.1	29825.35
884.8582	1434.3547	31036.5	30097.3
885.0018	1436.188	31031.4	30097.2
885.1453	1438.0206	30983.15	30048
885.2889	1439.8524	30654.2	29717.3
885.4324	1441.6835	30523.9	29587.1
885.5759	1443.5139	30375.3	29437.05
885.7194	1445.3435	30183.5	29247.1
885.8629	1447.1724	30114.7	29180.05
886.0064	1449.0005	29968.75	29032.7
886.1499	1450.8279	29791.6	28857.5
886.2933	1452.6545	29687.35	28753.3
886.4368	1454.4804	29772.25	28840.05
886.5802	1456.3056	29696.5	28752.25
886.7237	1458.13	29568.8	28636.45
886.8671	1459.9536	29317.3	28382.25
887.0105	1461.7766	28883.3	27949.4
887.1539	1463.5987	28348.2	27410.75
887.2972	1465.4202	27891.3	26954.4
887.4406	1467.2409	27475.95	26541.4
887.584	1469.0608	27218.2	26286.15
887.7273	1470.88	26898.3	25959.9
887.8706	1472.6984	26655.45	25720.75
888.0139	1474.5161	26297.5	25364.2
888.1572	1476.3331	26095.85	25163.8
888.3005	1478.1493	25974.2	25037.2
888.4438	1479.9648	25835.55	24898.75
888.5871	1481.7795	25666.4	24731.35
888.7303	1483.5935	25584.1	24646.75
888.8736	1485.4067	25479.85	24539.95
889.0168	1487.2192	25414.75	24482.4
889.16	1489.031	25365.7	24429
889.3032	1490.842	25198.45	24265.9
889.4464	1492.6522	25147.65	24212.6
889.5896	1494.4618	25031.1	24096.45
889.7327	1496.2705	25006.45	24070.6
889.8759	1498.0785	24931.05	23996.15
890.019	1499.8858	24819	23885.45
890.1622	1501.6924	24745.35	23813.75
890.3053	1503.4981	24656.9	23724
890.4484	1505.3032	24591.85	23658.2
890.5914	1507.1075	24565.6	23630.35
890.7345	1508.911	24451.3	23519.55
890.8776	1510.7138	24421.9	23488.55
891.0206	1512.5159	24256.5	23324.65
891.1637	1514.3172	24154.9	23224.45
891.3067	1516.1178	24053.35	23123.9
891.4497	1517.9176	24008.9	23073.4
891.5927	1519.7166	23898.1	22969.4
891.7357	1521.515	23837	22898.85
891.8786	1523.3126	23737.25	22807.8
892.0216	1525.1094	23690	22757.6
892.1645	1526.9055	23546.35	22617.9
892.3074	1528.7008	23441.7	22511.55
892.4503	1530.4954	23326.2	22388
892.5932	1532.2893	23266.5	22338.6
892.7361	1534.0824	23142.7	22212.5
892.879	1535.8747	23155.8	22228.7
893.0218	1537.6663	23041.35	22115.4
893.1647	1539.4572	22957.15	22028.75
893.3075	1541.2473	22935.45	22009.4
893.4503	1543.0367	22821.9	21895.1
893.5931	1544.8253	22755.7	21824.4
893.7359	1546.6132	22747	21820.15
893.8787	1548.4003	22609.15	21674
894.0214	1550.1867	22594.1	21658.8
894.1642	1551.9723	22518.5	21591.45
894.3069	1553.7572	22517.2	21592
894.4496	1555.5414	22449.25	21528.15
894.5923	1557.3247	22463.1	21540.85
894.735	1559.1074	22422.25	21499.75
894.8777	1560.8893	22371.1	21453.15
895.0204	1562.6705	22348.15	21425.55
895.163	1564.4509	22394.9	21476.7
895.3056	1566.2305	22335.45	21420.5
895.4482	1568.0094	22468.45	21550.7
895.5908	1569.7876	22531.2	21610.55
895.7334	1571.565	22516.1	21594.3
895.876	1573.3417	22547.6	21626.85
896.0186	1575.1176	22502.3	21584.95
896.1611	1576.8928	22462.5	21545.5
896.3036	1578.6672	22291.65	21378.1
896.4461	1580.4409	22120.8	21212.65
896.5886	1582.2138	21872.75	20957.1
896.7311	1583.986	21738.8	20820.05
896.8736	1585.7575	21595.3	20680.2
897.0161	1587.5282	21464.25	20552.95
897.1585	1589.2981	21362.7	20452.1
897.3009	1591.0673	21198.7	20287
897.4433	1592.8358	21164.7	20249.5
897.5857	1594.6035	21107.8	20192.35
897.7281	1596.3704	21017.45	20099.25
897.8705	1598.1366	20991.65	20073.75
898.0128	1599.9021	20952.95	20039.05
898.1551	1601.6668	20905.45	19988.85
898.2975	1603.4308	20888	19967.9
898.4398	1605.194	20904.8	19983.75
898.5821	1606.9564	20935.7	20026.65
898.7243	1608.7182	20983.25	20075.1
898.8666	1610.4791	21076.85	20174.1
899.0088	1612.2394	21109.65	20208.2
899.1511	1613.9988	21225.45	20321
899.2933	1615.7576	21435.05	20526.2
899.4355	1617.5156	21614.05	20692.5
899.5776	1619.2728	21846.55	20929.1
899.7198	1621.0293	22004.6	21088.6
899.862	1622.785	22074.4	21161.85
900.0041	1624.54	21894.15	20986.2
900.1462	1626.2942	21735.6	20825.6
900.2883	1628.0477	21367.5	20454
900.4304	1629.8005	21107.7	20195.95
900.5725	1631.5525	20787.1	19878
900.7145	1633.3037	20506.4	19597
900.8566	1635.0542	20299.2	19391.7
900.9986	1636.804	20116.9	19207.95
901.1406	1638.553	20048.7	19094.75
901.2826	1640.3013	19884.5	18976.75
901.4245	1642.0488	19778.5	18869.6
901.5665	1643.7955	19716.85	18809.75
901.7085	1645.5416	19673.85	18765.95
901.8504	1647.2868	19694.7	18786.7
901.9923	1649.0313	19709.85	18799.7
902.1342	1650.7751	19825.15	18912.25
902.2761	1652.5181	19931.5	19023.8
902.4179	1654.2604	20102.3	19198.35
902.5598	1656.0019	20362.35	19457.65
902.7016	1657.7427	20677.7	19770.8
902.8434	1659.4828	21033.6	20123.4
902.9852	1661.222	21200.25	20287.3
903.127	1662.9606	21237	20327.75
903.2687	1664.6984	21094.9	20185.35
903.4105	1666.4354	20736.35	19825.3
903.5522	1668.1717	20263.15	19350.35
903.6939	1669.9072	19711.3	18798.25
903.8356	1671.642	19322.85	18409
903.9773	1673.3761	18997	18086
904.119	1675.1094	18704.35	17795.4
904.2606	1676.8419	18486.15	17575.65
904.4022	1678.5737	18285	17376
904.5439	1680.3048	18161.15	17250
904.6855	1682.0351	18030	17117.8
904.827	1683.7646	17890.15	16976.85
904.9686	1685.4934	17782.5	16873.75
905.1101	1687.2215	17684.35	16776.6
905.2517	1688.9488	17570.9	16663.25
905.3932	1690.6754	17499.65	16592.5
905.5347	1692.4012	17481.85	16573.6
905.6761	1694.1263	17394.65	16485.2
905.8176	1695.8506	17311.1	16402.2
905.9591	1697.5742	17240.7	16334.8
906.1005	1699.297	17181.3	16277.75
906.2419	1701.0191	17095.2	16194.15
906.3833	1702.7404	17004.15	16100.85
906.5246	1704.461	16909.95	16003.6
906.666	1706.1808	16813.3	15905.5
906.8073	1707.8999	16775.6	15870.85
906.9487	1709.6182	16685.05	15784.95
907.09	1711.3358	16641.2	15742.95
907.2313	1713.0527	16595.6	15698.3
907.3725	1714.7688	16561.9	15654.35
907.5138	1716.4841	16466.05	15561.1
907.655	1718.1987	16443.2	15533.65
907.7962	1719.9126	16389.9	15487.3
907.9374	1721.6257	16318.5	15418.55
908.0786	1723.338	16287.4	15387.8
908.2198	1725.0496	16147.9	15245.55
908.3609	1726.7605	16115.05	15211.05
908.502	1728.4706	16053.9	15153.5
908.6431	1730.18	16026.7	15126.25
908.7842	1731.8886	15969.6	15073.65
908.9253	1733.5964	15923.15	15002
909.0664	1735.3036	15882.3	14978.95
909.2074	1737.0099	15813.1	14914.6
909.3484	1738.7156	15810.15	14912.8
909.4894	1740.4204	15701.05	14796.7
909.6304	1742.1246	15670.25	14768.6
909.7714	1743.8279	15620.85	14723.9
909.9123	1745.5306	15583.45	14685.4
910.0532	1747.2325	15531.05	14631.7
910.1941	1748.9336	15479.75	14579.35
910.335	1750.634	15443.55	14540.15
910.4759	1752.3336	15392.35	14495.05
910.6168	1754.0325	15379.6	14482.3
910.7576	1755.7307	15351.25	14454.35
910.8984	1757.4281	15298	14396.95
911.0392	1759.1247	15283.95	14375
911.18	1760.8206	15228.6	14321.6
911.3208	1762.5158	15210.65	14302.9
911.4615	1764.2102	15146.4	14245.2
911.6022	1765.9039	15093.55	14196.1
911.7429	1767.5968	15049.65	14151.55
911.8836	1769.289	15008.4	14109.75
912.0243	1770.9804	14976.05	14076.45
912.1649	1772.6711	14969.6	14067.15
912.3056	1774.361	14900.35	13998.6
912.4462	1776.0502	14877.1	13975
912.5868	1777.7386	14844	13939.35
912.7274	1779.4263	14779.35	13880.4
912.8679	1781.1132	14774.35	13878.3
913.0084	1782.7994	14709.05	13811
913.149	1784.4849	14697.85	13802
913.2895	1786.1696	14637.05	13719.8
913.4299	1787.8535	14580.7	13686.35
913.5704	1789.5367	14540.55	13646.05
913.7108	1791.2192	14512.1	13615.45
913.8513	1792.9009	14468.8	13542.55
913.9917	1794.5818	14447.85	13546.45
914.132	1796.2621	14373.6	13476.95
914.2724	1797.9415	14360.55	13459.95
914.4128	1799.6202	14332.75	13433.25
914.5531	1801.2982	14309.2	13410.55
914.6934	1802.9755	14264.75	13364.65
914.8337	1804.6519	14234.8	13335.5
914.9739	1806.3277	14152.2	13253.75
915.1142	1808.0027	14123	13226.95
915.2544	1809.6769	14103.35	13209.4
915.3946	1811.3504	14067.2	13170.6
915.5348	1813.0231	14024.35	13129.35
915.675	1814.6951	14002.9	13107.05
915.8151	1816.3664	14016.05	13116.75
915.9553	1818.0369	13939.6	13041.9
916.0954	1819.7067	13887.45	12991.25
916.2355	1821.3757	13884.8	12982.9
916.3755	1823.044	13841.35	12940.8
916.5156	1824.7115	13798.5	12898
916.6556	1826.3783	13741.15	12842.7
916.7956	1828.0443	13697.55	12801.2
916.9356	1829.7096	13694.25	12794.4
917.0756	1831.3741	13629.75	12729.25
917.2155	1833.0379	13600.15	12704.3
917.3555	1834.701	13598.6	12702.5
917.4954	1836.3633	13558.3	12664.4
917.6353	1838.0248	13520.35	12627.25
917.7751	1839.6856	13489.9	12593.85
917.915	1841.3457	13492.65	12595.05
918.0548	1843.005	13423.65	12525.65
918.1946	1844.6636	13430.2	12534.05
918.3344	1846.3214	13391.5	12494.7
918.4742	1847.9785	13378.2	12483.1
918.6139	1849.6349	13336.9	12438.55
918.7537	1851.2904	13325.05	12415.05
918.8934	1852.9453	13269.95	12366.95
919.0331	1854.5994	13225	12324
919.1727	1856.2528	13241.7	12338.6
919.3124	1857.9054	13189.6	12289.95
919.452	1859.5572	13201	12303.95
919.5916	1861.2083	13154.1	12256.75
919.7312	1862.8587	13118.3	12220.65
919.8708	1864.5084	13069.45	12169.85
920.0103	1866.1572	13032.5	12131.75
920.1498	1867.8054	12975.6	12078
920.2893	1869.4528	12953.2	12051.5
920.4288	1871.0994	12915.4	12015.3
920.5683	1872.7453	12894.35	11995.25
920.7077	1874.3905	12903.6	11986.6
920.8471	1876.0349	12817.9	11920.2
920.9865	1877.6786	12809.2	11909
921.1259	1879.3215	12812.85	11914.75
921.2653	1880.9637	12765.9	11867.95
921.4046	1882.6051	12752.45	11855.95
921.5439	1884.2458	12702.95	11805.3
921.6832	1885.8858	12652	11752.7
921.8225	1887.525	12633.9	11734.3
921.9617	1889.1634	12538.1	11637.6
922.101	1890.8011	12502.05	11602.45
922.2402	1892.4381	12514.85	11617.3
922.3794	1894.0743	12494.55	11597.7
922.5185	1895.7098	12423.3	11525.55
922.6577	1897.3446	12445.3	11546.6
922.7968	1898.9786	12388.75	11486.05
922.9359	1900.6118	12363.3	11466.8
923.075	1902.2443	12298.85	11398.9
923.214	1903.8761	12282.35	11384.35
923.3531	1905.5071	12193.75	11295.6
923.4921	1907.1374	12168.4	11272.05
923.6311	1908.7669	12155	11261.05
923.77	1910.3957	12158.15	11264.95
923.909	1912.0237	12052.45	11157.65
924.0479	1913.651	12019.55	11122.3
924.1868	1915.2776	11999.75	11103.9
924.3257	1916.9034	11951.65	11056.75
924.4646	1918.5285	11889.15	10994.8
924.6034	1920.1528	11846.45	10949.55
924.7422	1921.7764	11843.25	10946.55
924.881	1923.3992	11815.25	10919.05
925.0198	1925.0213	11746.65	10851.4
925.1586	1926.6427	11687.3	10791.4
925.2973	1928.2633	11724.35	10758.2
925.436	1929.8832	11649.3	10750.7
925.5747	1931.5023	11566	10670
925.7134	1933.1207	11555	10654.6
925.852	1934.7383	11513.15	10614.85
925.9906	1936.3552	11494.8	10600.15
926.1292	1937.9714	11461.2	10566.35
926.2678	1939.5868	11412	10516.4
926.4064	1941.2015	11334.85	10437.3
926.5449	1942.8154	11299.65	10401.05
926.6834	1944.4286	11266.55	10369.6
926.8219	1946.041	11231.3	10312.2
926.9604	1947.6528	11167.45	10264.85
927.0988	1949.2637	11152.65	10259
927.2372	1950.8739	11113.75	10218
927.3756	1952.4834	11077.8	10180.6
927.514	1954.0921	11060	10165.6
927.6523	1955.7001	11006.75	10109.85
927.7907	1957.3074	10988.6	10095.2
927.929	1958.9139	10920.1	10029.45
928.0673	1960.5197	10934.5	10039.35
928.2055	1962.1247	10858.65	9964.85
928.3438	1963.729	10795.8	9902.9
928.482	1965.3325	10778.05	9861.35
928.6202	1966.9353	10749.9	9859
928.7584	1968.5374	10706.65	9813.05
928.8965	1970.1387	10673	9779.1
929.0346	1971.7393	10629.95	9735.95
929.1727	1973.3392	10581.65	9689.35
929.3108	1974.9383	10549.35	9657.15
929.4489	1976.5366	10499	9606.6
929.5869	1978.1342	10485.9	9594.8
929.7249	1979.7311	10480.25	9589.3
929.8629	1981.3273	10458.75	9568.2
930.0009	1982.9227	10403.75	9511
930.1388	1984.5173	10359.15	9469.85
930.2767	1986.1112	10316.2	9426.8
930.4146	1987.7044	10295.55	9405.95
930.5525	1989.2968	10257.7	9367.7
930.6904	1990.8885	10252.15	9358.95
930.8282	1992.4795	10212.15	9321.2
930.966	1994.0697	10167.3	9278.1
931.1038	1995.6592	10148.65	9259.1
931.2415	1997.2479	10107.95	9217.15
931.3793	1998.8359	10086.5	9196.85
931.517	2000.4232	10074.7	9187.95
931.6547	2002.0097	10027.05	9141.6
931.7923	2003.5955	9981.9	9094.3
931.93	2005.1805	9983.1	9093.6
932.0676	2006.7648	9943.1	9056.3
932.2052	2008.3484	9893.6	9005.35
932.3427	2009.9312	9929.2	9042
932.4803	2011.5133	9864.6	8979.6
932.6178	2013.0946	9829.25	8940
932.7553	2014.6752	9795.15	8909.1
932.8928	2016.2551	9783.75	8894.4
933.0302	2017.8342	9746.5	8856.75
933.1676	2019.4126	9713.95	8829.9
933.305	2020.9902	9668.55	8782.8
933.4424	2022.5672	9679.9	8793.6
933.5798	2024.1433	9628.3	8736.1
933.7171	2025.7188	9601.85	8715.25
933.8544	2027.2935	9579.9	8692.15
933.9917	2028.8674	9533.75	8649.35
934.129	2030.4406	9499.6	8614.65
934.2662	2032.0131	9464	8581.2
934.4034	2033.5849	9440.35	8545.65
934.5406	2035.1559	9406.65	8522.3
934.6778	2036.7261	9393.45	8507
934.8149	2038.2957	9361	8473.4
934.952	2039.8645	9342.45	8453.75
935.0891	2041.4325	9368.2	8475.4
935.2262	2042.9998	9304.6	8417.55
935.3632	2044.5664	9291.65	8401.8
935.5002	2046.1323	9242.85	8356.55
935.6372	2047.6974	9201.85	8316.95
935.7742	2049.2617	9196.9	8311.7
935.9111	2050.8254	9180.15	8288.65
936.048	2052.3883	9182.25	8293.45
936.1849	2053.9504	9173.35	8282.3
936.3218	2055.5118	9104.05	8215.2
936.4586	2057.0725	9052.6	8160.5
936.5955	2058.6325	9043.5	8156.05
936.7323	2060.1917	9003.55	8117.65
936.869	2061.7502	9009.7	8119.75
937.0058	2063.3079	8957.7	8073.3
937.1425	2064.8649	8947.25	8060.35
937.2792	2066.4212	8914.55	8026.55
937.4159	2067.9767	8889.6	8003.8
937.5525	2069.5315	8874.85	7988.15
937.6891	2071.0856	8834.2	7947.5
937.8257	2072.6389	8785.55	7897.8
937.9623	2074.1915	8749.25	7866.1
938.0989	2075.7433	8696.25	7807.85
938.2354	2077.2945	8696.05	7811.4
938.3719	2078.8448	8663.55	7774.9
938.5084	2080.3945	8640.6	7752.75
938.6448	2081.9434	8623.4	7734.1
938.7812	2083.4916	8603	7712.95
938.9176	2085.039	8588.65	7692.9
939.054	2086.5857	8550.45	7656.3
939.1903	2088.1317	8526.1	7634.65
939.3267	2089.677	8521.55	7627.3
939.463	2091.2215	8494.15	7601.6
939.5992	2092.7652	8464.4	7568.85
939.7355	2094.3083	8432.85	7537.8
939.8717	2095.8506	8428.4	7535.4
940.0079	2097.3921	8439.6	7550.9
940.1441	2098.933	8400.25	7510.1
940.2802	2100.4731	8358.45	7468.7
940.4163	2102.0124	8362.25	7464.85
940.5524	2103.5511	8325.65	7435.9
940.6885	2105.089	8324.75	7436.7
940.8245	2106.6261	8320.1	7429.8
940.9606	2108.1626	8280.55	7389.75
941.0965	2109.6983	8263.7	7346.4
941.2325	2111.2332	8247.8	7358.3
941.3684	2112.7675	8198.7	7307.65
941.5044	2114.301	8187.7	7296
941.6403	2115.8337	8161.05	7269.95
941.7761	2117.3657	8145.7	7253.6
941.912	2118.897	8142.4	7250.15
942.0478	2120.4276	8112.7	7216.85
942.1835	2121.9575	8051.15	7157
942.3193	2123.4866	8079.75	7184.9
942.455	2125.0149	8033	7139.4
942.5907	2126.5426	7965.55	7078.4
942.7264	2128.0695	7973.55	7083.45
942.8621	2129.5956	7960.55	7076.55
942.9977	2131.1211	7954.6	7062.95
943.1333	2132.6458	7928.9	7040.1
943.2689	2134.1698	7897.6	7006.4
943.4044	2135.693	7902.15	7004.85
943.54	2137.2155	7877.85	6981.05
943.6755	2138.7373	7830.45	6939.15
943.8109	2140.2584	7815.6	6927.05
943.9464	2141.7787	7791.2	6900.1
944.0818	2143.2983	7752.2	6865.55
944.2172	2144.8171	7701.85	6817.65
944.3526	2146.3353	7717.75	6828.85
944.4879	2147.8527	7678.9	6791.15
944.6232	2149.3693	7672.85	6780.05
944.7585	2150.8853	7659.75	6767.3
944.8938	2152.4005	7607.65	6714.3
945.029	2153.9149	7607.25	6714.5
945.1642	2155.4287	7671.25	6672.05
945.2994	2156.9417	7577.15	6684.15
945.4346	2158.454	7550.4	6658.4
945.5697	2159.9655	7535.1	6648.75
945.7048	2161.4764	7519.55	6632.1
945.8399	2162.9865	7479.25	6589.85
945.9749	2164.4958	7475.55	6587.15
946.1099	2166.0045	7441.7	6550.9
946.2449	2167.5124	7439.1	6548.7
946.3799	2169.0195	7408.3	6518.8
946.5148	2170.526	7390.55	6497.85
946.6498	2172.0317	7377.8	6487.85
946.7846	2173.5367	7358.8	6468.7
946.9195	2175.0409	7346.25	6458.05
947.0543	2176.5445	7357.65	6468.6
947.1891	2178.0473	7305.65	6414.05
947.3239	2179.5494	7263.5	6366.7
947.4587	2181.0507	7239.7	6346.5
947.5934	2182.5513	7220.15	6329.15
947.7281	2184.0512	7227.75	6336.15
947.8628	2185.5504	7211	6320.35
947.9974	2187.0488	7157.9	6270.35
948.132	2188.5465	7130.55	6241.4
948.2666	2190.0435	7106.05	6215.4
948.4012	2191.5397	7100.45	6210.1
948.5357	2193.0353	7069.25	6176.75
948.6702	2194.5301	7026.1	6132.5
948.8047	2196.0241	7020.75	6127.45
948.9392	2197.5175	7010.55	6115.65
949.0736	2199.0101	6968.45	6072.2
949.208	2200.502	6938.6	6046.25
949.3424	2201.9931	6917.2	6026.6
949.4767	2203.4835	6885	5995.5
949.611	2204.9733	6873.15	5980.5
949.7453	2206.4622	6863.4	5977.25
949.8796	2207.9505	6837.75	5950.2
950.0138	2209.438	6801.35	5915.25
950.148	2210.9248	6785.85	5896.2
950.2822	2212.4109	6780.8	5891.9
950.4164	2213.8962	6756.25	5861.05
950.5505	2215.3809	6760.25	5862.8
950.6846	2216.8648	6715.95	5820.6
950.8186	2218.3479	6726.6	5827.55
950.9527	2219.8304	6678.7	5782.6
951.0867	2221.3121	6659.45	5764.75
951.2207	2222.7931	6646.75	5752.95
951.3546	2224.2733	6599.25	5706.35
951.4886	2225.7529	6605.2	5712.55
951.6225	2227.2317	6568	5675
951.7563	2228.7098	6540.85	5652.95
951.8902	2230.1872	6524.25	5634.65
952.024	2231.6638	6504	5616
952.1578	2233.1397	6486.2	5593.25
952.2916	2234.6149	6488.15	5599
952.4253	2236.0894	6441.3	5551
952.559	2237.5632	6449.95	5556.9
952.6927	2239.0362	6400.75	5509.85
952.8263	2240.5085	6398.65	5508.55
952.9599	2241.9801	6363.5	5470.65
953.0935	2243.4509	6382.85	5489.75
953.2271	2244.921	6353.3	5458.45
953.3606	2246.3904	6303.35	5407.85
953.4941	2247.8591	6303	5408.65
953.6276	2249.3271	6279.4	5385.2
953.7611	2250.7943	6251.3	5357.6
953.8945	2252.2608	6244.1	5351
954.0279	2253.7266	6219.35	5326.35
954.1612	2255.1917	6205.2	5314.3
954.2946	2256.656	6179.5	5286.35
954.4279	2258.1197	6158.7	5269.3
954.5612	2259.5826	6139.05	5246.3
954.6944	2261.0447	6132.55	5240.9
954.8276	2262.5062	6114.5	5219.85
954.9608	2263.9669	6102.4	5207
955.094	2265.4269	6087.6	5196.4
955.2271	2266.8862	6067	5174.5
955.3602	2268.3448	6066.25	5174.7
955.4933	2269.8026	6047.95	5156.85
955.6264	2271.2598	6032.5	5143.85
955.7594	2272.7162	5998.9	5108.9
955.8924	2274.1719	6004.65	5111.2
956.0253	2275.6268	5979.1	5085.45
956.1583	2277.0811	5962	5065.35
956.2912	2278.5346	5954.7	5062.3
956.4241	2279.9874	5921.2	5030.05
956.5569	2281.4395	5928.9	5039.8
956.6897	2282.8908	5907.45	5012.9
956.8225	2284.3414	5903.1	5010.25
956.9553	2285.7914	5876.55	4987.05
957.088	2287.2406	5841.6	4947.65
957.2207	2288.689	5838	4945.65
957.3534	2290.1368	5828	4931.35
957.486	2291.5838	5806.75	4908.6
957.6186	2293.0302	5796.6	4900.25
957.7512	2294.4758	5779.35	4884
957.8838	2295.9206	5751.05	4856.15
958.0163	2297.3648	5725.45	4833.25
958.1488	2298.8082	5718.4	4825.7
958.2813	2300.251	5715.95	4822.55
958.4137	2301.693	5693.2	4798.4
958.5461	2303.1343	5681.9	4787.65
958.6785	2304.5748	5667.4	4776.85
958.8108	2306.0147	5638.95	4747.1
958.9432	2307.4538	5637.4	4746.35
959.0754	2308.8922	5617.85	4729.15
959.2077	2310.3299	5581.8	4692.35
959.3399	2311.7669	5575.65	4686.35
959.4721	2313.2031	5564	4674.2
959.6043	2314.6387	5555.65	4661.7
959.7365	2316.0735	5513.6	4624
959.8686	2317.5076	5513.1	4617.25
960.0006	2318.941	5515.55	4622.9
960.1327	2320.3737	5492.35	4597.7
960.2647	2321.8056	5481.45	4586.25
960.3967	2323.2369	5443.3	4551.8
960.5287	2324.6674	5435.4	4542.05
960.6606	2326.0972	5415.65	4523.3
960.7925	2327.5263	5413.85	4520.9
960.9244	2328.9547	5387.1	4492.55
961.0562	2330.3823	5364.15	4469.35
961.1881	2331.8092	5379.2	4483.45
961.3198	2333.2355	5358.35	4463.2
961.4516	2334.661	5350.7	4454.4
961.5833	2336.0858	5323.45	4427.3
961.715	2337.5098	5326.45	4432.95
961.8467	2338.9332	5288.45	4396.05
961.9783	2340.3558	5286.3	4390.5
962.1099	2341.7778	5274.7	4384.15
962.2415	2343.199	5241.45	4349.6
962.373	2344.6195	5226.8	4337.05
962.5045	2346.0393	5229.25	4338.9
962.636	2347.4583	5208	4315.85
962.7675	2348.8767	5187.85	4293.25
962.8989	2350.2943	5175.3	4280.95
963.0303	2351.7113	5192.15	4295.35
963.1617	2353.1275	5164.45	4269.35
963.293	2354.543	5142.65	4240.6
963.4243	2355.9578	5138.8	4245.65
963.5556	2357.3718	5108.55	4217.4
963.6868	2358.7852	5085	4192.65
963.818	2360.1978	5064.35	4171.85
963.9492	2361.6098	5067.05	4178
964.0803	2363.021	5049.45	4152.4
964.2114	2364.4315	5018.15	4126.25
964.3425	2365.8413	5022.95	4129.85
964.4736	2367.2504	4998.1	4109
964.6046	2368.6587	4964.95	4076.2
964.7356	2370.0664	4959.95	4069.45
964.8666	2371.4733	4930.9	4039.55
964.9975	2372.8795	4931.55	4040.6
965.1284	2374.285	4905.8	4012.4
965.2593	2375.6899	4891.55	4000.2
965.3901	2377.0939	4861.45	3969.6
965.5209	2378.4973	4844.2	3954.4
965.6517	2379.9	4835.65	3944.9
965.7825	2381.3019	4823.45	3934.3
965.9132	2382.7032	4818.6	3929.75
966.0439	2384.1037	4800.4	3912.5
966.1745	2385.5035	4764.8	3878.25
966.3051	2386.9027	4761.3	3874.2
966.4357	2388.3011	4748.55	3856.8
966.5663	2389.6987	4749.05	3860.85
966.6968	2391.0957	4713.35	3823.15
966.8273	2392.492	4707.1	3817.4
966.9578	2393.8876	4671.85	3783.55
967.0882	2395.2824	4666.45	3777.75
967.2186	2396.6765	4639.6	3750.35
967.349	2398.07	4632.6	3742.75
967.4793	2399.4627	4648.75	3756.45
967.6097	2400.8547	4623.25	3731.9
967.7399	2402.246	4615.4	3719.4
967.8702	2403.6366	4586.45	3696.05
968.0004	2405.0265	4564.2	3673.7
968.1306	2406.4156	4551.1	3655.35
968.2607	2407.8041	4532.75	3641.7
968.3909	2409.1918	4529.3	3635.9
968.521	2410.5789	4511.55	3620.8
968.651	2411.9652	4514.95	3622.05
968.781	2413.3508	4493.3	3601.5
968.911	2414.7358	4470.75	3577.65
969.041	2416.12	4460.9	3572.15
969.1709	2417.5035	4445.15	3554.6
969.3008	2418.8863	4430.05	3538.55
969.4307	2420.2684	4413.35	3522.3
969.5606	2421.6497	4403.65	3510
969.6904	2423.0304	4378.5	3487.55
969.8201	2424.4104	4367.95	3478.35
969.9499	2425.7896	4363.8	3473.15
970.0796	2427.1682	4345.05	3455.25
970.2093	2428.546	4333.1	3440.5
970.3389	2429.9232	4334.1	3443.25
970.4685	2431.2996	4327.4	3436.25
970.5981	2432.6753	4321.65	3431.75
970.7277	2434.0503	4312.2	3421.05
970.8572	2435.4246	4280.7	3389.45
970.9867	2436.7982	4265.85	3371.15
971.1161	2438.1711	4263.55	3371.45
971.2456	2439.5433	4264.7	3371.7
971.375	2440.9148	4230.05	3332.45
971.5043	2442.2856	4212.25	3324.15
971.6336	2443.6557	4190.1	3298.85
971.7629	2445.025	4185.65	3294.7
971.8922	2446.3937	4201.85	3308.95
972.0214	2447.7617	4169.35	3275.95
972.1506	2449.1289	4156.4	3266
972.2798	2450.4955	4168.05	3273.45
972.4089	2451.8613	4143.85	3255.75
972.538	2453.2265	4137.55	3246.2
972.6671	2454.5909	4115.15	3224.2
972.7961	2455.9546	4117.3	3227.45
972.9251	2457.3177	4103.65	3213.5
973.0541	2458.68	4095.85	3201.3
973.1831	2460.0416	4090.05	3200.4
973.312	2461.4025	4080.8	3188.7
973.4408	2462.7627	4082.05	3180.95
973.5697	2464.1222	4062.65	3173.7
973.6985	2465.4811	4045.65	3155.25
973.8273	2466.8392	4039.5	3149.65
973.956	2468.1966	4017.4	3125.45
974.0847	2469.5533	4032.85	3138.05
974.2134	2470.9093	4020.15	3128.45
974.3421	2472.2645	3999.25	3107.65
974.4707	2473.6191	4007.95	3119.1
974.5993	2474.973	3981.35	3089.9
974.7278	2476.3262	3982.85	3088.15
974.8563	2477.6787	3952.1	3063.15
974.9848	2479.0305	3941	3049.05
975.1132	2480.3816	3940.8	3049.65
975.2417	2481.7319	3916.95	3028.55
975.37	2483.0816	3900.4	3009.15
975.4984	2484.4306	3882.65	2991.85
975.6267	2485.7789	3880.5	2992.95
975.755	2487.1264	3862.95	2971.05
975.8833	2488.4733	3858.05	2968
976.0115	2489.8195	3867.8	2961.85
976.1397	2491.165	3840.1	2945.9
976.2678	2492.5097	3821.55	2930.3
976.3959	2493.8538	3800.35	2909.35
976.524	2495.1972	3790.6	2901.1
976.6521	2496.5398	3755.55	2864.35
976.7801	2497.8818	3781.75	2889.9
976.9081	2499.2231	3758.05	2867.1
977.036	2500.5637	3754.05	2861.05
977.164	2501.9035	3735.75	2842.7
977.2918	2503.2427	3731.8	2836.5
977.4197	2504.5812	3730	2838.9
977.5475	2505.919	3724.45	2830.65
977.6753	2507.256	3723.05	2832
977.8031	2508.5924	3683.5	2793.5
977.9308	2509.9281	3672	2775.35
978.0585	2511.2631	3663.8	2772.25
978.1861	2512.5974	3663.95	2775.65
978.3137	2513.9309	3658.7	2769.55
978.4413	2515.2638	3659.95	2739.75
978.5689	2516.596	3643.25	2750.4
978.6964	2517.9275	3626.65	2733.65
978.8239	2519.2583	3616.1	2723.1
978.9513	2520.5884	3606.5	2712.9
979.0788	2521.9178	3603.4	2712.4
979.2062	2523.2465	3577.7	2686.35
979.3335	2524.5745	3567.3	2676.6
979.4608	2525.9018	3563.15	2671.8
979.5881	2527.2284	3559.55	2669.2
979.7154	2528.5543	3535.95	2646
979.8426	2529.8796	3535	2645.1
979.9698	2531.2041	3511.35	2617.95
980.0969	2532.5279	3504.1	2616.75
980.224	2533.851	3503.7	2611.05
980.3511	2535.1735	3499.8	2609.35
980.4781	2536.4952	3499.6	2609.45
980.6052	2537.8163	3502.45	2610.45
980.7321	2539.1366	3481.05	2590.3
980.8591	2540.4562	3477.1	2585.2
980.986	2541.7752	3475.9	2583.85
981.1129	2543.0935	3459.2	2567.55
981.2397	2544.411	3451.5	2558.45
981.3665	2545.7279	3443.55	2552.75
981.4933	2547.0441	3452.6	2561.5
981.62	2548.3596	3444.75	2549.85
981.7467	2549.6744	3433.4	2540.6
981.8734	2550.9885	3425.6	2530.65
982.0001	2552.3019	3410	2520.75
982.1267	2553.6146	3412.7	2519.75
982.2532	2554.9266	3403.65	2513.2
982.3798	2556.2379	3392.8	2501.35
982.5063	2557.5485	3383.45	2492.8
982.6327	2558.8585	3360.6	2461.25
982.7592	2560.1677	3372.25	2476.9
982.8856	2561.4762	3362.25	2469.45
983.0119	2562.7841	3352.5	2458.6
983.1383	2564.0913	3346.75	2457.7
983.2646	2565.3977	3331.9	2441.05
983.3908	2566.7035	3336.95	2444.5
983.517	2568.0086	3327.9	2432.3
983.6432	2569.313	3330.6	2437.7
983.7694	2570.6167	3321.25	2424.65
983.8955	2571.9197	3323.35	2431.65
984.0216	2573.222	3319.65	2424.3
984.1476	2574.5236	3296.95	2403
984.2737	2575.8246	3296.3	2402.85
984.3996	2577.1248	3292.45	2399.7
984.5256	2578.4244	3278.8	2387.4
984.6515	2579.7232	3276.8	2386.2
984.7774	2581.0214	3302.25	2378.45
984.9032	2582.3189	3278.7	2387.6
985.029	2583.6157	3276.95	2378.9
985.1548	2584.9118	3257.25	2364.65
985.2806	2586.2072	3260.65	2368.4
985.4063	2587.5019	3249.5	2356.6
985.5319	2588.7959	3247.3	2354.35
985.6576	2590.0893	3242.3	2349.65
985.7832	2591.3819	3231.85	2338.45
985.9087	2592.6739	3213.95	2321.9
986.0343	2593.9652	3211.25	2318.05
986.1597	2595.2557	3215.35	2324.35
986.2852	2596.5456	3217.75	2321.85
986.4106	2597.8348	3206.05	2313.7
986.536	2599.1234	3191.95	2301.4
986.6614	2600.4112	3182.9	2290.5
986.7867	2601.6983	3169.65	2273
986.912	2602.9848	3171.55	2280.7
987.0372	2604.2705	3159.15	2259.8
987.1624	2605.5556	3159	2266.5
987.2876	2606.84	3148	2257.55
987.4128	2608.1237	3141	2245.4
987.5379	2609.4067	3125.1	2234.85
987.6629	2610.689	3150.15	2253.2
987.788	2611.9707	3109.2	2214.35
987.913	2613.2516	3120.85	2223.6
988.0379	2614.5319	3093.2	2202.25
988.1629	2615.8115	3079.1	2187.3
988.2878	2617.0903	3087.6	2192.45
988.4126	2618.3685	3064.9	2172.65
988.5375	2619.6461	3064.15	2172
988.6622	2620.9229	3059.8	2165.85
988.787	2622.199	3053	2161.85
988.9117	2623.4745	3057.55	2167.5
989.0364	2624.7493	3039.35	2147.95
989.161	2626.0234	3027.65	2137.7
989.2857	2627.2968	3033.15	2141.6
989.4102	2628.5695	3024.9	2134.6
989.5348	2629.8415	2998.1	2105.55
989.6593	2631.1128	2995.65	2100.45
989.7837	2632.3835	2995.5	2104.2
989.9082	2633.6535	2974.9	2083.05
990.0326	2634.9228	2964.55	2076.05
990.1569	2636.1914	2963.45	2071.65
990.2812	2637.4593	2962.1	2064.5
990.4055	2638.7265	2961.75	2068.1
990.5298	2639.9931	2938.85	2047.6
990.654	2641.259	2935.1	2040.95
990.7782	2642.5242	2932.4	2041.1
990.9023	2643.7887	2932.9	2040.6
991.0264	2645.0525	2920.85	2029.95
991.1505	2646.3156	2909.7	2009.85
991.2745	2647.5781	2907.75	2016.5
991.3985	2648.8398	2891.9	1999.95
991.5225	2650.1009	2892.75	1975.85
991.6464	2651.3613	2882	1990.55
991.7703	2652.6211	2880.65	1988.45
991.8942	2653.8801	2858.4	1968.25
992.018	2655.1385	2868.35	1975.3
992.1418	2656.3961	2850.65	1958.55
992.2655	2657.6531	2853.1	1961.45
992.3892	2658.9094	2843.25	1951.3
992.5129	2660.1651	2840	1950.4
992.6366	2661.42	2839.55	1947.85
992.7602	2662.6743	2836.3	1943.05
992.8837	2663.9279	2838.55	1946.05
993.0073	2665.1808	2825.1	1931.8
993.1307	2666.433	2835.95	1943.85
993.2542	2667.6846	2836.75	1945.35
993.3776	2668.9354	2820.3	1926.85
993.501	2670.1856	2816.2	1924.75
993.6244	2671.4351	2811.85	1921.15
993.7477	2672.6839	2807.35	1914.6
993.8709	2673.9321	2797.4	1905.75
993.9942	2675.1795	2807.9	1916.85
994.1174	2676.4263	2800.9	1908.95
994.2405	2677.6724	2798.7	1906.4
994.3637	2678.9179	2796.6	1903.7
994.4868	2680.1626	2779.1	1889.4
994.6098	2681.4067	2779.45	1887.5
994.7328	2682.6501	2777.35	1887.25
994.8558	2683.8928	2772.25	1882.55
994.9788	2685.1348	2759.75	1869.8
995.1017	2686.3761	2763	1873.45
995.2245	2687.6168	2745.65	1854.75
995.3474	2688.8568	2731.55	1839.75
995.4702	2690.0961	2727.5	1837.05
995.5929	2691.3348	2731.05	1839.9
995.7156	2692.5727	2714.2	1823.65
995.8383	2693.81	2708.8	1814.9
995.961	2695.0466	2709.45	1818.85
996.0836	2696.2826	2691.55	1799.85
996.2062	2697.5178	2699.95	1807.55
996.3287	2698.7524	2677.8	1788.8
996.4512	2699.9863	2686.85	1794.3
996.5737	2701.2195	2681.05	1790.5
996.6961	2702.452	2679.65	1788.7
996.8185	2703.6839	2680.2	1789.55
996.9408	2704.9151	2673.75	1784.15
997.0631	2706.1456	2664.95	1773.85
997.1854	2707.3755	2680.5	1787.8
997.3077	2708.6046	2679.45	1786.1
997.4299	2709.8331	2674.05	1783.15
997.552	2711.0609	2687.85	1797.6
997.6742	2712.2881	2680.7	1790.15
997.7963	2713.5145	2685.05	1790.6
997.9183	2714.7403	2701.55	1813.1
998.0403	2715.9654	2692.65	1802.15
998.1623	2717.1899	2709.05	1805.1
998.2842	2718.4136	2712.75	1822.7
998.4062	2719.6367	2714.15	1823.8
998.528	2720.8591	2726.65	1830.15
998.6498	2722.0809	2716.85	1825.25
998.7716	2723.3019	2731.8	1838.25
998.8934	2724.5223	2726.3	1833.95
999.0151	2725.7421	2721.95	1830.15
999.1368	2726.9611	2723.65	1831.7
999.2584	2728.1795	2721.8	1825
999.38	2729.3972	2706.2	1817
999.5016	2730.6142	2691.55	1793.15
999.6231	2731.8306	2657.65	1767.15
999.7446	2733.0462	2639.55	1747.15
999.8661	2734.2612	2628.35	1732.65
999.9875	2735.4756	2614.7	1723.1
1000.1089	2736.6892	2590.3	1699.7
1000.2302	2737.9022	2560.2	1671.95
1000.3515	2739.1145	2541	1650.3
1000.4728	2740.3262	2538.05	1638.4
1000.594	2741.5372	2519.9	1629.45
1000.7152	2742.7475	2499.9	1608.95
1000.8363	2743.9571	2477.8	1587.35
1000.9575	2745.1661	2478.15	1583.15
1001.0785	2746.3744	2453.65	1563.7
1001.1996	2747.582	2433.85	1543.55
1001.3206	2748.7889	2431.1	1540.5
1001.4415	2749.9952	2424.05	1536.5
1001.5625	2751.2008	2420.65	1528.95
1001.6833	2752.4057	2411.05	1517.6
1001.8042	2753.61	2398.7	1509.8
1001.925	2754.8136	2397.15	1504.65
1002.0458	2756.0165	2391.35	1501.2
1002.1665	2757.2188	2390.2	1498.9
1002.2872	2758.4204	2379.5	1489.1
1002.4078	2759.6213	2372.45	1479.95
1002.5285	2760.8215	2382.35	1489.75
1002.649	2762.0211	2374.65	1484.6
1002.7696	2763.22	2362.3	1469.65
1002.8901	2764.4182	2363	1469.9
1003.0106	2765.6158	2354.9	1463.6
1003.131	2766.8127	2344	1453.15
1003.2514	2768.009	2336.55	1447.9
1003.3717	2769.2045	2331.4	1442.25
1003.492	2770.3994	2332.2	1443.35
1003.6123	2771.5936	2306.95	1416.95
1003.7325	2772.7872	2312.5	1423.35
1003.8527	2773.9801	2301.6	1412
1003.9729	2775.1723	2326.15	1420.25
1004.093	2776.3639	2294.8	1404.5
1004.2131	2777.5548	2296.25	1406
1004.3331	2778.745	2290.65	1398.9
1004.4531	2779.9346	2285.25	1397.3
1004.5731	2781.1235	2293	1403.75
1004.693	2782.3117	2288.7	1402.05
1004.8129	2783.4992	2297.4	1410
1004.9328	2784.6861	2286.3	1396.55
1005.0526	2785.8723	2285.65	1396
1005.1723	2787.0579	2295.7	1406.6
1005.2921	2788.2428	2297.85	1410.5
1005.4118	2789.427	2294.4	1407.45
1005.5314	2790.6106	2299.8	1412.35
1005.651	2791.7935	2315.85	1427.65
1005.7706	2792.9757	2311.65	1423.5
1005.8902	2794.1573	2317.6	1426.6
1006.0097	2795.3382	2341.75	1451.2
1006.1291	2796.5184	2343.45	1456.5
1006.2485	2797.698	2360.85	1471.45
1006.3679	2798.8769	2370.75	1482.7
1006.4873	2800.0551	2384.7	1495.6
1006.6066	2801.2327	2408	1519.15
1006.7258	2802.4096	2416	1526.8
1006.8451	2803.5859	2435.25	1544.85
1006.9642	2804.7615	2455.2	1566.25
1007.0834	2805.9364	2471.1	1582.35
1007.2025	2807.1106	2487.55	1601.35
1007.3216	2808.2842	2518.55	1628.95
1007.4406	2809.4572	2564.65	1676.75
1007.5596	2810.6294	2585.7	1696.95
1007.6785	2811.801	2621.5	1734.9
1007.7975	2812.972	2661.7	1774.9
1007.9163	2814.1423	2694.3	1804.75
1008.0352	2815.3119	2756.65	1868.4
1008.154	2816.4808	2795.1	1909.45
1008.2727	2817.6491	2845.15	1956.95
1008.3914	2818.8167	2895.55	2009.45
1008.5101	2819.9837	2940.95	2049.15
1008.6288	2821.15	2983	2092.85
1008.7474	2822.3157	3028.3	2140.8
1008.8659	2823.4807	3056.3	2168.8
1008.9844	2824.645	3106.95	2216.4
1009.1029	2825.8086	3133.95	2248.5
1009.2214	2826.9716	3183.15	2294.35
1009.3398	2828.134	3217.05	2331.2
1009.4581	2829.2957	3247.65	2358.8
1009.5764	2830.4567	3278.15	2391.15
1009.6947	2831.617	3293.7	2404.35
1009.813	2832.7767	3301.35	2415
1009.9312	2833.9358	3292.85	2406.3
1010.0493	2835.0941	3303.6	2415.3
1010.1675	2836.2519	3285.2	2397.95
1010.2855	2837.4089	3264.75	2376.55
1010.4036	2838.5653	3258.65	2371.35
1010.5216	2839.7211	3250.95	2365.7
1010.6396	2840.8761	3245.75	2355.8
1010.7575	2842.0306	3284.6	2397.5
1010.8754	2843.1843	3331.7	2444.35
1010.9932	2844.3374	3358.75	2470.8
1011.111	2845.4899	3431.7	2543.6
1011.2288	2846.6417	3500.35	2612.6
1011.3465	2847.7928	3581.4	2693.25
1011.4642	2848.9433	3663.2	2776.1
1011.5818	2850.0931	3735.85	2849.9
1011.6995	2851.2422	3814.5	2926.05
1011.817	2852.3907	3881.4	2995.15
1011.9345	2853.5385	3936.35	3046.85
1012.052	2854.6857	4004.15	3108.65
1012.1695	2855.8323	4050.8	3164.05
1012.2869	2856.9781	4091.55	3204.5
1012.4042	2858.1233	4135.75	3248.6
1012.5216	2859.2679	4183.15	3292.8
1012.6389	2860.4118	4238.1	3350.9
1012.7561	2861.555	4277.3	3385.95
1012.8733	2862.6976	4294.9	3407.3
1012.9905	2863.8395	4323.15	3436.35
1013.1076	2864.9808	4335.35	3448.25
1013.2247	2866.1214	4340.1	3453.9
1013.3417	2867.2614	4363.95	3475.25
1013.4587	2868.4007	4367.95	3481.45
1013.5757	2869.5393	4373.7	3484.95
1013.6926	2870.6773	4395.55	3506.35
1013.8095	2871.8146	4410.2	3520.75
1013.9263	2872.9513	4402.1	3512
1014.0431	2874.0874	4411.05	3521.9
1014.1599	2875.2227	4395.25	3508.4
1014.2766	2876.3574	4363.6	3474.7
1014.3933	2877.4915	4348	3463
1014.51	2878.6249	4307.1	3420.4
1014.6266	2879.7577	4286.1	3396.9
1014.7431	2880.8898	4263.2	3366.45
1014.8596	2882.0212	4246.3	3360.35
1014.9761	2883.152	4237.8	3350.55
1015.0925	2884.2821	4205.35	3319.8
1015.2089	2885.4116	4191.9	3305.95
1015.3253	2886.5405	4198.95	3310.25
1015.4416	2887.6686	4220.2	3329.55
1015.5579	2888.7962	4204.2	3316.95
1015.6741	2889.923	4207.2	3321.55
1015.7903	2891.0493	4222	3336.7
1015.9065	2892.1748	4224.2	3338.3
1016.0226	2893.2997	4242	3355.75
1016.1387	2894.424	4264.5	3378.35
1016.2547	2895.5476	4268.35	3383.35
1016.3707	2896.6706	4289.7	3402.3
1016.4866	2897.7929	4312.5	3424.65
1016.6025	2898.9145	4336.3	3449.95
1016.7184	2900.0355	4363.15	3476.25
1016.8342	2901.1559	4403.05	3516.65
1016.95	2902.2756	4417.3	3529.55
1017.0658	2903.3946	4453.4	3567.75
1017.1815	2904.513	4476.7	3588.15
1017.2971	2905.6308	4510.35	3623
1017.4127	2906.7479	4505.7	3619.1
1017.5283	2907.8643	4544.15	3655.4
1017.6439	2908.9801	4562.65	3675.4
1017.7594	2910.0953	4570.15	3683.4
1017.8748	2911.2098	4561.9	3673.1
1017.9902	2912.3236	4562.3	3668.45
1018.1056	2913.4368	4548.6	3659.2
1018.2209	2914.5494	4515.3	3628.85
1018.3362	2915.6613	4495.1	3603.8
1018.4515	2916.7725	4454.5	3564
1018.5667	2917.8831	4439.05	3550.9
1018.6819	2918.9931	4394.45	3504.4
1018.797	2920.1024	4349.75	3462.95
1018.9121	2921.211	4327.75	3441.1
1019.0271	2922.319	4318.85	3432.95
1019.1421	2923.4264	4300.6	3416.35
1019.2571	2924.5331	4278.75	3393.9
1019.372	2925.6391	4278.25	3393.35
1019.4869	2926.7445	4249	3363.55
1019.6017	2927.8493	4247.4	3360.1
1019.7165	2928.9534	4242.7	3357.55
1019.8313	2930.0569	4232.85	3344.2
1019.946	2931.1597	4236.25	3347.9
1020.0606	2932.2619	4217	3331
1020.1753	2933.3634	4200.25	3313.2
1020.2899	2934.4643	4200.55	3309
1020.4044	2935.5645	4174.85	3282.25
1020.5189	2936.6641	4123.65	3234.8
1020.6334	2937.763	4070.05	3186.5
1020.7478	2938.8613	4021.8	3134.95
1020.8622	2939.959	3961.5	3069.85
1020.9765	2941.056	3874.05	2988.05
1021.0908	2942.1523	3798.45	2909.55
1021.2051	2943.248	3693.95	2807.8
1021.3193	2944.3431	3603.15	2716.9
1021.4334	2945.4375	3506	2619.2
1021.5476	2946.5313	3409.85	2524.75
1021.6617	2947.6244	3300.7	2412.4
1021.7757	2948.7169	3188.9	2303.45
1021.8897	2949.8087	3083	2196
1022.0037	2950.8999	2981.95	2096.85
1022.1176	2951.9904	2912.4	2026.05
1022.2315	2953.0803	2840.25	1955.1
1022.3453	2954.1696	2765.3	1881.8
1022.4591	2955.2582	2712.4	1826.65
1022.5728	2956.3462	2662.6	1778.25
1022.6865	2957.4335	2620.35	1732.9
1022.8002	2958.5202	2580.45	1694.55
1022.9138	2959.6062	2544.4	1658.65
1023.0274	2960.6916	2524.4	1641.2
1023.141	2961.7764	2503.15	1616.9
1023.2545	2962.8605	2492.05	1606.35
1023.3679	2963.9439	2461.85	1576.5
1023.4813	2965.0267	2466.05	1577.4
1023.5947	2966.1089	2479	1570.95
1023.708	2967.1905	2444.45	1559.65
1023.8213	2968.2714	2440.25	1556.15
1023.9346	2969.3516	2434.3	1549.4
1024.0478	2970.4312	2435.85	1542.5
1024.1609	2971.5102	2436.4	1550.85
1024.274	2972.5885	2422.05	1538.15
1024.3871	2973.6662	2437.05	1545.35
1024.5002	2974.7432	2438	1552.4
1024.6132	2975.8196	2419.95	1535.8
1024.7261	2976.8954	2403.1	1518.4
1024.839	2977.9705	2388.4	1502.85
1024.9519	2979.045	2375.7	1490.95
1025.0647	2980.1188	2355.05	1469.9
1025.1775	2981.192	2335.95	1452.8
1025.2902	2982.2645	2320.95	1433.7
1025.4029	2983.3364	2299.05	1413.2
1025.5156	2984.4077	2257.35	1373.9
1025.6282	2985.4783	2234.15	1340.25
1025.7407	2986.5483	2198.8	1313.65
1025.8532	2987.6177	2156.8	1273.05
1025.9657	2988.6864	2110.15	1225.2
1026.0782	2989.7545	2084.8	1199.5
1026.1906	2990.8219	2052.1	1167.55
1026.3029	2991.8887	2019.7	1133.75
1026.4152	2992.9548	1984.2	1099.35
1026.5275	2994.0204	1951.45	1066.55
1026.6397	2995.0852	1922.6	1038.15
1026.7519	2996.1495	1899.5	1012.45
1026.864	2997.2131	1870.85	984.85
1026.9761	2998.276	1845.4	959.45
1027.0882	2999.3383	1819.75	934.35
1027.2002	3000.4	1803.2	917.8
1027.3122	3001.4611	1782.15	897.35
1027.4241	3002.5215	1780.45	896.3
1027.536	3003.5812	1764.05	879.1
1027.6478	3004.6404	1748.3	862.65
1027.7596	3005.6989	1731.45	844.05
1027.8714	3006.7567	1725.85	840.35
1027.9831	3007.8139	1725.2	820.5
1028.0947	3008.8705	1706.3	821.1
1028.2064	3009.9264	1717.75	818.2
1028.3179	3010.9818	1692.6	809
1028.4295	3012.0364	1690.65	805.2
1028.541	3013.0905	1688.45	803.35
1028.6524	3014.1439	1686.75	800.1
1028.7638	3015.1966	1683.55	799.4
1028.8752	3016.2487	1677.8	793.7
1028.9865	3017.3002	1680.25	789.1
1029.0978	3018.3511	1673.25	790.3
1029.209	3019.4013	1686.35	799.1
1029.3202	3020.4509	1675.1	792.35
1029.4314	3021.4998	1665.85	780.45
1029.5425	3022.5481	1669.5	785.6
1029.6535	3023.5958	1670.35	785.25
1029.7645	3024.6428	1678.65	793.4
1029.8755	3025.6892	1678.1	793.85
1029.9864	3026.735	1679.15	793.45
1030.0973	3027.7802	1676.4	791.05
1030.2082	3028.8247	1673.85	790.5
1030.319	3029.8685	1684.2	799.4
1030.4297	3030.9118	1679.25	794.45
1030.5404	3031.9544	1679.9	795.7
1030.6511	3032.9963	1689.15	804.5
1030.7617	3034.0376	1693.1	808.9
1030.8723	3035.0783	1699.15	812.8
1030.9829	3036.1184	1697.35	812.65
1031.0934	3037.1578	1686.75	802.65
1031.2038	3038.1966	1697.9	813.75
1031.3142	3039.2348	1689	805.2
1031.4246	3040.2723	1711.3	816.3
1031.5349	3041.3092	1695.45	813.25
1031.6452	3042.3455	1688.95	803.6
1031.7554	3043.3811	1688.05	802.85
1031.8656	3044.4161	1675.65	789.75
1031.9758	3045.4505	1670.8	787.05
1032.0859	3046.4842	1672.05	786.45
1032.1959	3047.5173	1653.65	770.1
1032.3059	3048.5498	1649.55	766.8
1032.4159	3049.5816	1638.8	755.25
1032.5258	3050.6128	1635.05	750.3
1032.6357	3051.6434	1626.9	743.15
1032.7455	3052.6734	1622.15	736.25
1032.8553	3053.7027	1609.3	727.3
1032.9651	3054.7314	1601.95	718.75
1033.0748	3055.7594	1591.05	707.25
1033.1845	3056.7868	1592.1	706.7
1033.2941	3057.8136	1579.5	696.1
1033.4037	3058.8398	1577.35	692.75
1033.5132	3059.8653	1572	688.5
1033.6227	3060.8902	1563.65	679.05
1033.7321	3061.9145	1553.3	669.45
1033.8415	3062.9381	1555.1	669.55
1033.9509	3063.9612	1558.9	658.75
1034.0602	3064.9835	1534.7	650.7
1034.1694	3066.0053	1534.2	648
1034.2787	3067.0264	1524.35	640.95
1034.3878	3068.0469	1521.85	636.8
1034.497	3069.0668	1508.45	621.65
1034.6061	3070.086	1494.3	610.55
1034.7151	3071.1046	1494.05	606.2
1034.8241	3072.1226	1477.35	592.4
1034.9331	3073.1399	1463.25	581.55
1035.042	3074.1567	1449.4	564.2
1035.1508	3075.1727	1454.1	569.95
1035.2597	3076.1882	1436.3	552.85
1035.3684	3077.203	1419.25	536.75
1035.4772	3078.2173	1416.5	532.05
1035.5859	3079.2308	1411.05	523.3
1035.6945	3080.2438	1397.9	513.5
1035.8031	3081.2561	1390.5	507.9
1035.9117	3082.2678	1384.7	501
1036.0202	3083.2789	1368.25	485.05
1036.1286	3084.2893	1368.65	484.7
1036.2371	3085.2991	1355.55	471
1036.3454	3086.3083	1357.9	468.45
1036.4538	3087.3169	1338.05	451.2
1036.562	3088.3248	1336.3	449.75
1036.6703	3089.3321	1329.6	442.5
1036.7785	3090.3388	1323.35	440.1
1036.8866	3091.3449	1317.1	431.15
1036.9948	3092.3503	1322.65	435.9
1037.1028	3093.3551	1310.15	427.15
1037.2108	3094.3593	1306.95	424.2
1037.3188	3095.3629	1306.7	424
1037.4267	3096.3658	1303.95	420.8
1037.5346	3097.3681	1306.2	421.95
1037.6425	3098.3698	1293.9	408.45
1037.7503	3099.3708	1299.1	409.35
1037.858	3100.3713	1285.35	401.05
1037.9657	3101.3711	1284.4	399.55
1038.0734	3102.3702	1415	400.75
1038.181	3103.3688	1282.65	393.9
1038.2886	3104.3667	1273.45	391.4
1038.3961	3105.364	1264.65	381
1038.5036	3106.3607	1265.25	380.7
1038.611	3107.3568	1264	379.7
1038.7184	3108.3522	1258.6	374.35
1038.8257	3109.347	1257.35	372.7
1038.933	3110.3412	1258.45	369.1
1039.0403	3111.3348	1253.2	368.95
1039.1475	3112.3277	1245.05	361.2
1039.2547	3113.32	1245.85	361.7
1039.3618	3114.3117	1250	366.6
1039.4689	3115.3028	1241.8	359.55
1039.5759	3116.2932	1244.6	358.35
1039.6829	3117.2831	1248.4	361.35
1039.7898	3118.2723	1234.95	351.35
1039.8967	3119.2608	1231.3	346.45
1040.0035	3120.2488	1231.75	348.15
1040.1103	3121.2361	1233.65	351.2
1040.2171	3122.2229	1221.1	336.95
1040.3238	3123.209	1225.6	340.15
1040.4305	3124.1944	1222.2	339.6
1040.5371	3125.1793	1224.05	339.4
1040.6437	3126.1635	1220.6	336.65
1040.7502	3127.1471	1213	329.95
1040.8567	3128.1301	1209.7	326.75
1040.9631	3129.1125	1209.05	327
1041.0695	3130.0942	1214.4	332.55
1041.1759	3131.0753	1216.8	326.95
1041.2822	3132.0558	1205.85	320.25
1041.3884	3133.0357	1203.5	318.25
1041.4946	3134.015	1199.6	315.65
1041.6008	3134.9936	1194.9	309.55
1041.7069	3135.9716	1220.7	316.9
1041.813	3136.949	1197.7	314.85
1041.919	3137.9258	1215.45	313.65
1042.025	3138.902	1197.1	310.1
1042.1309	3139.8775	1193.1	312.8
1042.2368	3140.8524	1190.95	307.3
1042.3427	3141.8267	1194.95	310.1
1042.4485	3142.8004	1183.75	301.9
1042.5542	3143.7735	1189.7	303.1
1042.6599	3144.7459	1180.35	295.1
1042.7656	3145.7178	1179.75	294.85
1042.8712	3146.689	1174.45	292.5
1042.9768	3147.6596	1176.15	290.85
1043.0823	3148.6295	1173.15	290.05
1043.1878	3149.5989	1174.45	291.85
1043.2932	3150.5676	1170.4	288.05
1043.3986	3151.5357	1168	286.15
1043.5039	3152.5032	1169.45	286.35
1043.6092	3153.4701	1163.8	280.85
1043.7145	3154.4364	1158.9	276.5
1043.8197	3155.402	1162.7	279.6
1043.9248	3156.367	1161.5	277.8
1044.03	3157.3315	1191.9	271.7
1044.135	3158.2952	1159.45	275.15
1044.24	3159.2584	1146.75	266.05
1044.345	3160.221	1152.2	267.9
1044.4499	3161.1829	1146.45	262.95
1044.5548	3162.1442	1145.55	262.6
1044.6596	3163.105	1144.65	261.25
1044.7644	3164.065	1142.1	259.5
1044.8692	3165.0245	1145.3	259.35
1044.9739	3165.9834	1139.35	258.55
1045.0785	3166.9416	1138.2	254.85
1045.1831	3167.8993	1139.3	255.85
1045.2877	3168.8563	1134.15	248.25
1045.3922	3169.8127	1136.25	251.4
1045.4966	3170.7684	1134.4	252.35
1045.6011	3171.7236	1132.7	247.65
1045.7054	3172.6782	1130.95	246.4
1045.8098	3173.6321	1131.7	248.45
1045.914	3174.5854	1132.6	246.95
1046.0183	3175.5381	1126.9	243.75
1046.1224	3176.4902	1124.7	242.3
1046.2266	3177.4417	1123.8	242.85
1046.3307	3178.3926	1119.95	238.2
1046.4347	3179.3428	1125.8	242.55
1046.5387	3180.2924	1114.85	232.5
1046.6427	3181.2415	1118.65	235.95
1046.7466	3182.1899	1119.35	234.6
1046.8504	3183.1377	1110.8	229.35
1046.9542	3184.0848	1113.25	227.95
1047.058	3185.0314	1115.05	231.3
1047.1617	3185.9773	1114.6	232.4
1047.2654	3186.9227	1111	226.1
1047.369	3187.8674	1111.6	229.75
1047.4726	3188.8115	1115.8	228.4
1047.5761	3189.755	1109.8	225.65
1047.6796	3190.6979	1109.85	228.95
1047.783	3191.6402	1097.75	214.3
1047.8864	3192.5818	1104.75	222.9
1047.9898	3193.5229	1106.9	215.55
1048.0931	3194.4633	1105.4	222.4
1048.1963	3195.4031	1101.8	220.4
1048.2995	3196.3423	1100.65	219.15
1048.4027	3197.2809	1099.8	217
1048.5058	3198.2189	1099.6	215.45
1048.6089	3199.1563	1105.7	216.25
1048.7119	3200.0931	1096.9	215.5
1048.8148	3201.0292	1095.9	213.2
1048.9178	3201.9648	1093.55	212.7
1049.0206	3202.8997	1090.1	204.15
1049.1235	3203.834	1092.3	208.95
1049.2262	3204.7677	1083.5	200.3
1049.329	3205.7008	1087.7	202.45
1049.4317	3206.6333	1082.4	201.8
1049.5343	3207.5652	1087.1	202
1049.6369	3208.4964	1089.45	208.45
1049.7394	3209.4271	1082.6	201.4
1049.8419	3210.3571	1085.05	203.85
1049.9444	3211.2865	1083.7	201.05
1050.0468	3212.2154	1086.95	204.45
1050.1491	3213.1436	1086.8	201
1050.2514	3214.0712	1086.95	197.85
1050.3537	3214.9982	1078.15	195.35
1050.4559	3215.9246	1074.05	190.25
1050.5581	3216.8503	1072	192.2
1050.6602	3217.7755	1072.8	190.4
1050.7623	3218.7001	1075.8	193.9
1050.8643	3219.624	1072.8	190.3
1050.9663	3220.5473	1073.45	192.2
1051.0682	3221.4701	1070.85	186.3
1051.1701	3222.3922	1071.55	190.05
1051.2719	3223.3137	1072.05	189.6
1051.3737	3224.2346	1071.85	189.5
1051.4754	3225.1549	1064.95	181.4
1051.5771	3226.0746	1064.3	184.45
1051.6788	3226.9937	1065.95	183.2
1051.7804	3227.9121	1069.5	188.1
1051.8819	3228.83	1063	181.45
1051.9834	3229.7473	1064.65	181
1052.0849	3230.6639	1064.05	181.4
1052.1863	3231.5799	1064.15	181.25
1052.2876	3232.4954	1058.4	174.35
1052.3889	3233.4102	1058.85	177.5
1052.4902	3234.3244	1057.2	172.25
1052.5914	3235.238	1058.45	177
1052.6926	3236.151	1077.75	169.55
1052.7937	3237.0634	1049.75	168.75
1052.8948	3237.9752	1054.95	173.3
1052.9958	3238.8864	1052.05	169.75
1053.0968	3239.797	1053.8	171.3
1053.1977	3240.7069	1050.95	167.65
1053.2986	3241.6163	1047.75	164.25
1053.3994	3242.5251	1048.6	165.2
1053.5002	3243.4332	1043.6	162.95
1053.6009	3244.3408	1046.25	163.35
1053.7016	3245.2477	1045.85	164.6
1053.8022	3246.154	1047.4	163.15
1053.9028	3247.0598	1042.55	160.65
1054.0034	3247.9649	1044.95	162.1
1054.1039	3248.8694	1040.55	159.25
1054.2043	3249.7733	1041.15	159.45
1054.3047	3250.6766	1041.6	159.9
1054.4051	3251.5793	1038.2	154.15
1054.5054	3252.4814	1037.25	154.9
1054.6056	3253.3829	1031.75	149.8
1054.7058	3254.2838	1031.7	150.3
1054.806	3255.1841	1033.75	149.75
1054.9061	3256.0838	1031.45	151
1055.0061	3256.9829	1028.35	147.4
1055.1062	3257.8814	1029.6	147.05
1055.2061	3258.7792	1029.8	144.95
1055.306	3259.6765	1025.6	141.35
1055.4059	3260.5731	1025.9	145.45
1055.5057	3261.4692	1020.8	138.25
1055.6055	3262.3647	1018.6	138.7
1055.7052	3263.2595	1020.15	139
1055.8049	3264.1538	1019.6	135.7
1055.9045	3265.0474	1020.7	138.55
1056.0041	3265.9404	1017.5	135.95
1056.1036	3266.8329	1011.5	130.05
1056.2031	3267.7247	1019.7	126.05
1056.3025	3268.616	1004.35	122.1
1056.4019	3269.5066	1001.8	118.9
1056.5013	3270.3966	1001.4	118.25
1056.6005	3271.286	993.25	112.6
