Software Version:	3.9.2.0
Unit SN:	10000200
Spectrometer SN:	6960
Date:	3/26/2024 2:49:06 PM
Data Line Index:	25
Spectral Points:	2048
Integration time (ms):	125
Averages:	20
Delay (ms):	30000
Sequence Number:	1
Processing:	dark subtract
Laser Power (mW):	300
Laser Current (mA):	820
Laser Diode Temp (C):	25
Laser Case Temp (C):	28
System Temp (C):	28
Spectrometer Temp (C):	25.8
CCD Temp (C):	0.01
Secondary Temp (C):	20.01
Heatsink Temp (C):	23.393
CCDPCB Temp (C):	37.352
SecondaryPCB Temp (C):	34.539

Wavelength	RamanShift	Raw Counts	Dark Subtracted
787.061	30.1047	626.15	217.4
787.2016	32.3739	635.35	229.55
787.3422	34.6426	651.05	242.6
787.4828	36.9109	663.8	252.75
787.6235	39.1787	688.8	275.15
787.7642	41.4461	709.3	290.45
787.9049	43.7131	734.3	311.6
788.0456	45.9796	755.45	329.35
788.1863	48.2456	781.3	349.6
788.3271	50.5112	809.05	374.75
788.4679	52.7764	833.15	394.55
788.6087	55.0411	860.65	420.9
788.7496	57.3054	891.3	446.95
788.8904	59.5692	920.8	471.95
789.0313	61.8326	961.9	508.8
789.1722	64.0955	996.9	540.6
789.3132	66.3579	1039.95	578.15
789.4541	68.6199	1097.25	633.7
789.5951	70.8815	1187.6	719.6
789.7361	73.1426	1376.45	904.4
789.8771	75.4032	1864.55	1387.1
790.0181	77.6634	3058.9	2574.25
790.1592	79.9231	6080.6	5588.9
790.3003	82.1824	13014.2	12503.4
790.4414	84.4412	28020.1	27476.8
790.5825	86.6995	54682.95	54093.15
790.7237	88.9574	65311.5	64681.2
790.8648	91.2148	65535	64872.05
791.006	93.4717	65535	64853.05
791.1472	95.7282	65535	64839.9
791.2885	97.9842	65535	64837.3
791.4297	100.2398	65535	64834.05
791.571	102.4949	65535	64829.85
791.7123	104.7495	65535	64825.7
791.8536	107.0036	65535	64829
791.9949	109.2573	65535	64830.2
792.1363	111.5105	65535	64827.95
792.2777	113.7632	65535	64825.85
792.4191	116.0154	65535	64812.85
792.5605	118.2672	65535	64822.15
792.7019	120.5185	65535	64817.8
792.8434	122.7693	65535	64816.25
792.9849	125.0197	65535	64814.85
793.1264	127.2696	65535	64810.45
793.2679	129.519	65535	64809.1
793.4094	131.7679	65535	64799.65
793.551	134.0163	65535	64801.8
793.6926	136.2642	65535	64796.05
793.8342	138.5117	65535	64791.05
793.9758	140.7587	65535	64789.4
794.1175	143.0052	65535	64788.3
794.2591	145.2512	65535	64794.5
794.4008	147.4967	65535	64792.4
794.5425	149.7417	65535	64788.15
794.6842	151.9863	65535	64788.2
794.826	154.2304	65535	64778.6
794.9677	156.4739	65535	64773
795.1095	158.717	65535	64774.4
795.2513	160.9596	65535	64772.55
795.3931	163.2017	65535	64770.65
795.535	165.4433	65535	64770.7
795.6768	167.6844	65535	64766.95
795.8187	169.925	65535	64765.45
795.9606	172.1651	65535	64768.35
796.1025	174.4047	65535	64757.2
796.2445	176.6439	65535	64757
796.3864	178.8825	65535	64758.15
796.5284	181.1206	65535	64749
796.6704	183.3582	65535	64741.1
796.8124	185.5954	65535	64745.2
796.9544	187.832	65535	64741.65
797.0965	190.0681	65535	64737.2
797.2386	192.3037	65535	64733.3
797.3806	194.5388	65535	64724.85
797.5228	196.7734	65535	64728.55
797.6649	199.0075	65535	64725.35
797.807	201.2411	65535	64723.9
797.9492	203.4742	65535	64725.35
798.0914	205.7068	65535	64718.6
798.2336	207.9389	65535	64717.15
798.3758	210.1704	65535	64717.95
798.518	212.4015	65535	64713.3
798.6603	214.632	65535	64716.65
798.8025	216.862	65535	64723.8
798.9448	219.0915	65535	64731.65
799.0871	221.3205	65535	64731.1
799.2294	223.549	65535	64742.45
799.3718	225.777	65535	64736.3
799.5141	228.0044	65535	64738.85
799.6565	230.2314	65535	64736.4
799.7989	232.4578	65535	64740.9
799.9413	234.6837	65535	64729.85
800.0837	236.909	65535	64727.1
800.2262	239.1339	65535	64701.25
800.3687	241.3582	65535	64716.8
800.5111	243.582	65535	64683.2
800.6536	245.8053	65535	64699.7
800.7961	248.0281	65535	64703.5
800.9387	250.2503	65535	64698.25
801.0812	252.472	65535	64697.05
801.2238	254.6932	65535	64691.65
801.3664	256.9139	65535	64693.7
801.509	259.134	65535	64694.5
801.6516	261.3536	65535	64686.2
801.7942	263.5727	65535	64687
801.9369	265.7912	65535	64691.95
802.0795	268.0092	65535	64691.3
802.2222	270.2267	65535	64692
802.3649	272.4436	65535	64683.85
802.5076	274.6601	65535	64681.15
802.6504	276.8759	65535	64685.65
802.7931	279.0913	65535	64679.75
802.9359	281.3061	65535	64679.2
803.0787	283.5204	65535	64678.5
803.2215	285.7341	65535	64675.85
803.3643	287.9473	65535	64661.3
803.5071	290.16	65535	64672.35
803.6499	292.3721	65535	64676
803.7928	294.5837	65535	64674.65
803.9357	296.7947	65535	64674.2
804.0786	299.0052	65535	64674.65
804.2215	301.2152	65535	64669
804.3644	303.4246	65535	64682.25
804.5074	305.6334	65535	64676.4
804.6503	307.8418	65535	64672.3
804.7933	310.0495	65535	64668.85
804.9363	312.2568	65535	64669.65
805.0793	314.4635	65535	64671.6
805.2223	316.6696	65535	64667.35
805.3653	318.8752	65535	64664.65
805.5084	321.0802	65535	64664.9
805.6514	323.2847	65535	64666
805.7945	325.4887	65535	64663
805.9376	327.692	65535	64661.5
806.0807	329.8949	65535	64659.25
806.2238	332.0972	65535	64660.5
806.367	334.2989	65535	64660.15
806.5101	336.5001	65535	64656.1
806.6533	338.7007	65535	64660.35
806.7965	340.9008	65535	64660.55
806.9397	343.1003	65535	64651.4
807.0829	345.2992	65535	64650.7
807.2261	347.4976	65535	64651.75
807.3693	349.6955	65535	64647.5
807.5126	351.8927	65535	64646.25
807.6559	354.0895	65535	64639.95
807.7991	356.2856	65535	64646.35
807.9424	358.4812	65535	64646.4
808.0857	360.6763	65535	64645.85
808.2291	362.8707	65535	64646.75
808.3724	365.0646	65535	64643.6
808.5158	367.258	65535	64642.75
808.6591	369.4508	65535	64633.95
808.8025	371.643	65535	64637.05
808.9459	373.8346	65535	64635.2
809.0893	376.0257	65535	64635.45
809.2327	378.2162	65535	64629.85
809.3762	380.4062	65535	64637.3
809.5196	382.5956	65535	64629.8
809.6631	384.7844	65535	64634.6
809.8066	386.9726	65535	64632.25
809.9501	389.1603	65535	64633.25
810.0936	391.3474	65535	64593.05
810.2371	393.5339	65535	64634.45
810.3806	395.7199	65535	64637.1
810.5241	397.9052	65535	64644.65
810.6677	400.09	65535	64644.3
810.8113	402.2743	65535	64643.25
810.9548	404.4579	65535	64644
811.0984	406.641	65535	64641.85
811.2421	408.8235	65535	64641.85
811.3857	411.0054	65535	64642.35
811.5293	413.1868	65535	64636.7
811.673	415.3675	65535	64635.8
811.8166	417.5477	65535	64638
811.9603	419.7273	65535	64637.9
812.104	421.9064	65535	64631.35
812.2477	424.0848	65535	64634.55
812.3914	426.2627	65535	64627.1
812.5351	428.4399	65535	64628.05
812.6788	430.6166	65535	64627.7
812.8226	432.7928	65535	64621
812.9663	434.9683	65535	64630.55
813.1101	437.1432	65535	64631.05
813.2539	439.3176	65535	64631.4
813.3977	441.4914	65535	64634.3
813.5415	443.6645	65535	64631.65
813.6853	445.8371	65535	64627.9
813.8291	448.0091	65535	64625.25
813.973	450.1806	65535	64628.2
814.1168	452.3514	65535	64628.5
814.2607	454.5216	65535	64619.75
814.4046	456.6913	65535	64625.3
814.5485	458.8603	65535	64628.45
814.6924	461.0288	65535	64635.5
814.8363	463.1967	65535	64635.15
814.9802	465.3639	65535	64627.95
815.1241	467.5306	65535	64626.75
815.2681	469.6967	65535	64630.85
815.412	471.8622	65535	64635
815.556	474.0271	65535	64633.8
815.7	476.1914	65535	64623.75
815.844	478.3551	65535	64629.15
815.988	480.5182	65535	64630.45
816.132	482.6807	65535	64635
816.276	484.8426	65535	64641.9
816.4201	487.0039	65535	64636.2
816.5641	489.1647	65535	64629.55
816.7082	491.3248	65535	64625.7
816.8522	493.4843	65535	64631.15
816.9963	495.6432	65535	64631.6
817.1404	497.8015	65535	64620.4
817.2845	499.9592	65535	64616.6
817.4286	502.1163	65535	64616.2
817.5727	504.2728	65535	64625.5
817.7168	506.4287	65535	64632.55
817.861	508.5839	65535	64635.05
818.0051	510.7386	65535	64630.25
818.1493	512.8927	65535	64617.25
818.2935	515.0461	65535	64621.25
818.4377	517.199	65535	64620.7
818.5818	519.3512	65535	64618.75
818.726	521.5029	65535	64615.85
818.8703	523.6539	65535	64618.35
819.0145	525.8043	65535	64622.1
819.1587	527.9541	65535	64616
819.303	530.1033	65535	64617.35
819.4472	532.2519	65535	64618.45
819.5915	534.3999	65535	64619
819.7357	536.5472	65535	64622.8
819.88	538.694	65535	64621.85
820.0243	540.8401	65535	64615.6
820.1686	542.9856	65535	64610.5
820.3129	545.1305	65535	64601.85
820.4572	547.2748	65535	64607.4
820.6016	549.4185	65535	64603.05
820.7459	551.5615	65535	64600.7
820.8902	553.704	65535	64607.4
821.0346	555.8458	65535	64607.9
821.1789	557.987	65535	64609.3
821.3233	560.1276	65535	64606.2
821.4677	562.2675	65535	64609
821.6121	564.4069	65535	64608.2
821.7565	566.5456	65535	64613.95
821.9009	568.6837	65535	64607.8
822.0453	570.8212	65535	64614.85
822.1897	572.958	65535	64610
822.3342	575.0942	65535	64613.1
822.4786	577.2299	65535	64618.5
822.6231	579.3648	65535	64627.4
822.7675	581.4992	65535	64636.35
822.912	583.6329	65535	64634.45
823.0565	585.766	65535	64630.9
823.201	587.8985	65535	64627.3
823.3454	590.0304	65535	64606.35
823.4899	592.1616	65535	64613.1
823.6345	594.2922	65535	64610.85
823.779	596.4222	65535	64607.75
823.9235	598.5515	65535	64609.35
824.068	600.6802	65535	64608.25
824.2126	602.8083	65535	64605.2
824.3571	604.9358	65535	64606.15
824.5017	607.0626	65535	64602.8
824.6462	609.1888	65535	64598.3
824.7908	611.3144	65535	64604.15
824.9354	613.4393	65535	64603.6
825.08	615.5636	65531.65	64599.65
825.2246	617.6873	65535	64603.55
825.3692	619.8103	65526.35	64596.05
825.5138	621.9327	65535	64604.95
825.6584	624.0544	65535	64606.35
825.803	626.1756	65535	64609.4
825.9477	628.2961	65535	64604.2
826.0923	630.4159	65532.05	64601.1
826.237	632.5351	65527.25	64592.5
826.3816	634.6537	65535	64600.35
826.5263	636.7716	65523.45	64586.4
826.6709	638.8889	65529.9	64591
826.8156	641.0056	65527.55	64591.75
826.9603	643.1216	65530.75	64594.4
827.105	645.237	65535	64599
827.2497	647.3518	65522	64592.95
827.3944	649.4659	65526.95	64603.15
827.5391	651.5793	65528.2	64605.35
827.6838	653.6922	65532.55	64602.15
827.8285	655.8043	65483.45	64552.25
827.9733	657.9159	65535	64602.2
828.118	660.0268	65379.85	64447.65
828.2627	662.137	65518.4	64585.45
828.4075	664.2466	65519.05	64579.6
828.5522	666.3556	65479.1	64542.15
828.697	668.4639	65520.15	64588.15
828.8418	670.5716	65451.75	64523
828.9865	672.6786	65516.3	64582.2
829.1313	674.785	65461.5	64524.4
829.2761	676.8907	65475.65	64542.45
829.4209	678.9958	65514.2	64581.25
829.5657	681.1002	65508.95	64570.55
829.7105	683.204	65437.65	64496.95
829.8553	685.3072	65359.4	64422.5
830.0001	687.4097	65426.7	64489.85
830.1449	689.5115	65343.95	64400.85
830.2898	691.6127	65466.75	64531.6
830.4346	693.7132	65344.05	64414.9
830.5794	695.8131	65334	64376.8
830.7243	697.9123	65368.4	64422.85
830.8691	700.0109	65376.1	64436.6
831.014	702.1089	65176.95	64241.85
831.1588	704.2061	65219	64281.4
831.3037	706.3028	65241.95	64300.6
831.4486	708.3987	65318.7	64376.6
831.5935	710.4941	65215.4	64279.2
831.7383	712.5887	65365.4	64430.1
831.8832	714.6827	65286.7	64342.6
832.0281	716.7761	65435.75	64503
832.173	718.8688	65476.75	64536.15
832.3179	720.9608	65382.25	64434.2
832.4628	723.0522	65366.55	64419.5
832.6077	725.1429	65201.15	64258.5
832.7527	727.233	65461.4	64520.7
832.8976	729.3224	64726.5	63787.2
833.0425	731.4112	65016.65	64077.65
833.1874	733.4993	65005.35	64061.15
833.3324	735.5867	64995.7	64055.1
833.4773	737.6735	64767.5	63823
833.6222	739.7596	64609.6	63669.75
833.7672	741.845	64569.45	63627.9
833.9122	743.9298	64916.25	63979.05
834.0571	746.014	64556	63613.1
834.2021	748.0974	64324.6	63378.9
834.347	750.1802	64833.2	63888.3
834.492	752.2624	64187.1	63240.2
834.637	754.3439	64269.75	63327.6
834.782	756.4247	64432.6	63480.2
834.9269	758.5048	64183.4	63237.8
835.0719	760.5843	64320	63374.75
835.2169	762.6631	64482.25	63535.5
835.3619	764.7413	64406.05	63466.4
835.5069	766.8188	64536.05	63594.45
835.6519	768.8956	64811.15	63863.25
835.7969	770.9718	64787.15	63842.15
835.9419	773.0473	64621.65	63676.7
836.0869	775.1221	64172.75	63226
836.232	777.1962	64137.45	63194.5
836.377	779.2697	63544.9	62597.05
836.522	781.3426	63986.85	63029.95
836.667	783.4147	64196.2	63250.3
836.8121	785.4862	64198.5	63253.6
836.9571	787.557	63685.2	62741.85
837.1021	789.6271	64092.7	63144.05
837.2472	791.6966	63436.65	62493.45
837.3922	793.7654	62574.15	61630.7
837.5373	795.8335	62540.2	61594.1
837.6823	797.901	62731.6	61787.9
837.8274	799.9678	62360.05	61411.45
837.9724	802.0339	62244.6	61298.7
838.1175	804.0993	62305.65	61350.2
838.2626	806.1641	62032.4	61081.85
838.4076	808.2282	61850.25	60904.95
838.5527	810.2916	61601.95	60652.6
838.6978	812.3544	61999.8	61058.7
838.8428	814.4164	61079.15	60133.2
838.9879	816.4778	61138.1	60188.3
839.133	818.5385	61138.7	60190.05
839.2781	820.5986	61041.1	60088.5
839.4232	822.658	61141.1	60193.05
839.5682	824.7166	61159.5	60214.55
839.7133	826.7747	60427.55	59479.2
839.8584	828.832	60756.3	59804.85
840.0035	830.8886	61148.05	60195.85
840.1486	832.9446	61240.35	60290.8
840.2937	834.9999	60046.05	59096.7
840.4388	837.0545	60700.35	59744.75
840.5839	839.1085	61075.95	60128.35
840.729	841.1618	60840.2	59889.45
840.8741	843.2143	59949.25	59003.1
841.0192	845.2662	59952.75	59003.55
841.1643	847.3175	60178.15	59226
841.3095	849.368	59142.65	58194.9
841.4546	851.4179	59807.35	58858.45
841.5997	853.467	59085.1	58140.55
841.7448	855.5155	59241.1	58292.8
841.8899	857.5633	58616.4	57668.15
842.0351	859.6105	58240.55	57292.7
842.1802	861.6569	58550.9	57603.55
842.3253	863.7027	57850.85	56899.25
842.4704	865.7478	58050.3	57099.5
842.6156	867.7922	57809.55	56859.75
842.7607	869.8359	58209.55	57261.15
842.9058	871.8789	57510.65	56561.7
843.0509	873.9212	58040.5	57060.35
843.1961	875.9629	58091	57139.35
843.3412	878.0039	58048.9	57100
843.4863	880.0441	57837.05	56890.8
843.6315	882.0837	57710.4	56759.9
843.7766	884.1226	57635.45	56687.4
843.9218	886.1609	57430.2	56484.95
844.0669	888.1984	57036.6	56087.55
844.212	890.2352	57325.7	56372.4
844.3572	892.2714	56582.75	55625.15
844.5023	894.3069	56794.95	55841.25
844.6475	896.3416	56500.55	55549.25
844.7926	898.3757	56363.05	55414.3
844.9377	900.4091	55696.95	54746.85
845.0829	902.4418	56370.5	55415.7
845.228	904.4739	55859.1	54905.75
845.3732	906.5052	55977.2	55021.6
845.5183	908.5358	55539.55	54586.95
845.6635	910.5658	55147.45	54197.45
845.8086	912.595	55016.15	54060.6
845.9538	914.6236	54434	53480.45
846.0989	916.6515	55155.95	54204.8
846.2441	918.6786	54134	53182.8
846.3892	920.7051	54422.75	53469.2
846.5344	922.7309	54371.1	53417.75
846.6795	924.756	54418.6	53465.6
846.8246	926.7804	54164.65	53211.2
846.9698	928.8041	53590	52638.4
847.1149	930.8272	53840.5	52889.7
847.2601	932.8495	53631.15	52679.7
847.4052	934.8711	53259.6	52304.15
847.5504	936.892	52864.6	51911.2
847.6955	938.9123	52639.55	51686.65
847.8407	940.9318	52302.25	51351
847.9858	942.9506	52024.7	51074.5
848.131	944.9688	51939.8	50986.15
848.2761	946.9862	51385.25	50432.9
848.4213	949.003	51388.75	50437.9
848.5664	951.019	50947.5	49994.65
848.7115	953.0344	51015.6	50064
848.8567	955.0491	50961	50008.1
849.0018	957.063	51096.35	50145.35
849.147	959.0763	51094.15	50138.55
849.2921	961.0888	50832.2	49878
849.4373	963.1007	50922.15	49972.95
849.5824	965.1119	50850.95	49908.3
849.7275	967.1223	50708.05	49766.7
849.8727	969.1321	50762.25	49820.9
850.0178	971.1412	50515.2	49572.75
850.1629	973.1495	50264.1	49316.1
850.3081	975.1572	50299.65	49314.1
850.4532	977.1641	50248.6	49301.95
850.5983	979.1704	50096.15	49144.1
850.7435	981.1759	49912.8	48956.8
850.8886	983.1808	49898.45	48945.4
851.0337	985.1849	49838.35	48876.9
851.1788	987.1884	49884.65	48927.2
851.324	989.1911	50075.4	49125.65
851.4691	991.1932	49870.7	48923.35
851.6142	993.1945	49768.15	48822.45
851.7593	995.1951	49595.7	48642.7
851.9045	997.1951	49412.05	48453.15
852.0496	999.1943	49124	48172.1
852.1947	1001.1928	48884.55	47928.65
852.3398	1003.1906	48700.5	47748.35
852.4849	1005.1877	48545.6	47592.85
852.63	1007.1841	48254.4	47304.3
852.7751	1009.1798	47994.4	47043.95
852.9202	1011.1748	47610.6	46661.4
853.0653	1013.1691	47313.75	46362
853.2104	1015.1627	46825	45874.95
853.3555	1017.1556	46386.05	45441.1
853.5006	1019.1477	46236.55	45287.2
853.6457	1021.1392	45883.85	44945.05
853.7908	1023.1299	45728.25	44787.45
853.9359	1025.12	45564.6	44631.2
854.081	1027.1093	45394.15	44469.15
854.2261	1029.0979	45336.7	44414.35
854.3712	1031.0859	45229	44302.5
854.5163	1033.0731	45002.85	44062.45
854.6613	1035.0596	44787.55	43846.4
854.8064	1037.0454	44422.1	43480.75
854.9515	1039.0304	44212.25	43266.85
855.0965	1041.0148	43856.35	42912.2
855.2416	1042.9985	43693.45	42747.3
855.3867	1044.9814	43602.6	42659.4
855.5317	1046.9636	43333.95	42385.8
855.6768	1048.9452	43153.2	42210.5
855.8219	1050.926	43056.65	42111.85
855.9669	1052.9061	42886.1	41938.65
856.112	1054.8855	42689.45	41743.65
856.257	1056.8642	42657.7	41710.8
856.4021	1058.8421	42672.7	41720.9
856.5471	1060.8194	42495.6	41546
856.6921	1062.7959	42424.6	41479.7
856.8372	1064.7717	42330.5	41386.95
856.9822	1066.7469	42197.15	41247.8
857.1272	1068.7213	42040.4	41089.7
857.2723	1070.695	41895.35	40949.5
857.4173	1072.6679	41619.4	40673.05
857.5623	1074.6402	41465.8	40518.6
857.7073	1076.6117	41383.5	40429.9
857.8523	1078.5826	41342.95	40393.95
857.9973	1080.5527	41291.55	40340.35
858.1423	1082.5221	41311	40364.65
858.2873	1084.4908	41442.75	40495.7
858.4323	1086.4587	41551.65	40603.15
858.5773	1088.426	41615.1	40664.75
858.7223	1090.3925	41411.2	40459.5
858.8673	1092.3584	41301.55	40350.35
859.0123	1094.3235	40834.25	39886.85
859.1573	1096.2879	40571.45	39624.5
859.3022	1098.2515	40486.05	39539.9
859.4472	1100.2145	40470.7	39527.25
859.5922	1102.1767	40349.65	39400.5
859.7371	1104.1382	40382.6	39436.9
859.8821	1106.099	40475.85	39526.9
860.027	1108.0591	40588.25	39642.9
860.172	1110.0185	40553.4	39606.15
860.3169	1111.9771	40499.35	39553.55
860.4619	1113.9351	40089.4	39147
860.6068	1115.8923	39583.8	38641.9
860.7517	1117.8488	39127.15	38183.2
860.8967	1119.8045	38666.05	37720.5
861.0416	1121.7596	38481.85	37540.2
861.1865	1123.7139	38286.25	37345.05
861.3314	1125.6675	38164	37218.6
861.4763	1127.6204	38200.55	37255.55
861.6212	1129.5726	38089.65	37143
861.7661	1131.524	38053.8	37109.5
861.911	1133.4748	38060.15	37115.55
862.0559	1135.4248	37961.1	37013.25
862.2008	1137.3741	37904.35	36957.9
862.3457	1139.3226	37808.65	36864.15
862.4905	1141.2705	37713.6	36769.05
862.6354	1143.2176	37392.35	36441.75
862.7803	1145.164	37367.2	36423.5
862.9251	1147.1097	37312.75	36368.75
863.07	1149.0546	37252.95	36307.6
863.2148	1150.9989	37124.85	36179.45
863.3597	1152.9424	36928.6	35983.05
863.5045	1154.8852	36594.4	35648.1
863.6493	1156.8272	36363.4	35418.4
863.7942	1158.7686	36297.35	35345.8
863.939	1160.7092	36090.95	35146.4
864.0838	1162.6491	35928.4	34981.2
864.2286	1164.5883	35948.85	35005.6
864.3734	1166.5267	35875.95	34932.05
864.5182	1168.4644	35975.7	35032.8
864.663	1170.4014	36087.55	35143.15
864.8078	1172.3377	36316.05	35376.5
864.9526	1174.2732	36347.55	35405.65
865.0974	1176.2081	36522.35	35579.5
865.2421	1178.1421	36555.65	35610.15
865.3869	1180.0755	36606.9	35665.7
865.5317	1182.0082	36503.7	35562.8
865.6764	1183.9401	36372	35431.6
865.8212	1185.8713	36021.1	35087.3
865.9659	1187.8017	35671.85	34739.45
866.1106	1189.7315	35377.5	34450.85
866.2554	1191.6605	34923.8	33997.5
866.4001	1193.5888	34640.35	33712.15
866.5448	1195.5163	34442.65	33511.25
866.6895	1197.4432	34253.35	33312.05
866.8342	1199.3693	34043.2	33103.1
866.9789	1201.2947	33855.15	32907.05
867.1236	1203.2193	33770.75	32830.85
867.2683	1205.1432	33712.7	32774.25
867.413	1207.0664	33681.95	32742.6
867.5576	1208.9889	33605.35	32662.6
867.7023	1210.9106	33530.35	32590.45
867.847	1212.8316	33528.15	32586.55
867.9916	1214.7519	33536.25	32585.75
868.1363	1216.6715	33441.05	32502.9
868.2809	1218.5903	33289.1	32346.45
868.4255	1220.5084	33124.5	32180.85
868.5701	1222.4257	33086.1	32146.25
868.7148	1224.3424	32832.35	31896.6
868.8594	1226.2583	32812.3	31869.2
869.004	1228.1735	32797.8	31858.4
869.1486	1230.0879	32805.75	31866.15
869.2932	1232.0016	32866.8	31924.75
869.4377	1233.9146	32823.4	31883.75
869.5823	1235.8269	32594.4	31657.5
869.7269	1237.7384	32414.2	31472.9
869.8715	1239.6492	32111.65	31174.35
870.016	1241.5592	31974.75	31037.15
870.1606	1243.4686	31703.5	30762.55
870.3051	1245.3772	31547.95	30609.9
870.4496	1247.285	31395.95	30454
870.5941	1249.1922	31235.9	30298.25
870.7387	1251.0986	31180.25	30243.15
870.8832	1253.0042	31061.65	30123.45
871.0277	1254.9092	31059.6	30122.65
871.1722	1256.8134	31060.35	30125
871.3167	1258.7169	31172.6	30234.75
871.4611	1260.6196	31241.05	30304.8
871.6056	1262.5216	31388.5	30451.1
871.7501	1264.4229	31400.8	30465.7
871.8945	1266.3234	31511.55	30574.6
872.039	1268.2232	31509.4	30570.75
872.1834	1270.1223	31385.9	30446.2
872.3278	1272.0207	31298.65	30360.6
872.4723	1273.9183	31151.05	30209.65
872.6167	1275.8151	30968.85	30030.6
872.7611	1277.7113	30875.75	29937.7
872.9055	1279.6067	30582.4	29645.9
873.0499	1281.5014	30310.5	29372.5
873.1943	1283.3953	30110.25	29173.55
873.3386	1285.2885	30005.9	29069.7
873.483	1287.181	29874.5	28935.65
873.6274	1289.0727	29842.05	28908.75
873.7717	1290.9637	29790.25	28853.65
873.9161	1292.854	29875.45	28938.2
874.0604	1294.7435	29926.4	28989.65
874.2047	1296.6323	30093.75	29158.5
874.349	1298.5204	30332.2	29396.35
874.4933	1300.4077	30498	29561.8
874.6376	1302.2943	30630.8	29694.1
874.7819	1304.1802	30663.25	29728.85
874.9262	1306.0653	30535.35	29598.55
875.0705	1307.9497	30314.85	29381.2
875.2147	1309.8333	30182.65	29245.35
875.359	1311.7162	30152.85	29217.65
875.5032	1313.5984	30194.35	29258.6
875.6475	1315.4798	30267.95	29317.85
875.7917	1317.3605	30387.75	29435.15
875.9359	1319.2405	30523.55	29587.25
876.0801	1321.1197	30476.05	29539.1
876.2243	1322.9982	30362.85	29423.7
876.3685	1324.876	30372.55	29438.65
876.5127	1326.753	30203.7	29268.05
876.6569	1328.6293	30218.95	29281.65
876.801	1330.5048	30249.9	29311.35
876.9452	1332.3796	30117.85	29179.35
877.0893	1334.2537	30101.65	29143.9
877.2335	1336.127	29913.35	28980.5
877.3776	1337.9996	29767.15	28833.8
877.5217	1339.8714	29667.1	28729.5
877.6658	1341.7426	29572.7	28595.15
877.8099	1343.6129	29499.5	28561.95
877.954	1345.4826	29310.85	28376.15
878.0981	1347.3515	29298.8	28361.25
878.2422	1349.2196	29159.85	28224.55
878.3862	1351.087	29141.5	28205.6
878.5303	1352.9537	29117.9	28182.15
878.6743	1354.8197	29187.8	28252.9
878.8184	1356.6849	29308.7	28372.6
878.9624	1358.5493	29305.8	28372.5
879.1064	1360.4131	29299.55	28366.35
879.2504	1362.276	29094.15	28160.4
879.3944	1364.1383	28828.85	27894.2
879.5384	1365.9998	28507.05	27567.6
879.6823	1367.8606	28192.35	27255.55
879.8263	1369.7206	27891.65	26958.55
879.9702	1371.5799	27687.45	26749.85
880.1142	1373.4384	27513.6	26577.4
880.2581	1375.2962	27311.4	26375.1
880.402	1377.1533	26951.35	26021.1
880.5459	1379.0096	26580.8	25650.15
880.6898	1380.8652	26241.75	25311.9
880.8337	1382.7201	25972	25040.35
880.9776	1384.5742	25640.8	24707.95
881.1215	1386.4275	25415.15	24480.35
881.2653	1388.2802	25258.15	24324
881.4092	1390.132	25059.2	24127.65
881.553	1391.9832	24969.6	24033.2
881.6968	1393.8336	24819.2	23886.6
881.8406	1395.6832	24702.4	23767.2
881.9844	1397.5322	24560.8	23627.85
882.1282	1399.3803	24513.1	23575.1
882.272	1401.2278	24364.9	23435.85
882.4158	1403.0745	24304.35	23372.65
882.5595	1404.9204	24162.8	23234.05
882.7033	1406.7656	24137.6	23207.05
882.847	1408.6101	24112	23178.6
882.9908	1410.4538	24013.9	23079.65
883.1345	1412.2968	23950.55	23019.8
883.2782	1414.139	23940.15	23006.3
883.4219	1415.9805	23950.55	23020
883.5656	1417.8213	23961.6	23010.65
883.7092	1419.6613	23988.3	23056.9
883.8529	1421.5006	24130.2	23199.65
883.9965	1423.3391	24343.2	23410.6
884.1402	1425.1769	24597.55	23667.1
884.2838	1427.0139	25088.6	24156.6
884.4274	1428.8502	25682.1	24750.9
884.571	1430.6858	26231.3	25301.7
884.7146	1432.5206	26582.35	25650.65
884.8582	1434.3547	26814.5	25883.55
885.0018	1436.188	26785	25855.5
885.1453	1438.0206	26709.05	25776.7
885.2889	1439.8524	26448.5	25517.5
885.4324	1441.6835	26333.45	25402.1
885.5759	1443.5139	26212.25	25277.7
885.7194	1445.3435	26058.35	25132.8
885.8629	1447.1724	25931.2	25003.05
886.0064	1449.0005	25856	24926.25
886.1499	1450.8279	25672.25	24743.2
886.2933	1452.6545	25641.5	24712.6
886.4368	1454.4804	25666.2	24738.65
886.5802	1456.3056	25594.55	24658.95
886.7237	1458.13	25439.45	24511.4
886.8671	1459.9536	25250.75	24324.8
887.0105	1461.7766	24814.85	23885
887.1539	1463.5987	24338.35	23406.6
887.2972	1465.4202	23849.1	22920
887.4406	1467.2409	23431.2	22503.35
887.584	1469.0608	23180.5	22250.2
887.7273	1470.88	22869.5	21939.8
887.8706	1472.6984	22614.05	21688.35
888.0139	1474.5161	22314.9	21382.45
888.1572	1476.3331	22097.5	21168.7
888.3005	1478.1493	21930.4	21001.2
888.4438	1479.9648	21840.85	20911.85
888.5871	1481.7795	21702.6	20772.65
888.7303	1483.5935	21629.25	20701.6
888.8736	1485.4067	21486.2	20557.45
889.0168	1487.2192	21425.15	20498.05
889.16	1489.031	21368.05	20435.45
889.3032	1490.842	21311.8	20386.1
889.4464	1492.6522	21230.95	20301
889.5896	1494.4618	21148.9	20218.4
889.7327	1496.2705	21132.35	20204.7
889.8759	1498.0785	21029.05	20101.65
890.019	1499.8858	20959.7	20029.15
890.1622	1501.6924	20902.3	19975.45
890.3053	1503.4981	20839.5	19914.25
890.4484	1505.3032	20792.7	19866.9
890.5914	1507.1075	20733.85	19806.9
890.7345	1508.911	20654.9	19725.9
890.8776	1510.7138	20582.2	19655.35
891.0206	1512.5159	20490.85	19563.95
891.1637	1514.3172	20407	19478.3
891.3067	1516.1178	20290.2	19363.75
891.4497	1517.9176	20288.25	19358.15
891.5927	1519.7166	20168.9	19245.85
891.7357	1521.515	20104.7	19172.55
891.8786	1523.3126	20049.45	19122.7
892.0216	1525.1094	19992.55	19062.75
892.1645	1526.9055	19888.7	18963.85
892.3074	1528.7008	19780.75	18855.4
892.4503	1530.4954	19668.1	18737.35
892.5932	1532.2893	19643.7	18722.3
892.7361	1534.0824	19537.6	18608.9
892.879	1535.8747	19550.5	18631.1
893.0218	1537.6663	19452.85	18531.5
893.1647	1539.4572	19382.5	18457.65
893.3075	1541.2473	19347.9	18426.3
893.4503	1543.0367	19289.25	18368.2
893.5931	1544.8253	19187.3	18258.55
893.7359	1546.6132	19187	18260.85
893.8787	1548.4003	19102.15	18173.05
894.0214	1550.1867	19082.3	18151.9
894.1642	1551.9723	19037.85	18113.3
894.3069	1553.7572	19050.55	18132.55
894.4496	1555.5414	18990.35	18071.25
894.5923	1557.3247	18928.4	18010.45
894.735	1559.1074	18944.65	18028.7
894.8777	1560.8893	18934.55	18021.3
895.0204	1562.6705	18964.45	18046.5
895.163	1564.4509	18967.15	18052
895.3056	1566.2305	18960.8	18050.3
895.4482	1568.0094	19086.55	18175.8
895.5908	1569.7876	19097.3	18180.75
895.7334	1571.565	19170.45	18252.45
895.876	1573.3417	19204.85	18291.05
896.0186	1575.1176	19137.75	18222.8
896.1611	1576.8928	19053.5	18143.9
896.3036	1578.6672	18942.5	18035.7
896.4461	1580.4409	18794.85	17887.85
896.5886	1582.2138	18630.35	17718.95
896.7311	1583.986	18443.2	17534.25
896.8736	1585.7575	18315.75	17406
897.0161	1587.5282	18185.8	17275.55
897.1585	1589.2981	18093.6	17185.95
897.3009	1591.0673	17968.65	17063.3
897.4433	1592.8358	17926.25	17020.25
897.5857	1594.6035	17863.5	16953.5
897.7281	1596.3704	17836.5	16921.35
897.8705	1598.1366	17755.15	16846
898.0128	1599.9021	17769.1	16860.45
898.1551	1601.6668	17709.1	16797.3
898.2975	1603.4308	17750.7	16836.8
898.4398	1605.194	17762.65	16850.15
898.5821	1606.9564	17761.5	16855.9
898.7243	1608.7182	17867.3	16963.7
898.8666	1610.4791	17948.65	17050.75
899.0088	1612.2394	17999.35	17099.65
899.1511	1613.9988	18160.55	17258.6
899.2933	1615.7576	18317.35	17412.55
899.4355	1617.5156	18569.05	17653.8
899.5776	1619.2728	18824.45	17910.7
899.7198	1621.0293	18965.15	18056.2
899.862	1622.785	18987.35	18080.45
900.0041	1624.54	18836.85	17932.7
900.1462	1626.2942	18684.85	17780.8
900.2883	1628.0477	18326.7	17420.45
900.4304	1629.8005	18079.4	17171.15
900.5725	1631.5525	17796.9	16895.45
900.7145	1633.3037	17523.85	16620.6
900.8566	1635.0542	17361.65	16459.55
900.9986	1636.804	17167.55	16263.95
901.1406	1638.553	17091	16119.4
901.2826	1640.3013	16926.95	16022.55
901.4245	1642.0488	16827.25	15921.55
901.5665	1643.7955	16763.75	15862.8
901.7085	1645.5416	16746.8	15843.7
901.8504	1647.2868	16744.3	15838.8
901.9923	1649.0313	16810.3	15902.8
902.1342	1650.7751	16903.3	15995.05
902.2761	1652.5181	17063.1	16162.1
902.4179	1654.2604	17235.3	16333.45
902.5598	1656.0019	17529.25	16629.25
902.7016	1657.7427	17877.8	16972.95
902.8434	1659.4828	18142.85	17237.85
902.9852	1661.222	18384.2	17478
903.127	1662.9606	18395.45	17490.95
903.2687	1664.6984	18221.55	17315.2
903.4105	1666.4354	17885.55	16976.4
903.5522	1668.1717	17419.25	16510.4
903.6939	1669.9072	16917.8	16010.65
903.8356	1671.642	16540.25	15630.05
903.9773	1673.3761	16208.55	15302.2
904.119	1675.1094	15931.55	15026.55
904.2606	1676.8419	15730.4	14826.1
904.4022	1678.5737	15521.7	14616.4
904.5439	1680.3048	15385.4	14480.05
904.6855	1682.0351	15277.8	14373.25
904.827	1683.7646	15160.7	14252.7
904.9686	1685.4934	15083.4	14178.2
905.1101	1687.2215	14962.2	14060
905.2517	1688.9488	14896.05	13991.3
905.3932	1690.6754	14820.25	13917
905.5347	1692.4012	14795.95	13890.65
905.6761	1694.1263	14723.35	13817.25
905.8176	1695.8506	14658.25	13753.45
905.9591	1697.5742	14597.1	13696.85
906.1005	1699.297	14533.05	13633.55
906.2419	1701.0191	14430.9	13534.1
906.3833	1702.7404	14376.15	13476.15
906.5246	1704.461	14291.35	13391.65
906.666	1706.1808	14214.6	13312.2
906.8073	1707.8999	14212.2	13310.75
906.9487	1709.6182	14147.85	13250
907.09	1711.3358	14106.15	13210.65
907.2313	1713.0527	14038.9	13142.95
907.3725	1714.7688	13984.95	13084.25
907.5138	1716.4841	13918.7	13016.7
907.655	1718.1987	13927.3	13023.35
907.7962	1719.9126	13873.6	12976.9
907.9374	1721.6257	13800.95	12903.05
908.0786	1723.338	13777.85	12884.4
908.2198	1725.0496	13662.15	12763.8
908.3609	1726.7605	13642.75	12742.5
908.502	1728.4706	13583.45	12684.8
908.6431	1730.18	13535.55	12639.95
908.7842	1731.8886	13498.55	12602.7
908.9253	1733.5964	13476.35	12561.45
909.0664	1735.3036	13428.15	12530.75
909.2074	1737.0099	13404.3	12508.6
909.3484	1738.7156	13342.1	12448.35
909.4894	1740.4204	13293.05	12394.1
909.6304	1742.1246	13271.15	12372.1
909.7714	1743.8279	13251.15	12353.95
909.9123	1745.5306	13210.45	12314.3
910.0532	1747.2325	13156.95	12261.35
910.1941	1748.9336	13100.15	12204.9
910.335	1750.634	13063.15	12164.4
910.4759	1752.3336	13042.15	12146.9
910.6168	1754.0325	13022.05	12130.4
910.7576	1755.7307	12988.95	12096.3
910.8984	1757.4281	12984.75	12088.75
911.0392	1759.1247	12961.15	12054.9
911.18	1760.8206	12910.7	12004.85
911.3208	1762.5158	12847.1	11944.7
911.4615	1764.2102	12826	11930.15
911.6022	1765.9039	12781.95	11886.9
911.7429	1767.5968	12763.5	11870.45
911.8836	1769.289	12717.1	11824.55
912.0243	1770.9804	12696.45	11801.85
912.1649	1772.6711	12663.05	11764.2
912.3056	1774.361	12638.9	11740
912.4462	1776.0502	12585.75	11687.75
912.5868	1777.7386	12582	11682.65
912.7274	1779.4263	12522.35	11627.3
912.8679	1781.1132	12477.4	11583.55
913.0084	1782.7994	12463.3	11571.1
913.149	1784.4849	12406.2	11514.35
913.2895	1786.1696	12380.6	11484.6
913.4299	1787.8535	12337.9	11446.3
913.5704	1789.5367	12323.85	11432.4
913.7108	1791.2192	12325.5	11434.55
913.8513	1792.9009	12262.7	11339.15
913.9917	1794.5818	12225.05	11328.15
914.132	1796.2621	12219.65	11325.55
914.2724	1797.9415	12185.1	11289.8
914.4128	1799.6202	12130.1	11236.75
914.5531	1801.2982	12099.65	11204.6
914.6934	1802.9755	12065.7	11169.25
914.8337	1804.6519	12061.5	11166.25
914.9739	1806.3277	11986.9	11095.25
915.1142	1808.0027	11949.5	11058.25
915.2544	1809.6769	11938.3	11048.35
915.3946	1811.3504	11903.55	11010.8
915.5348	1813.0231	11884.3	10992.65
915.675	1814.6951	11853.05	10960.95
915.8151	1816.3664	11830.2	10934.15
915.9553	1818.0369	11826.3	10931.8
916.0954	1819.7067	11783.1	10889.35
916.2355	1821.3757	11725.45	10831.35
916.3755	1823.044	11725.5	10831.35
916.5156	1824.7115	11706.9	10810.45
916.6556	1826.3783	11663.9	10769.7
916.7956	1828.0443	11607.4	10713.45
916.9356	1829.7096	11577.1	10681.35
917.0756	1831.3741	11586.3	10689.55
917.2155	1833.0379	11578	10685.4
917.3555	1834.701	11504.5	10611.15
917.4954	1836.3633	11470.45	10579.6
917.6353	1838.0248	11465.35	10574.65
917.7751	1839.6856	11441.7	10550.65
917.915	1841.3457	11419.8	10526.5
918.0548	1843.005	11402.05	10508.8
918.1946	1844.6636	11368.05	10472.1
918.3344	1846.3214	11351	10458.45
918.4742	1847.9785	11316.25	10423.15
918.6139	1849.6349	11296.8	10401.5
918.7537	1851.2904	11294.25	10392.15
918.8934	1852.9453	11221.25	10324.6
919.0331	1854.5994	11222.9	10324.85
919.1727	1856.2528	11216.1	10317.25
919.3124	1857.9054	11168.9	10272.95
919.452	1859.5572	11177.3	10284
919.5916	1861.2083	11127.7	10232.95
919.7312	1862.8587	11129.05	10235.5
919.8708	1864.5084	11109.35	10214.55
920.0103	1866.1572	11058.95	10163.05
920.1498	1867.8054	11013.2	10117.8
920.2893	1869.4528	10998.35	10099.85
920.4288	1871.0994	10963.55	10068.1
920.5683	1872.7453	10932.9	10039.4
920.7077	1874.3905	10918.4	10004.65
920.8471	1876.0349	10875.4	9982.4
920.9865	1877.6786	10868.2	9970.4
921.1259	1879.3215	10834.55	9941.6
921.2653	1880.9637	10809.2	9915.9
921.4046	1882.6051	10810.7	9918.05
921.5439	1884.2458	10785.4	9892.7
921.6832	1885.8858	10740.2	9846.3
921.8225	1887.525	10706.85	9815.65
921.9617	1889.1634	10666.5	9773.35
922.101	1890.8011	10655.35	9760.45
922.2402	1892.4381	10607.9	9714.7
922.3794	1894.0743	10603.15	9711.15
922.5185	1895.7098	10591.75	9698.2
922.6577	1897.3446	10558.6	9663.25
922.7968	1898.9786	10534.5	9635.1
922.9359	1900.6118	10500.45	9608.5
923.075	1902.2443	10454.35	9559.05
923.214	1903.8761	10432	9541
923.3531	1905.5071	10356.45	9464.2
923.4921	1907.1374	10332.8	9436.75
923.6311	1908.7669	10322.15	9430.2
923.77	1910.3957	10302.35	9411.05
923.909	1912.0237	10248	9355.3
924.0479	1913.651	10224.65	9331.85
924.1868	1915.2776	10215.55	9323.75
924.3257	1916.9034	10163.2	9272.35
924.4646	1918.5285	10139.8	9249.1
924.6034	1920.1528	10072.4	9179.05
924.7422	1921.7764	10074.7	9183.9
924.881	1923.3992	10027	9133.85
925.0198	1925.0213	9969.5	9076.3
925.1586	1926.6427	9913.5	9021.45
925.2973	1928.2633	9948.7	8986.85
925.436	1929.8832	9906.75	9011.55
925.5747	1931.5023	9846.65	8954.4
925.7134	1933.1207	9837.65	8945.9
925.852	1934.7383	9809.45	8917
925.9906	1936.3552	9774.25	8881.9
926.1292	1937.9714	9723.25	8834.95
926.2678	1939.5868	9687.7	8792.95
926.4064	1941.2015	9644.5	8752.3
926.5449	1942.8154	9624.7	8729.75
926.6834	1944.4286	9568.05	8674.25
926.8219	1946.041	9531.5	8619.4
926.9604	1947.6528	9507.25	8612.4
927.0988	1949.2637	9489.15	8599.3
927.2372	1950.8739	9442.7	8550
927.3756	1952.4834	9434.45	8542.7
927.514	1954.0921	9415.25	8524.6
927.6523	1955.7001	9358.25	8463.35
927.7907	1957.3074	9338.95	8448.45
927.929	1958.9139	9290.55	8403.15
928.0673	1960.5197	9274.45	8383.05
928.2055	1962.1247	9228.05	8341.45
928.3438	1963.729	9203.4	8315.3
928.482	1965.3325	9179.85	8267.65
928.6202	1966.9353	9137.55	8251.15
928.7584	1968.5374	9104.6	8213.75
928.8965	1970.1387	9081.8	8192.45
929.0346	1971.7393	9056.05	8165.6
929.1727	1973.3392	9044.5	8155.15
929.3108	1974.9383	8980.1	8093.85
929.4489	1976.5366	8914.95	8025.8
929.5869	1978.1342	8948.65	8061.8
929.7249	1979.7311	8931.65	8043.65
929.8629	1981.3273	8896.85	8009.2
930.0009	1982.9227	8867.85	7980.9
930.1388	1984.5173	8836.05	7954.6
930.2767	1986.1112	8807.45	7922.3
930.4146	1987.7044	8780.1	7894.6
930.5525	1989.2968	8742.4	7852.95
930.6904	1990.8885	8741.35	7851.25
930.8282	1992.4795	8707.5	7820.6
930.966	1994.0697	8674.5	7789.45
931.1038	1995.6592	8655	7769.5
931.2415	1997.2479	8630.95	7742.7
931.3793	1998.8359	8594.8	7708.45
931.517	2000.4232	8576.6	7691.9
931.6547	2002.0097	8550.9	7670.05
931.7923	2003.5955	8500	7616.2
931.93	2005.1805	8505.4	7620.95
932.0676	2006.7648	8497	7611.6
932.2052	2008.3484	8443.5	7559.35
932.3427	2009.9312	8454.1	7569
932.4803	2011.5133	8399	7518.25
932.6178	2013.0946	8388.35	7505.45
932.7553	2014.6752	8359.6	7479.1
932.8928	2016.2551	8363.1	7477.6
933.0302	2017.8342	8304.55	7422.05
933.1676	2019.4126	8269	7387.95
933.305	2020.9902	8262.95	7381
933.4424	2022.5672	8217.75	7334.15
933.5798	2024.1433	8213.3	7325.05
933.7171	2025.7188	8194.75	7314.35
933.8544	2027.2935	8164.15	7279.9
933.9917	2028.8674	8117.5	7236.45
934.129	2030.4406	8093.25	7214.85
934.2662	2032.0131	8064.95	7187
934.4034	2033.5849	8073.85	7188.55
934.5406	2035.1559	8032.95	7151.35
934.6778	2036.7261	8036.85	7153.4
934.8149	2038.2957	8005.05	7119.9
934.952	2039.8645	7991.65	7108.45
935.0891	2041.4325	8008.6	7117.75
935.2262	2042.9998	7960.2	7077
935.3632	2044.5664	7915.7	7029.45
935.5002	2046.1323	7897.65	7016.25
935.6372	2047.6974	7868.05	6985.2
935.7742	2049.2617	7863.25	6981.1
935.9111	2050.8254	7847.65	6961.45
936.048	2052.3883	7839	6956.2
936.1849	2053.9504	7815.55	6931
936.3218	2055.5118	7809	6923.1
936.4586	2057.0725	7769.15	6883.8
936.5955	2058.6325	7722.65	6841.35
936.7323	2060.1917	7716.75	6835.05
936.869	2061.7502	7700.05	6816.15
937.0058	2063.3079	7661.1	6780.85
937.1425	2064.8649	7651.15	6766.4
937.2792	2066.4212	7606.5	6722.6
937.4159	2067.9767	7618.3	6734.65
937.5525	2069.5315	7594.45	6710.5
937.6891	2071.0856	7546.05	6663.95
937.8257	2072.6389	7512.8	6627.1
937.9623	2074.1915	7472.75	6593.25
938.0989	2075.7433	7448.25	6564.45
938.2354	2077.2945	7443.8	6560.35
938.3719	2078.8448	7413.75	6528.6
938.5084	2080.3945	7396.75	6513.55
938.6448	2081.9434	7381.85	6499.25
938.7812	2083.4916	7383.55	6496.55
938.9176	2085.039	7343.85	6454.2
939.054	2086.5857	7342	6451.95
939.1903	2088.1317	7311.55	6420.2
939.3267	2089.677	7276.75	6387.1
939.463	2091.2215	7262.1	6372.6
939.5992	2092.7652	7241.75	6350.6
939.7355	2094.3083	7230.45	6340.85
939.8717	2095.8506	7214.4	6328.75
940.0079	2097.3921	7216.45	6332.35
940.1441	2098.933	7188.5	6299.9
940.2802	2100.4731	7157	6271.4
940.4163	2102.0124	7157.3	6263.4
940.5524	2103.5511	7137.95	6251.15
940.6885	2105.089	7132	6241.55
940.8245	2106.6261	7128.8	6241.45
940.9606	2108.1626	7084.7	6196.9
941.0965	2109.6983	7081.75	6169.15
941.2325	2111.2332	7053.2	6164.75
941.3684	2112.7675	7021.85	6133.65
941.5044	2114.301	7015	6124.75
941.6403	2115.8337	7001.4	6113.2
941.7761	2117.3657	7014.55	6128.3
941.912	2118.897	6973.6	6085.95
942.0478	2120.4276	6955.8	6061.8
942.1835	2121.9575	6926.9	6037.45
942.3193	2123.4866	6931.75	6029.3
942.455	2125.0149	6900.7	6010.15
942.5907	2126.5426	6855	5969.45
942.7264	2128.0695	6829.75	5942.3
942.8621	2129.5956	6822.05	5940.6
942.9977	2131.1211	6823.65	5934.5
943.1333	2132.6458	6790.75	5906.3
943.2689	2134.1698	6777.1	5888.45
943.4044	2135.693	6775.05	5885.8
943.54	2137.2155	6748.85	5857.9
943.6755	2138.7373	6743.05	5853.15
943.8109	2140.2584	6716.6	5831.7
943.9464	2141.7787	6683.9	5795.9
944.0818	2143.2983	6666.45	5784.65
944.2172	2144.8171	6645	5765.35
944.3526	2146.3353	6654.75	5768.95
944.4879	2147.8527	6602.1	5720.35
944.6232	2149.3693	6594.15	5706.75
944.7585	2150.8853	6564.7	5676.25
944.8938	2152.4005	6552.5	5663.95
945.029	2153.9149	6562.3	5673.3
945.1642	2155.4287	6611.45	5615.6
945.2994	2156.9417	6539.9	5650.75
945.4346	2158.454	6521.1	5635.45
945.5697	2159.9655	6464.65	5579.35
945.7048	2161.4764	6472	5586.15
945.8399	2162.9865	6435.75	5550.5
945.9749	2164.4958	6408.65	5520.35
946.1099	2166.0045	6403.95	5515.85
946.2449	2167.5124	6403.4	5518.45
946.3799	2169.0195	6378.4	5492.3
946.5148	2170.526	6371.35	5485.4
946.6498	2172.0317	6361.85	5475.3
946.7846	2173.5367	6326.5	5441.25
946.9195	2175.0409	6317.25	5431.75
947.0543	2176.5445	6307.8	5421.1
947.1891	2178.0473	6283.35	5395.4
947.3239	2179.5494	6246.65	5354.4
947.4587	2181.0507	6224.85	5337.45
947.5934	2182.5513	6223.35	5337.35
947.7281	2184.0512	6213.85	5325.3
947.8628	2185.5504	6184.8	5300.15
947.9974	2187.0488	6153.7	5270.2
948.132	2188.5465	6138.75	5252.45
948.2666	2190.0435	6127.05	5240.9
948.4012	2191.5397	6111.75	5224.15
948.5357	2193.0353	6091.4	5203.55
948.6702	2194.5301	6082.3	5193.2
948.8047	2196.0241	6067.75	5175.6
948.9392	2197.5175	6034.1	5142.9
949.0736	2199.0101	6009.15	5115.2
949.208	2200.502	6003	5118.65
949.3424	2201.9931	5967.25	5081.85
949.4767	2203.4835	5932.15	5046.6
949.611	2204.9733	5911.05	5022
949.7453	2206.4622	5951.85	5067.75
949.8796	2207.9505	5901.7	5015
950.0138	2209.438	5857.2	4975.1
950.148	2210.9248	5852	4966.1
950.2822	2212.4109	5846.2	4961.85
950.4164	2213.8962	5833.85	4942.5
950.5505	2215.3809	5823.2	4932.9
950.6846	2216.8648	5791.15	4901.1
950.8186	2218.3479	5792.2	4897.45
950.9527	2219.8304	5774.6	4879.05
951.0867	2221.3121	5747.95	4853.8
951.2207	2222.7931	5731.85	4842.15
951.3546	2224.2733	5694.05	4804.85
951.4886	2225.7529	5693.35	4804.8
951.6225	2227.2317	5661.6	4774.15
951.7563	2228.7098	5658.55	4773.35
951.8902	2230.1872	5628.4	4743.3
952.024	2231.6638	5643.7	4759.2
952.1578	2233.1397	5604.2	4714.7
952.2916	2234.6149	5597.15	4712.95
952.4253	2236.0894	5586.05	4698.8
952.559	2237.5632	5565.15	4677.75
952.6927	2239.0362	5536.25	4650.85
952.8263	2240.5085	5532	4644.55
952.9599	2241.9801	5506.35	4620.1
953.0935	2243.4509	5500	4612.65
953.2271	2244.921	5461.8	4571.85
953.3606	2246.3904	5456.8	4567.05
953.4941	2247.8591	5435.05	4546.7
953.6276	2249.3271	5434.5	4547.7
953.7611	2250.7943	5410.6	4520.35
953.8945	2252.2608	5390.55	4501.55
954.0279	2253.7266	5357.75	4469.3
954.1612	2255.1917	5372.25	4484.35
954.2946	2256.656	5366.65	4480.05
954.4279	2258.1197	5332.85	4447.3
954.5612	2259.5826	5315.8	4426.75
954.6944	2261.0447	5287.65	4401.05
954.8276	2262.5062	5267.85	4378.15
954.9608	2263.9669	5290.35	4398.25
955.094	2265.4269	5277.15	4391.3
955.2271	2266.8862	5260.1	4370.7
955.3602	2268.3448	5248.45	4362.8
955.4933	2269.8026	5234.95	4348.85
955.6264	2271.2598	5222.95	4336.9
955.7594	2272.7162	5207.65	4322.15
955.8924	2274.1719	5200.35	4311.4
956.0253	2275.6268	5164.7	4273.7
956.1583	2277.0811	5160	4270.05
956.2912	2278.5346	5157.6	4270
956.4241	2279.9874	5169.35	4284.9
956.5569	2281.4395	5155.5	4271.6
956.6897	2282.8908	5119.25	4228.5
956.8225	2284.3414	5114.8	4225.4
956.9553	2285.7914	5095	4208.4
957.088	2287.2406	5071.65	4180.85
957.2207	2288.689	5075.35	4185.8
957.3534	2290.1368	5048.45	4155.3
957.486	2291.5838	5041.9	4145.8
957.6186	2293.0302	5023.75	4129.65
957.7512	2294.4758	5002.85	4112.4
957.8838	2295.9206	5009.15	4118.35
958.0163	2297.3648	4977.6	4090.05
958.1488	2298.8082	4958.65	4070.75
958.2813	2300.251	4956.85	4068.25
958.4137	2301.693	4950.35	4058.45
958.5461	2303.1343	4940.65	4050.75
958.6785	2304.5748	4908.15	4019.05
958.8108	2306.0147	4891.55	4004.8
958.9432	2307.4538	4882.2	3993.5
959.0754	2308.8922	4879.05	3996.25
959.2077	2310.3299	4868.55	3984.05
959.3399	2311.7669	4855.65	3968.6
959.4721	2313.2031	4849.25	3961.15
959.6043	2314.6387	4818.55	3929.25
959.7365	2316.0735	4804.45	3917.95
959.8686	2317.5076	4782.7	3894.9
960.0006	2318.941	4763.35	3873.85
960.1327	2320.3737	4771.55	3882.15
960.2647	2321.8056	4746.85	3853.6
960.3967	2323.2369	4734.75	3846.8
960.5287	2324.6674	4727.35	3838.1
960.6606	2326.0972	4701.55	3810.8
960.7925	2327.5263	4706.4	3819.4
960.9244	2328.9547	4676.85	3787.1
961.0562	2330.3823	4680.35	3791.65
961.1881	2331.8092	4671.45	3778.6
961.3198	2333.2355	4648.7	3757.05
961.4516	2334.661	4642.45	3751.5
961.5833	2336.0858	4632.4	3741.1
961.715	2337.5098	4619.05	3731.2
961.8467	2338.9332	4619.5	3732.55
961.9783	2340.3558	4602.6	3710.8
962.1099	2341.7778	4602.45	3716.8
962.2415	2343.199	4579.5	3689.25
962.373	2344.6195	4553.2	3666.85
962.5045	2346.0393	4549	3664.35
962.636	2347.4583	4532.15	3643.25
962.7675	2348.8767	4530.45	3641.7
962.8989	2350.2943	4520.8	3628.05
963.0303	2351.7113	4532.65	3639.65
963.1617	2353.1275	4501.5	3609.55
963.293	2354.543	4506.95	3590.85
963.4243	2355.9578	4488.75	3599.35
963.5556	2357.3718	4446.35	3559.15
963.6868	2358.7852	4438.75	3550.05
963.818	2360.1978	4429.8	3543.25
963.9492	2361.6098	4423.7	3536.85
964.0803	2363.021	4396.8	3504.4
964.2114	2364.4315	4408.3	3518.45
964.3425	2365.8413	4384.5	3492.75
964.4736	2367.2504	4375.7	3488.1
964.6046	2368.6587	4345	3457.55
964.7356	2370.0664	4333.25	3443.95
964.8666	2371.4733	4330.2	3440.5
964.9975	2372.8795	4301.15	3414.25
965.1284	2374.285	4277.3	3390.35
965.2593	2375.6899	4273.15	3386.2
965.3901	2377.0939	4253.2	3364.6
965.5209	2378.4973	4247.85	3362.6
965.6517	2379.9	4242.15	3356.5
965.7825	2381.3019	4214.65	3329
965.9132	2382.7032	4220.55	3337.05
966.0439	2384.1037	4200.45	3316.95
966.1745	2385.5035	4185.15	3297.75
966.3051	2386.9027	4166.55	3282.6
966.4357	2388.3011	4155.5	3267.65
966.5663	2389.6987	4148.15	3262.35
966.6968	2391.0957	4126.9	3241.55
966.8273	2392.492	4117.95	3232.6
966.9578	2393.8876	4098.4	3212.65
967.0882	2395.2824	4093.25	3206.55
967.2186	2396.6765	4071.9	3183.05
967.349	2398.07	4063.65	3176.65
967.4793	2399.4627	4065.85	3177.7
967.6097	2400.8547	4045.4	3156.5
967.7399	2402.246	4042.8	3149.65
967.8702	2403.6366	4019.1	3131.85
968.0004	2405.0265	4005.75	3120.1
968.1306	2406.4156	3995.4	3106.55
968.2607	2407.8041	3992.9	3104.95
968.3909	2409.1918	3971.85	3082.35
968.521	2410.5789	3954.2	3066.65
968.651	2411.9652	3937.6	3047.55
968.781	2413.3508	3928.8	3043.1
968.911	2414.7358	3920.1	3031.95
969.041	2416.12	3921.45	3034.1
969.1709	2417.5035	3886.65	3000.85
969.3008	2418.8863	3889.3	3000
969.4307	2420.2684	3879.3	2992
969.5606	2421.6497	3846.7	2958.5
969.6904	2423.0304	3842.7	2956.75
969.8201	2424.4104	3838.9	2951.45
969.9499	2425.7896	3823.45	2934.35
970.0796	2427.1682	3807.2	2921.95
970.2093	2428.546	3802.85	2916
970.3389	2429.9232	3796.45	2907.15
970.4685	2431.2996	3786.2	2900.25
970.5981	2432.6753	3779.85	2891.95
970.7277	2434.0503	3778.4	2888.35
970.8572	2435.4246	3762.9	2873.15
970.9867	2436.7982	3746.15	2855.6
971.1161	2438.1711	3739.55	2851.8
971.2456	2439.5433	3726.95	2839.15
971.375	2440.9148	3729.95	2837.05
971.5043	2442.2856	3719.7	2831.2
971.6336	2443.6557	3693.2	2803.25
971.7629	2445.025	3685.75	2799.1
971.8922	2446.3937	3679	2790
972.0214	2447.7617	3674.75	2787.65
972.1506	2449.1289	3667.35	2780.6
972.2798	2450.4955	3664.8	2775.25
972.4089	2451.8613	3656.25	2772.05
972.538	2453.2265	3650.3	2764
972.6671	2454.5909	3620.95	2733.85
972.7961	2455.9546	3612.45	2724.5
972.9251	2457.3177	3601.2	2715.6
973.0541	2458.68	3606.8	2718.85
973.1831	2460.0416	3611.35	2722.2
973.312	2461.4025	3604.2	2717.6
973.4408	2462.7627	3592.2	2694.35
973.5697	2464.1222	3581.8	2696.75
973.6985	2465.4811	3571.65	2684.95
973.8273	2466.8392	3563.05	2676.25
973.956	2468.1966	3550.95	2662.9
974.0847	2469.5533	3543.6	2653.55
974.2134	2470.9093	3534.25	2648.05
974.3421	2472.2645	3528.85	2639.85
974.4707	2473.6191	3526.8	2640.5
974.5993	2474.973	3510.1	2622.2
974.7278	2476.3262	3510.75	2621.25
974.8563	2477.6787	3500.3	2614.15
974.9848	2479.0305	3473.4	2587.35
975.1132	2480.3816	3471.15	2581.35
975.2417	2481.7319	3456.1	2569.7
975.37	2483.0816	3441.4	2554.45
975.4984	2484.4306	3426.05	2537.05
975.6267	2485.7789	3434.8	2549.05
975.755	2487.1264	3424.45	2538.4
975.8833	2488.4733	3409.3	2523.5
976.0115	2489.8195	3403.15	2509.2
976.1397	2491.165	3389.4	2501.25
976.2678	2492.5097	3388.85	2500.65
976.3959	2493.8538	3365.1	2479.2
976.524	2495.1972	3338.05	2452
976.6521	2496.5398	3338.45	2451.1
976.7801	2497.8818	3321.4	2433.7
976.9081	2499.2231	3325.85	2438.8
977.036	2500.5637	3319.8	2430.1
977.164	2501.9035	3309.1	2419.4
977.2918	2503.2427	3303.1	2412.6
977.4197	2504.5812	3326.9	2439.75
977.5475	2505.919	3295.9	2405.35
977.6753	2507.256	3289.8	2403.15
977.8031	2508.5924	3263.5	2375.05
977.9308	2509.9281	3262.5	2370.45
978.0585	2511.2631	3264.4	2379.2
978.1861	2512.5974	3248.5	2362.2
978.3137	2513.9309	3241.25	2355.45
978.4413	2515.2638	3239.35	2327.55
978.5689	2516.596	3218.35	2330.85
978.6964	2517.9275	3214.1	2327
978.8239	2519.2583	3205.25	2318.45
978.9513	2520.5884	3195.5	2304.7
979.0788	2521.9178	3183.7	2295.85
979.2062	2523.2465	3174.1	2288.65
979.3335	2524.5745	3165.7	2278.2
979.4608	2525.9018	3151.5	2264.45
979.5881	2527.2284	3153	2266.7
979.7154	2528.5543	3162.2	2273.4
979.8426	2529.8796	3136.65	2249.1
979.9698	2531.2041	3138.8	2253.8
980.0969	2532.5279	3127.8	2243.35
980.224	2533.851	3118.15	2231.75
980.3511	2535.1735	3116.85	2229.25
980.4781	2536.4952	3110.1	2222.15
980.6052	2537.8163	3101.65	2213.4
980.7321	2539.1366	3092.75	2203.6
980.8591	2540.4562	3083	2190.95
980.986	2541.7752	3081.85	2193.55
981.1129	2543.0935	3075.95	2189.45
981.2397	2544.411	3074.9	2185.2
981.3665	2545.7279	3066	2179.3
981.4933	2547.0441	3052.5	2165.45
981.62	2548.3596	3049.95	2159.75
981.7467	2549.6744	3048.9	2163.1
981.8734	2550.9885	3046.3	2149.7
982.0001	2552.3019	3033.8	2146.65
982.1267	2553.6146	3031.95	2142.85
982.2532	2554.9266	3027.2	2140.1
982.3798	2556.2379	3002.75	2112.05
982.5063	2557.5485	3010.65	2125.8
982.6327	2558.8585	3011	2116.8
982.7592	2560.1677	3002.9	2108.8
982.8856	2561.4762	2991.95	2103.45
983.0119	2562.7841	2983.2	2093.45
983.1383	2564.0913	2982.3	2096.85
983.2646	2565.3977	2970	2082.8
983.3908	2566.7035	2957.45	2069
983.517	2568.0086	2952.8	2065.3
983.6432	2569.313	2947.85	2060.4
983.7694	2570.6167	2961.25	2069.55
983.8955	2571.9197	2943.15	2054
984.0216	2573.222	2944.55	2052.4
984.1476	2574.5236	2935.85	2046
984.2737	2575.8246	2946.95	2057.25
984.3996	2577.1248	2930.65	2039.75
984.5256	2578.4244	2932.9	2044.25
984.6515	2579.7232	2920.05	2032.95
984.7774	2581.0214	2946	2028.45
984.9032	2582.3189	2918.75	2032.1
985.029	2583.6157	2922.3	2029.2
985.1548	2584.9118	2914.7	2027.65
985.2806	2586.2072	2887.95	1999.25
985.4063	2587.5019	2899.05	2011.4
985.5319	2588.7959	2895.75	2007.65
985.6576	2590.0893	2901	2011.25
985.7832	2591.3819	2883.75	1993.75
985.9087	2592.6739	2884.25	1997.3
986.0343	2593.9652	2871.55	1981.9
986.1597	2595.2557	2877.3	1989.3
986.2852	2596.5456	2869.8	1979.65
986.4106	2597.8348	2864.15	1976.6
986.536	2599.1234	2864	1975.6
986.6614	2600.4112	2836.6	1948.45
986.7867	2601.6983	2834.95	1944.45
986.912	2602.9848	2843.9	1953.2
987.0372	2604.2705	2843.15	1947.15
987.1624	2605.5556	2830.65	1943.1
987.2876	2606.84	2816.15	1930.15
987.4128	2608.1237	2818.05	1929.45
987.5379	2609.4067	2813.9	1925.35
987.6629	2610.689	2808.95	1912.9
987.788	2611.9707	2795	1901.95
987.913	2613.2516	2791.6	1897.45
988.0379	2614.5319	2778.85	1892
988.1629	2615.8115	2753.6	1865.95
988.2878	2617.0903	2749.95	1861.3
988.4126	2618.3685	2753.2	1865.7
988.5375	2619.6461	2752.4	1866.4
988.6622	2620.9229	2745.05	1855.9
988.787	2622.199	2733.05	1843.5
988.9117	2623.4745	2741.1	1851.75
989.0364	2624.7493	2735.1	1846.7
989.161	2626.0234	2731.35	1844.6
989.2857	2627.2968	2707.9	1820.15
989.4102	2628.5695	2709.55	1821.05
989.5348	2629.8415	2705.15	1817.95
989.6593	2631.1128	2694.6	1806.7
989.7837	2632.3835	2685	1797.65
989.9082	2633.6535	2682	1794.4
990.0326	2634.9228	2679.45	1792.3
990.1569	2636.1914	2663.65	1775.35
990.2812	2637.4593	2671.25	1782.5
990.4055	2638.7265	2669.1	1780.95
990.5298	2639.9931	2653.5	1766.25
990.654	2641.259	2646.3	1754.9
990.7782	2642.5242	2638	1747.45
990.9023	2643.7887	2637.25	1750.3
991.0264	2645.0525	2636.35	1748.75
991.1505	2646.3156	2630.85	1729.1
991.2745	2647.5781	2604.25	1717.5
991.3985	2648.8398	2616.8	1732.25
991.5225	2650.1009	2621.95	1709.05
991.6464	2651.3613	2596.5	1706.9
991.7703	2652.6211	2592.55	1705.45
991.8942	2653.8801	2588.8	1702.25
992.018	2655.1385	2582.8	1692
992.1418	2656.3961	2577.15	1688.2
992.2655	2657.6531	2577.45	1689.95
992.3892	2658.9094	2569.7	1681.2
992.5129	2660.1651	2565.95	1680.6
992.6366	2661.42	2564.4	1678.95
992.7602	2662.6743	2563.3	1673.65
992.8837	2663.9279	2566.15	1678.95
993.0073	2665.1808	2557	1669.9
993.1307	2666.433	2553.4	1665.55
993.2542	2667.6846	2548.8	1661.45
993.3776	2668.9354	2558.1	1669.1
993.501	2670.1856	2550.25	1661.25
993.6244	2671.4351	2548.25	1662.85
993.7477	2672.6839	2536.2	1647.1
993.8709	2673.9321	2542.35	1654.4
993.9942	2675.1795	2543.8	1657.15
994.1174	2676.4263	2538.55	1655.7
994.2405	2677.6724	2528.05	1639.65
994.3637	2678.9179	2530.2	1642.7
994.4868	2680.1626	2522.2	1634.25
994.6098	2681.4067	2527.95	1640.3
994.7328	2682.6501	2521.65	1635.25
994.8558	2683.8928	2519.65	1629.75
994.9788	2685.1348	2497.35	1611.15
995.1017	2686.3761	2503.85	1617.3
995.2245	2687.6168	2497.7	1612.25
995.3474	2688.8568	2480.8	1595.3
995.4702	2690.0961	2472.45	1586.6
995.5929	2691.3348	2471.45	1583.45
995.7156	2692.5727	2455.35	1569.15
995.8383	2693.81	2457.15	1569.5
995.961	2695.0466	2450.9	1566.05
996.0836	2696.2826	2449.05	1559.3
996.2062	2697.5178	2446.7	1557
996.3287	2698.7524	2436.75	1552.3
996.4512	2699.9863	2443.4	1553.95
996.5737	2701.2195	2446	1561.7
996.6961	2702.452	2443.85	1554.95
996.8185	2703.6839	2435.25	1549.25
996.9408	2704.9151	2433.2	1546.5
997.0631	2706.1456	2430.25	1542.6
997.1854	2707.3755	2425.85	1537.8
997.3077	2708.6046	2442.6	1554.45
997.4299	2709.8331	2446.95	1561.75
997.552	2711.0609	2444.45	1559.25
997.6742	2712.2881	2444.75	1557.65
997.7963	2713.5145	2461.7	1572.8
997.9183	2714.7403	2461.85	1575.3
998.0403	2715.9654	2466.3	1578.35
998.1623	2717.1899	2483.2	1579.8
998.2842	2718.4136	2477.8	1591.25
998.4062	2719.6367	2477.95	1591.9
998.528	2720.8591	2497.55	1605.95
998.6498	2722.0809	2490.3	1606.1
998.7716	2723.3019	2512.2	1623.35
998.8934	2724.5223	2504.3	1615.8
999.0151	2725.7421	2511.9	1623.1
999.1368	2726.9611	2509.3	1620.7
999.2584	2728.1795	2499.7	1606.25
999.38	2729.3972	2490.95	1605.35
999.5016	2730.6142	2478.3	1580.35
999.6231	2731.8306	2450	1563.45
999.7446	2733.0462	2437.55	1551
999.8661	2734.2612	2424.5	1534.7
999.9875	2735.4756	2399.3	1510.4
1000.1089	2736.6892	2361.7	1472.6
1000.2302	2737.9022	2347.4	1463.8
1000.3515	2739.1145	2334.35	1448.45
1000.4728	2740.3262	2331.6	1438.85
1000.594	2741.5372	2315.55	1431.75
1000.7152	2742.7475	2293.35	1408.15
1000.8363	2743.9571	2276.35	1389.7
1000.9575	2745.1661	2267.05	1376.4
1001.0785	2746.3744	2260.45	1375
1001.1996	2747.582	2234.4	1349.8
1001.3206	2748.7889	2232.65	1344.15
1001.4415	2749.9952	2212.8	1326.85
1001.5625	2751.2008	2212.6	1323.65
1001.6833	2752.4057	2216	1328.7
1001.8042	2753.61	2197.1	1310.95
1001.925	2754.8136	2189.1	1302.1
1002.0458	2756.0165	2191.5	1306.1
1002.1665	2757.2188	2186.15	1301.8
1002.2872	2758.4204	2196.15	1312.35
1002.4078	2759.6213	2189.3	1302.85
1002.5285	2760.8215	2181.3	1290.45
1002.649	2762.0211	2170.3	1283.25
1002.7696	2763.22	2164.9	1277.3
1002.8901	2764.4182	2168.6	1281.25
1003.0106	2765.6158	2158.4	1274.1
1003.131	2766.8127	2151.15	1266.35
1003.2514	2768.009	2146.65	1265
1003.3717	2769.2045	2146.15	1258.95
1003.492	2770.3994	2139	1252.55
1003.6123	2771.5936	2130.5	1243
1003.7325	2772.7872	2131	1246.45
1003.8527	2773.9801	2114.1	1228.1
1003.9729	2775.1723	2126.05	1223.55
1004.093	2776.3639	2103.5	1217.7
1004.2131	2777.5548	2107.15	1221.25
1004.3331	2778.745	2105.6	1220
1004.4531	2779.9346	2103.55	1219.5
1004.5731	2781.1235	2110.35	1223.8
1004.693	2782.3117	2102.7	1218.85
1004.8129	2783.4992	2106.9	1221.6
1004.9328	2784.6861	2105.25	1221.45
1005.0526	2785.8723	2112	1224.6
1005.1723	2787.0579	2111.65	1224.55
1005.2921	2788.2428	2126.8	1242.65
1005.4118	2789.427	2127.9	1242.15
1005.5314	2790.6106	2136.3	1251.9
1005.651	2791.7935	2130.1	1244.2
1005.7706	2792.9757	2141.7	1258.55
1005.8902	2794.1573	2162.25	1276.9
1006.0097	2795.3382	2164.95	1278.9
1006.1291	2796.5184	2183.2	1298.4
1006.2485	2797.698	2196.55	1309.7
1006.3679	2798.8769	2201.05	1315.7
1006.4873	2800.0551	2222.45	1339.3
1006.6066	2801.2327	2234.85	1348.2
1006.7258	2802.4096	2247.2	1362.65
1006.8451	2803.5859	2269.6	1385.75
1006.9642	2804.7615	2293.75	1410.7
1007.0834	2805.9364	2311.25	1424.85
1007.2025	2807.1106	2335.2	1449.75
1007.3216	2808.2842	2364.3	1481.6
1007.4406	2809.4572	2397.95	1512
1007.5596	2810.6294	2427	1542.15
1007.6785	2811.801	2457.55	1576
1007.7975	2812.972	2508.85	1625.05
1007.9163	2814.1423	2544.9	1659.6
1008.0352	2815.3119	2586.55	1702.15
1008.154	2816.4808	2647	1764
1008.2727	2817.6491	2682.4	1797.6
1008.3914	2818.8167	2729.25	1845.05
1008.5101	2819.9837	2780.55	1892.05
1008.6288	2821.15	2826.45	1942.65
1008.7474	2822.3157	2862.85	1980.65
1008.8659	2823.4807	2911.4	2028.15
1008.9844	2824.645	2957.2	2072.55
1009.1029	2825.8086	3000.85	2117.5
1009.2214	2826.9716	3017.85	2136.2
1009.3398	2828.134	3072.95	2191.45
1009.4581	2829.2957	3097.35	2215.8
1009.5764	2830.4567	3133.15	2250.95
1009.6947	2831.617	3136.75	2253.05
1009.813	2832.7767	3151.3	2267.05
1009.9312	2833.9358	3139.3	2256
1010.0493	2835.0941	3142.6	2257.9
1010.1675	2836.2519	3131.75	2245.8
1010.2855	2837.4089	3115.45	2232.35
1010.4036	2838.5653	3105.3	2220.1
1010.5216	2839.7211	3108.65	2227.7
1010.6396	2840.8761	3100.25	2216.15
1010.7575	2842.0306	3127.8	2243.1
1010.8754	2843.1843	3169.8	2285.9
1010.9932	2844.3374	3219.9	2336.85
1011.111	2845.4899	3279.5	2394.85
1011.2288	2846.6417	3362.45	2479.55
1011.3465	2847.7928	3446.45	2563.65
1011.4642	2848.9433	3515.65	2632.9
1011.5818	2850.0931	3600.4	2716.95
1011.6995	2851.2422	3675.95	2791.25
1011.817	2852.3907	3742.65	2857.4
1011.9345	2853.5385	3819.35	2931.9
1012.052	2854.6857	3873.85	2980.45
1012.1695	2855.8323	3912.9	3031.8
1012.2869	2856.9781	3945.8	3062.15
1012.4042	2858.1233	4000.05	3115.7
1012.5216	2859.2679	4059	3176.5
1012.6389	2860.4118	4096.05	3213.75
1012.7561	2861.555	4139.6	3251.55
1012.8733	2862.6976	4155.15	3270.35
1012.9905	2863.8395	4174.6	3290.4
1013.1076	2864.9808	4206.45	3324.7
1013.2247	2866.1214	4226.45	3345.25
1013.3417	2867.2614	4237.4	3353.05
1013.4587	2868.4007	4231.3	3345.75
1013.5757	2869.5393	4263.7	3378.35
1013.6926	2870.6773	4268.65	3380.55
1013.8095	2871.8146	4294.7	3407.85
1013.9263	2872.9513	4274.95	3390.45
1014.0431	2874.0874	4242.3	3360.95
1014.1599	2875.2227	4247.7	3364.2
1014.2766	2876.3574	4229.25	3346.4
1014.3933	2877.4915	4219.1	3337.8
1014.51	2878.6249	4167.4	3285.65
1014.6266	2879.7577	4170.9	3287.1
1014.7431	2880.8898	4146.15	3252.55
1014.8596	2882.0212	4116.1	3234.35
1014.9761	2883.152	4110.6	3226.4
1015.0925	2884.2821	4085.3	3205.2
1015.2089	2885.4116	4089.3	3207.3
1015.3253	2886.5405	4089.55	3208.9
1015.4416	2887.6686	4083.85	3198.6
1015.5579	2888.7962	4098	3217.85
1015.6741	2889.923	4085.4	3201.25
1015.7903	2891.0493	4098.1	3215.4
1015.9065	2892.1748	4120.65	3239
1016.0226	2893.2997	4121.9	3237.3
1016.1387	2894.424	4133.2	3250.25
1016.2547	2895.5476	4140.85	3258.05
1016.3707	2896.6706	4191.1	3311.15
1016.4866	2897.7929	4207.4	3323.35
1016.6025	2898.9145	4234.15	3350.5
1016.7184	2900.0355	4240.7	3360.25
1016.8342	2901.1559	4287	3402.35
1016.95	2902.2756	4323.85	3441.5
1017.0658	2903.3946	4357.6	3474.25
1017.1815	2904.513	4378.75	3493.55
1017.2971	2905.6308	4382.55	3499.1
1017.4127	2906.7479	4404.9	3521.15
1017.5283	2907.8643	4434.3	3551.55
1017.6439	2908.9801	4447.8	3565.55
1017.7594	2910.0953	4447.15	3566.4
1017.8748	2911.2098	4456.55	3570.55
1017.9902	2912.3236	4465.1	3575.3
1018.1056	2913.4368	4441.15	3556.2
1018.2209	2914.5494	4397.55	3514.1
1018.3362	2915.6613	4387.85	3501.4
1018.4515	2916.7725	4349	3465.25
1018.5667	2917.8831	4306.35	3423.75
1018.6819	2918.9931	4276.55	3393.65
1018.797	2920.1024	4255.8	3370.3
1018.9121	2921.211	4238.25	3354.7
1019.0271	2922.319	4207.6	3323.4
1019.1421	2923.4264	4200.35	3319.2
1019.2571	2924.5331	4188.3	3306.35
1019.372	2925.6391	4166.3	3285.9
1019.4869	2926.7445	4154.95	3273.75
1019.6017	2927.8493	4133	3250.65
1019.7165	2928.9534	4135.7	3252.15
1019.8313	2930.0569	4121.45	3238.55
1019.946	2931.1597	4100.05	3216.05
1020.0606	2932.2619	4103	3219.9
1020.1753	2933.3634	4098.75	3216.35
1020.2899	2934.4643	4086.35	3196.35
1020.4044	2935.5645	4061	3170.95
1020.5189	2936.6641	4017.85	3132.2
1020.6334	2937.763	3969	3087.2
1020.7478	2938.8613	3925.55	3042.35
1020.8622	2939.959	3858.55	2970.8
1020.9765	2941.056	3786.5	2903.75
1021.0908	2942.1523	3697.4	2813.25
1021.2051	2943.248	3598.3	2714.95
1021.3193	2944.3431	3495.1	2613.5
1021.4334	2945.4375	3386.2	2504.1
1021.5476	2946.5313	3294.2	2411.7
1021.6617	2947.6244	3183.15	2300.1
1021.7757	2948.7169	3075.3	2192.3
1021.8897	2949.8087	2982.1	2100.5
1022.0037	2950.8999	2880.2	1999.5
1022.1176	2951.9904	2813.95	1932.1
1022.2315	2953.0803	2745.5	1863.65
1022.3453	2954.1696	2668.45	1786.3
1022.4591	2955.2582	2615.05	1736.7
1022.5728	2956.3462	2568.2	1685.4
1022.6865	2957.4335	2528.05	1646
1022.8002	2958.5202	2499.5	1615.2
1022.9138	2959.6062	2466.7	1584
1023.0274	2960.6916	2441.25	1557.85
1023.141	2961.7764	2411.7	1529.75
1023.2545	2962.8605	2400.25	1517.35
1023.3679	2963.9439	2380	1500.15
1023.4813	2965.0267	2374.4	1489.6
1023.5947	2966.1089	2388.05	1484.05
1023.708	2967.1905	2361.85	1480.15
1023.8213	2968.2714	2358.05	1477.9
1023.9346	2969.3516	2358.7	1479.2
1024.0478	2970.4312	2361.75	1470.8
1024.1609	2971.5102	2345.95	1464
1024.274	2972.5885	2351.8	1469.45
1024.3871	2973.6662	2354.8	1468.85
1024.5002	2974.7432	2351.25	1471.85
1024.6132	2975.8196	2336.65	1453.75
1024.7261	2976.8954	2313.1	1433.2
1024.839	2977.9705	2312.95	1431.4
1024.9519	2979.045	2299.55	1419
1025.0647	2980.1188	2275.1	1395.95
1025.1775	2981.192	2256.45	1376.5
1025.2902	2982.2645	2234.2	1351.55
1025.4029	2983.3364	2206.05	1324.95
1025.5156	2984.4077	2161.4	1280.8
1025.6282	2985.4783	2153.45	1265.45
1025.7407	2986.5483	2109.55	1227.9
1025.8532	2987.6177	2073.75	1193.85
1025.9657	2988.6864	2036.2	1154.45
1026.0782	2989.7545	2003	1120
1026.1906	2990.8219	1971.6	1092.65
1026.3029	2991.8887	1929.15	1045
1026.4152	2992.9548	1896.1	1013.65
1026.5275	2994.0204	1867.65	986.75
1026.6397	2995.0852	1838.05	956.15
1026.7519	2996.1495	1816.55	933.55
1026.864	2997.2131	1787.55	908.75
1026.9761	2998.276	1766.35	885.25
1027.0882	2999.3383	1750.85	870.45
1027.2002	3000.4	1731.95	849.3
1027.3122	3001.4611	1707.5	825.8
1027.4241	3002.5215	1696.15	816.1
1027.536	3003.5812	1681.65	802.15
1027.6478	3004.6404	1664.05	783
1027.7596	3005.6989	1658.95	773.3
1027.8714	3006.7567	1651.3	770.3
1027.9831	3007.8139	1651	753.6
1028.0947	3008.8705	1630.7	750.15
1028.2064	3009.9264	1648.75	750.15
1028.3179	3010.9818	1619.75	739.7
1028.4295	3012.0364	1612	730.65
1028.541	3013.0905	1611.4	731.3
1028.6524	3014.1439	1611.45	731.65
1028.7638	3015.1966	1616.95	736.45
1028.8752	3016.2487	1607.15	725.05
1028.9865	3017.3002	1612.8	726
1029.0978	3018.3511	1603.85	724.9
1029.209	3019.4013	1601.35	718.95
1029.3202	3020.4509	1603.4	722.8
1029.4314	3021.4998	1596.95	716.35
1029.5425	3022.5481	1599.15	718.55
1029.6535	3023.5958	1602.9	722.8
1029.7645	3024.6428	1600.05	718.75
1029.8755	3025.6892	1608.55	727.25
1029.9864	3026.735	1602.5	721.15
1030.0973	3027.7802	1606.55	725.5
1030.2082	3028.8247	1601.6	721
1030.319	3029.8685	1602.4	719.7
1030.4297	3030.9118	1606.35	725
1030.5404	3031.9544	1605	726.6
1030.6511	3032.9963	1617.25	735.95
1030.7617	3034.0376	1622.6	742.2
1030.8723	3035.0783	1621.35	739.95
1030.9829	3036.1184	1629.95	747.2
1031.0934	3037.1578	1626.85	746.1
1031.2038	3038.1966	1635.5	754.95
1031.3142	3039.2348	1637.25	757.6
1031.4246	3040.2723	1638.15	747.7
1031.5349	3041.3092	1626.8	746.8
1031.6452	3042.3455	1623.05	741.75
1031.7554	3043.3811	1614.5	734
1031.8656	3044.4161	1614.1	734.3
1031.9758	3045.4505	1605.7	725.65
1032.0859	3046.4842	1592.55	712.4
1032.1959	3047.5173	1593.8	713
1032.3059	3048.5498	1581.7	699.8
1032.4159	3049.5816	1584.7	703.85
1032.5258	3050.6128	1579.95	698.95
1032.6357	3051.6434	1566.6	686.25
1032.7455	3052.6734	1546.55	666.3
1032.8553	3053.7027	1558.45	679.1
1032.9651	3054.7314	1539.2	658.15
1033.0748	3055.7594	1537.5	656.25
1033.1845	3056.7868	1524.05	641.65
1033.2941	3057.8136	1515.55	635.6
1033.4037	3058.8398	1509.25	629.8
1033.5132	3059.8653	1502.3	622.95
1033.6227	3060.8902	1503.15	623.9
1033.7321	3061.9145	1491.9	613
1033.8415	3062.9381	1482.6	601.6
1033.9509	3063.9612	1499.65	604.7
1034.0602	3064.9835	1477.15	596.65
1034.1694	3066.0053	1465.55	583.35
1034.2787	3067.0264	1456.45	576.35
1034.3878	3068.0469	1452.7	570.6
1034.497	3069.0668	1445.65	562.05
1034.6061	3070.086	1435.5	555.25
1034.7151	3071.1046	1424.65	542.5
1034.8241	3072.1226	1419.95	539.6
1034.9331	3073.1399	1408.8	529.5
1035.042	3074.1567	1394.2	513.2
1035.1508	3075.1727	1387.6	504.8
1035.2597	3076.1882	1374.1	493.6
1035.3684	3077.203	1370.9	491.65
1035.4772	3078.2173	1352.3	470.15
1035.5859	3079.2308	1352.35	467.8
1035.6945	3080.2438	1334.1	451.75
1035.8031	3081.2561	1335.5	454.65
1035.9117	3082.2678	1320.25	438.35
1036.0202	3083.2789	1309.65	429.3
1036.1286	3084.2893	1305.25	425.5
1036.2371	3085.2991	1305.25	422.65
1036.3454	3086.3083	1302.25	417.2
1036.4538	3087.3169	1290.1	411.05
1036.562	3088.3248	1287.65	405.35
1036.6703	3089.3321	1280.25	398.65
1036.7785	3090.3388	1270.3	391.05
1036.8866	3091.3449	1264.95	385.85
1036.9948	3092.3503	1265.1	379.7
1037.1028	3093.3551	1255.8	378.05
1037.2108	3094.3593	1256.4	378.55
1037.3188	3095.3629	1247.9	369.35
1037.4267	3096.3658	1246.9	366.15
1037.5346	3097.3681	1238.1	358.05
1037.6425	3098.3698	1243	361.3
1037.7503	3099.3708	1242.5	354.7
1037.858	3100.3713	1232.05	353.8
1037.9657	3101.3711	1233.3	352.05
1038.0734	3102.3702	1358.1	345.1
1038.181	3103.3688	1230.75	348.35
1038.2886	3104.3667	1215.35	336.65
1038.3961	3105.364	1219.85	341.9
1038.5036	3106.3607	1211.6	329.5
1038.611	3107.3568	1209.85	328.6
1038.7184	3108.3522	1209.4	328.8
1038.8257	3109.347	1208.55	326.6
1038.933	3110.3412	1209.25	327.15
1039.0403	3111.3348	1199.85	319.55
1039.1475	3112.3277	1196.6	317.5
1039.2547	3113.32	1194.15	314.2
1039.3618	3114.3117	1195.55	316.4
1039.4689	3115.3028	1194.5	314.65
1039.5759	3116.2932	1186.35	305.2
1039.6829	3117.2831	1199.75	313.5
1039.7898	3118.2723	1185.1	306.35
1039.8967	3119.2608	1182.2	301.6
1040.0035	3120.2488	1181.9	302
1040.1103	3121.2361	1184.1	304.55
1040.2171	3122.2229	1182.25	303.4
1040.3238	3123.209	1172.7	293.2
1040.4305	3124.1944	1179.15	298.8
1040.5371	3125.1793	1179.15	297.3
1040.6437	3126.1635	1169.05	291.85
1040.7502	3127.1471	1165.25	286.7
1040.8567	3128.1301	1170.75	290.4
1040.9631	3129.1125	1165.9	284.65
1041.0695	3130.0942	1162.95	283
1041.1759	3131.0753	1172.9	284.2
1041.2822	3132.0558	1161.05	278.85
1041.3884	3133.0357	1163.45	284
1041.4946	3134.015	1160.45	277.35
1041.6008	3134.9936	1157.65	277.9
1041.7069	3135.9716	1176.7	277.6
1041.813	3136.949	1152.1	273.05
1041.919	3137.9258	1169.25	272.2
1042.025	3138.902	1156.15	271.25
1042.1309	3139.8775	1145.5	266.25
1042.2368	3140.8524	1147.1	268.15
1042.3427	3141.8267	1143.65	261.75
1042.4485	3142.8004	1142.75	263.35
1042.5542	3143.7735	1150.3	262.8
1042.6599	3144.7459	1136.85	255.35
1042.7656	3145.7178	1136.05	253.75
1042.8712	3146.689	1136.3	258.5
1042.9768	3147.6596	1129.8	247.6
1043.0823	3148.6295	1134.7	254.2
1043.1878	3149.5989	1129.6	250.85
1043.2932	3150.5676	1126.55	249.8
1043.3986	3151.5357	1127.3	248.9
1043.5039	3152.5032	1125.4	246.8
1043.6092	3153.4701	1122.7	242.25
1043.7145	3154.4364	1121.3	241.65
1043.8197	3155.402	1119	238.5
1043.9248	3156.367	1122.95	240.95
1044.03	3157.3315	1144.75	238.8
1044.135	3158.2952	1113.4	233.15
1044.24	3159.2584	1115.7	237.25
1044.345	3160.221	1107.7	226.75
1044.4499	3161.1829	1113.8	235
1044.5548	3162.1442	1109.95	229.85
1044.6596	3163.105	1106.95	228.2
1044.7644	3164.065	1102.3	222.2
1044.8692	3165.0245	1106.5	225.1
1044.9739	3165.9834	1099.75	221.15
1045.0785	3166.9416	1103.55	225.4
1045.1831	3167.8993	1105.05	225.2
1045.2877	3168.8563	1100.15	221.35
1045.3922	3169.8127	1096.2	217.05
1045.4966	3170.7684	1098.05	217.2
1045.6011	3171.7236	1095.8	215
1045.7054	3172.6782	1093.6	213
1045.8098	3173.6321	1095.4	215.05
1045.914	3174.5854	1100	217.75
1046.0183	3175.5381	1092.5	213.85
1046.1224	3176.4902	1093.75	216.5
1046.2266	3177.4417	1086	208.25
1046.3307	3178.3926	1084.4	205.7
1046.4347	3179.3428	1086.7	210.2
1046.5387	3180.2924	1078.6	198.55
1046.6427	3181.2415	1085.5	206.85
1046.7466	3182.1899	1086.15	202.65
1046.8504	3183.1377	1078.65	198.95
1046.9542	3184.0848	1079.8	198.15
1047.058	3185.0314	1077.5	198.05
1047.1617	3185.9773	1076.95	197.3
1047.2654	3186.9227	1075.65	193.75
1047.369	3187.8674	1074.15	195.65
1047.4726	3188.8115	1078.25	195
1047.5761	3189.755	1076.25	198.6
1047.6796	3190.6979	1070.65	194.2
1047.783	3191.6402	1071.4	193.8
1047.8864	3192.5818	1074.2	194.45
1047.9898	3193.5229	1084.75	191.9
1048.0931	3194.4633	1070.75	192.4
1048.1963	3195.4031	1067.15	188.15
1048.2995	3196.3423	1064.7	187.05
1048.4027	3197.2809	1069	187.75
1048.5058	3198.2189	1061.2	182.65
1048.6089	3199.1563	1070.6	185.3
1048.7119	3200.0931	1061.7	185.05
1048.8148	3201.0292	1061.85	182.95
1048.9178	3201.9648	1058.15	178.8
1049.0206	3202.8997	1062.8	180.05
1049.1235	3203.834	1057.25	178.15
1049.2262	3204.7677	1058.8	178.6
1049.329	3205.7008	1058.65	176.9
1049.4317	3206.6333	1054.1	175.4
1049.5343	3207.5652	1060.4	179.75
1049.6369	3208.4964	1053.3	174.55
1049.7394	3209.4271	1053.25	174.6
1049.8419	3210.3571	1053.45	175.4
1049.9444	3211.2865	1051.8	171.8
1050.0468	3212.2154	1049.9	170.3
1050.1491	3213.1436	1052.15	170.4
1050.2514	3214.0712	1055.55	170.55
1050.3537	3214.9982	1052.55	173.85
1050.4559	3215.9246	1050.25	168.6
1050.5581	3216.8503	1048.4	170.65
1050.6602	3217.7755	1044.6	166.1
1050.7623	3218.7001	1042.9	164.35
1050.8643	3219.624	1043.85	164.6
1050.9663	3220.5473	1042.4	163.9
1051.0682	3221.4701	1042.8	161.95
1051.1701	3222.3922	1042.65	164.85
1051.2719	3223.3137	1038.15	158.7
1051.3737	3224.2346	1039.3	160.75
1051.4754	3225.1549	1035.15	154.25
1051.5771	3226.0746	1034.1	155.15
1051.6788	3226.9937	1037.25	158.75
1051.7804	3227.9121	1033.5	155.4
1051.8819	3228.83	1037.9	161
1051.9834	3229.7473	1032.25	153.7
1052.0849	3230.6639	1034.2	155.95
1052.1863	3231.5799	1031.2	150.6
1052.2876	3232.4954	1034.9	152.9
1052.3889	3233.4102	1029.3	150.45
1052.4902	3234.3244	1031.35	151.1
1052.5914	3235.238	1024.1	146.85
1052.6926	3236.151	1057.9	154.1
1052.7937	3237.0634	1025.8	147.85
1052.8948	3237.9752	1029.25	151.85
1052.9958	3238.8864	1028.4	148.75
1053.0968	3239.797	1024.4	145.1
1053.1977	3240.7069	1023.15	143.5
1053.2986	3241.6163	1023.05	141.45
1053.3994	3242.5251	1017.2	140.4
1053.5002	3243.4332	1022.5	145
1053.6009	3244.3408	1018	139.05
1053.7016	3245.2477	1018.55	140.25
1053.8022	3246.154	1020.6	142
1053.9028	3247.0598	1021.1	141.55
1054.0034	3247.9649	1013.9	135.9
1054.1039	3248.8694	1014.85	137.5
1054.2043	3249.7733	1016.75	138.5
1054.3047	3250.6766	1013.95	134.9
1054.4051	3251.5793	1012.95	132.15
1054.5054	3252.4814	1009.9	132.15
1054.6056	3253.3829	1008.05	130.25
1054.7058	3254.2838	1012.55	133.55
1054.806	3255.1841	1006.5	129.6
1054.9061	3256.0838	1004.25	125.2
1055.0061	3256.9829	1007.15	129.3
1055.1062	3257.8814	1009.3	127.95
1055.2061	3258.7792	1006	126.55
1055.306	3259.6765	1003.25	126
1055.4059	3260.5731	1000.7	123.5
1055.5057	3261.4692	1002.75	123.15
1055.6055	3262.3647	1000.75	119.9
1055.7052	3263.2595	998.4	119
1055.8049	3264.1538	992.35	115.05
1055.9045	3265.0474	993.4	115.2
1056.0041	3265.9404	991.95	115.55
1056.1036	3266.8329	990.9	112.95
1056.2031	3267.7247	998	111.1
1056.3025	3268.616	986.15	109.35
1056.4019	3269.5066	983.75	104.7
1056.5013	3270.3966	983.65	103.6
1056.6005	3271.286	973.55	95.8
