Software Version:	3.9.2.0
Unit SN:	10000200
Spectrometer SN:	6960
Date:	3/26/2024 2:23:05 PM
Data Line Index:	25
Spectral Points:	2048
Integration time (ms):	125
Averages:	20
Delay (ms):	30000
Sequence Number:	1
Processing:	dark subtract
Laser Power (mW):	300
Laser Current (mA):	819
Laser Diode Temp (C):	25.1
Laser Case Temp (C):	27.6
System Temp (C):	27.6
Spectrometer Temp (C):	25.6
CCD Temp (C):	-0.006
Secondary Temp (C):	20.01
Heatsink Temp (C):	23.241
CCDPCB Temp (C):	37.096
SecondaryPCB Temp (C):	34.617

Wavelength	RamanShift	Raw Counts	Dark Subtracted
787.061	30.1047	675	265.3
787.2016	32.3739	689.05	282.95
787.3422	34.6426	706	298.15
787.4828	36.9109	722.45	310.35
787.6235	39.1787	748	332.65
787.7642	41.4461	771.05	351.35
787.9049	43.7131	797.55	374.45
788.0456	45.9796	828.3	400
788.1863	48.2456	859.45	428.05
788.3271	50.5112	888.85	451.9
788.4679	52.7764	909.15	472.3
788.6087	55.0411	947.4	506.35
788.7496	57.3054	989.45	541.25
788.8904	59.5692	1020.45	569.8
789.0313	61.8326	1065.05	610.8
789.1722	64.0955	1108.5	650.95
789.3132	66.3579	1156.7	695.6
789.4541	68.6199	1221.65	757.2
789.5951	70.8815	1331.4	865.15
789.7361	73.1426	1562.05	1090.55
789.8771	75.4032	2112.65	1634.3
790.0181	77.6634	3521.2	3035.5
790.1592	79.9231	7083.45	6589.15
790.3003	82.1824	15267.5	14756.95
790.4414	84.4412	36523.1	35977.1
790.5825	86.6995	63974.3	63378.5
790.7237	88.9574	65535	64899.85
790.8648	91.2148	65535	64871.1
791.006	93.4717	65535	64847.75
791.1472	95.7282	65535	64839.8
791.2885	97.9842	65535	64832.85
791.4297	100.2398	65535	64831.6
791.571	102.4949	65535	64827.75
791.7123	104.7495	65535	64824.25
791.8536	107.0036	65535	64825.1
791.9949	109.2573	65535	64830.35
792.1363	111.5105	65535	64820.95
792.2777	113.7632	65535	64821.1
792.4191	116.0154	65535	64807.45
792.5605	118.2672	65535	64815.6
792.7019	120.5185	65535	64815.2
792.8434	122.7693	65535	64815.5
792.9849	125.0197	65535	64808.3
793.1264	127.2696	65535	64807.75
793.2679	129.519	65535	64803.75
793.4094	131.7679	65535	64798.5
793.551	134.0163	65535	64793.05
793.6926	136.2642	65535	64785.55
793.8342	138.5117	65535	64783.35
793.9758	140.7587	65535	64784.15
794.1175	143.0052	65535	64783.3
794.2591	145.2512	65535	64783.05
794.4008	147.4967	65535	64788
794.5425	149.7417	65535	64783.75
794.6842	151.9863	65535	64779.6
794.826	154.2304	65535	64775.2
794.9677	156.4739	65535	64769.6
795.1095	158.717	65535	64768.5
795.2513	160.9596	65535	64760.25
795.3931	163.2017	65535	64762.9
795.535	165.4433	65535	64763.55
795.6768	167.6844	65535	64759.1
795.8187	169.925	65535	64756.9
795.9606	172.1651	65535	64757.85
796.1025	174.4047	65535	64758.25
796.2445	176.6439	65535	64756.1
796.3864	178.8825	65535	64746.95
796.5284	181.1206	65535	64741.05
796.6704	183.3582	65535	64740.1
796.8124	185.5954	65535	64734.45
796.9544	187.832	65535	64738.05
797.0965	190.0681	65535	64734.35
797.2386	192.3037	65535	64732.2
797.3806	194.5388	65535	64729.85
797.5228	196.7734	65535	64722.25
797.6649	199.0075	65535	64717.15
797.807	201.2411	65535	64715
797.9492	203.4742	65535	64713.55
798.0914	205.7068	65535	64716.5
798.2336	207.9389	65535	64718.9
798.3758	210.1704	65535	64716
798.518	212.4015	65535	64709.7
798.6603	214.632	65535	64706.9
798.8025	216.862	65535	64716.15
798.9448	219.0915	65535	64726.95
799.0871	221.3205	65535	64727.2
799.2294	223.549	65535	64731.85
799.3718	225.777	65535	64731.25
799.5141	228.0044	65535	64727.5
799.6565	230.2314	65535	64738.75
799.7989	232.4578	65535	64729.75
799.9413	234.6837	65535	64727.55
800.0837	236.909	65535	64723.7
800.2262	239.1339	65535	64699.55
800.3687	241.3582	65535	64712.9
800.5111	243.582	65535	64679.65
800.6536	245.8053	65535	64697.15
800.7961	248.0281	65535	64700.6
800.9387	250.2503	65535	64699.9
801.0812	252.472	65535	64684.85
801.2238	254.6932	65535	64689.7
801.3664	256.9139	65535	64686.75
801.509	259.134	65535	64684.05
801.6516	261.3536	65535	64685.05
801.7942	263.5727	65535	64681.5
801.9369	265.7912	65535	64683.05
802.0795	268.0092	65535	64679.7
802.2222	270.2267	65535	64683.7
802.3649	272.4436	65535	64680.3
802.5076	274.6601	65535	64675.8
802.6504	276.8759	65535	64681.1
802.7931	279.0913	65535	64676.85
802.9359	281.3061	65535	64678.05
803.0787	283.5204	65535	64672.35
803.2215	285.7341	65535	64673.35
803.3643	287.9473	65535	64658.3
803.5071	290.16	65535	64662.85
803.6499	292.3721	65535	64672.95
803.7928	294.5837	65535	64668.85
803.9357	296.7947	65535	64672.25
804.0786	299.0052	65535	64667.55
804.2215	301.2152	65535	64668.55
804.3644	303.4246	65535	64668.35
804.5074	305.6334	65535	64672.1
804.6503	307.8418	65535	64665.3
804.7933	310.0495	65535	64666.3
804.9363	312.2568	65535	64664.9
805.0793	314.4635	65535	64668.1
805.2223	316.6696	65535	64662.25
805.3653	318.8752	65535	64652.05
805.5084	321.0802	65535	64657.5
805.6514	323.2847	65535	64659.45
805.7945	325.4887	65535	64657.8
805.9376	327.692	65535	64657.75
806.0807	329.8949	65535	64657.65
806.2238	332.0972	65535	64656.4
806.367	334.2989	65535	64647.8
806.5101	336.5001	65535	64653.95
806.6533	338.7007	65535	64651.85
806.7965	340.9008	65535	64648.5
806.9397	343.1003	65535	64643
807.0829	345.2992	65535	64649.05
807.2261	347.4976	65535	64648.75
807.3693	349.6955	65535	64644.05
807.5126	351.8927	65535	64640.1
807.6559	354.0895	65535	64633.25
807.7991	356.2856	65535	64641.85
807.9424	358.4812	65535	64647.05
808.0857	360.6763	65535	64641
808.2291	362.8707	65535	64640.3
808.3724	365.0646	65535	64640.65
808.5158	367.258	65535	64632.75
808.6591	369.4508	65535	64634.65
808.8025	371.643	65535	64635.9
808.9459	373.8346	65535	64629.65
809.0893	376.0257	65535	64628.7
809.2327	378.2162	65535	64631.25
809.3762	380.4062	65535	64630.5
809.5196	382.5956	65535	64625.4
809.6631	384.7844	65535	64626.85
809.8066	386.9726	65535	64626.2
809.9501	389.1603	65535	64626.15
810.0936	391.3474	65535	64594.35
810.2371	393.5339	65535	64623.7
810.3806	395.7199	65535	64630.5
810.5241	397.9052	65535	64640.05
810.6677	400.09	65535	64638.9
810.8113	402.2743	65535	64641.5
810.9548	404.4579	65535	64642.3
811.0984	406.641	65535	64643.15
811.2421	408.8235	65535	64641.85
811.3857	411.0054	65535	64638.55
811.5293	413.1868	65535	64633.8
811.673	415.3675	65535	64631.25
811.8166	417.5477	65535	64634.85
811.9603	419.7273	65535	64632.5
812.104	421.9064	65535	64626.1
812.2477	424.0848	65535	64628.6
812.3914	426.2627	65535	64625.35
812.5351	428.4399	65535	64625.1
812.6788	430.6166	65535	64614.55
812.8226	432.7928	65535	64621.8
812.9663	434.9683	65535	64621.45
813.1101	437.1432	65535	64624.65
813.2539	439.3176	65535	64633.2
813.3977	441.4914	65535	64626.75
813.5415	443.6645	65535	64624
813.6853	445.8371	65535	64623.8
813.8291	448.0091	65535	64622.85
813.973	450.1806	65535	64624.9
814.1168	452.3514	65535	64626.35
814.2607	454.5216	65535	64620.15
814.4046	456.6913	65535	64623.8
814.5485	458.8603	65535	64623.3
814.6924	461.0288	65535	64629.2
814.8363	463.1967	65535	64629.65
814.9802	465.3639	65535	64626
815.1241	467.5306	65535	64626.1
815.2681	469.6967	65535	64628.95
815.412	471.8622	65535	64630.25
815.556	474.0271	65535	64625.15
815.7	476.1914	65535	64618.1
815.844	478.3551	65535	64620.45
815.988	480.5182	65535	64620.9
816.132	482.6807	65535	64629.2
816.276	484.8426	65535	64632.8
816.4201	487.0039	65535	64632.75
816.5641	489.1647	65535	64623.15
816.7082	491.3248	65535	64624.85
816.8522	493.4843	65535	64627.95
816.9963	495.6432	65535	64625.15
817.1404	497.8015	65535	64616.65
817.2845	499.9592	65535	64610.3
817.4286	502.1163	65535	64617.1
817.5727	504.2728	65535	64614.05
817.7168	506.4287	65535	64631.6
817.861	508.5839	65535	64627.95
818.0051	510.7386	65535	64624.25
818.1493	512.8927	65535	64615.1
818.2935	515.0461	65535	64615.5
818.4377	517.199	65535	64613.2
818.5818	519.3512	65535	64611.95
818.726	521.5029	65535	64611.6
818.8703	523.6539	65535	64617
819.0145	525.8043	65535	64613
819.1587	527.9541	65535	64609.8
819.303	530.1033	65535	64610.7
819.4472	532.2519	65535	64611.05
819.5915	534.3999	65535	64609.3
819.7357	536.5472	65535	64614
819.88	538.694	65535	64616.7
820.0243	540.8401	65535	64607.65
820.1686	542.9856	65535	64598.8
820.3129	545.1305	65535	64598.85
820.4572	547.2748	65535	64592.05
820.6016	549.4185	65535	64597.9
820.7459	551.5615	65535	64594.4
820.8902	553.704	65535	64598.8
821.0346	555.8458	65535	64600.8
821.1789	557.987	65535	64603.15
821.3233	560.1276	65535	64602.15
821.4677	562.2675	65535	64601.1
821.6121	564.4069	65535	64604.55
821.7565	566.5456	65535	64603.7
821.9009	568.6837	65535	64605.75
822.0453	570.8212	65535	64609.25
822.1897	572.958	65535	64605.45
822.3342	575.0942	65535	64609.95
822.4786	577.2299	65535	64615.5
822.6231	579.3648	65535	64626.2
822.7675	581.4992	65535	64633.8
822.912	583.6329	65535	64629.3
823.0565	585.766	65535	64629.9
823.201	587.8985	65535	64622.65
823.3454	590.0304	65535	64598.65
823.4899	592.1616	65535	64605.85
823.6345	594.2922	65535	64601.7
823.779	596.4222	65535	64603.4
823.9235	598.5515	65535	64597.2
824.068	600.6802	65535	64602.35
824.2126	602.8083	65535	64603
824.3571	604.9358	65535	64599.6
824.5017	607.0626	65535	64600
824.6462	609.1888	65535	64590.85
824.7908	611.3144	65535	64591.55
824.9354	613.4393	65535	64595.85
825.08	615.5636	65535	64592.25
825.2246	617.6873	65535	64597.05
825.3692	619.8103	65535	64596.8
825.5138	621.9327	65535	64596.6
825.6584	624.0544	65535	64602.2
825.803	626.1756	65535	64602.65
825.9477	628.2961	65535	64600.15
826.0923	630.4159	65535	64603.95
826.237	632.5351	65535	64596.45
826.3816	634.6537	65535	64595.7
826.5263	636.7716	65535	64593.35
826.6709	638.8889	65535	64587.55
826.8156	641.0056	65535	64589.1
826.9603	643.1216	65535	64591.4
827.105	645.237	65535	64593.2
827.2497	647.3518	65535	64600.65
827.3944	649.4659	65535	64602.4
827.5391	651.5793	65535	64603.15
827.6838	653.6922	65535	64602.15
827.8285	655.8043	65535	64605.05
827.9733	657.9159	65535	64598.35
828.118	660.0268	65535	64595
828.2627	662.137	65535	64594.5
828.4075	664.2466	65535	64587.95
828.5522	666.3556	65535	64591.65
828.697	668.4639	65535	64598.45
828.8418	670.5716	65535	64601.2
828.9865	672.6786	65535	64599.75
829.1313	674.785	65535	64593
829.2761	676.8907	65535	64591.8
829.4209	678.9958	65535	64597.25
829.5657	681.1002	65535	64594.45
829.7105	683.204	65535	64584.85
829.8553	685.3072	65535	64590.1
830.0001	687.4097	65535	64593.85
830.1449	689.5115	65535	64589.7
830.2898	691.6127	65535	64592
830.4346	693.7132	65535	64597.4
830.5794	695.8131	65535	64578.25
830.7243	697.9123	65535	64587.75
830.8691	700.0109	65535	64584.05
831.014	702.1089	65535	64587.55
831.1588	704.2061	65535	64589.2
831.3037	706.3028	65535	64589.75
831.4486	708.3987	65535	64584.45
831.5935	710.4941	65535	64593.1
831.7383	712.5887	65535	64588.95
831.8832	714.6827	65535	64592.55
832.0281	716.7761	65535	64591.55
832.173	718.8688	65535	64593.9
832.3179	720.9608	65535	64582.1
832.4628	723.0522	65535	64577.4
832.6077	725.1429	65535	64582.7
832.7527	727.233	65535	64588.55
832.8976	729.3224	65535	64586.05
833.0425	731.4112	65535	64589.5
833.1874	733.4993	65535	64584.85
833.3324	735.5867	65535	64587
833.4773	737.6735	65535	64586.85
833.6222	739.7596	65535	64585.4
833.7672	741.845	65535	64584.7
833.9122	743.9298	65535	64587.1
834.0571	746.014	65535	64588.8
834.2021	748.0974	65535	64579.45
834.347	750.1802	65535	64578.7
834.492	752.2624	65535	64584.4
834.637	754.3439	65535	64582.6
834.782	756.4247	65535	64574.5
834.9269	758.5048	65535	64583.2
835.0719	760.5843	65535	64580.25
835.2169	762.6631	65535	64581.6
835.3619	764.7413	65535	64583.75
835.5069	766.8188	65535	64579.05
835.6519	768.8956	65535	64583.6
835.7969	770.9718	65535	64583.55
835.9419	773.0473	65535	64585.5
836.0869	775.1221	65535	64580.65
836.232	777.1962	65535	64580.8
836.377	779.2697	65535	64577.5
836.522	781.3426	65535	64559.6
836.667	783.4147	65535	64579.8
836.8121	785.4862	65535	64580.05
836.9571	787.557	65535	64582.85
837.1021	789.6271	65535	64581.65
837.2472	791.6966	65535	64583.8
837.3922	793.7654	65535	64581.55
837.5373	795.8335	65535	64585
837.6823	797.901	65535	64585.2
837.8274	799.9678	65535	64579.15
837.9724	802.0339	65535	64581.4
838.1175	804.0993	65535	64572.6
838.2626	806.1641	65535	64580.85
838.4076	808.2282	65535	64581.95
838.5527	810.2916	65535	64578.35
838.6978	812.3544	65535	64582.75
838.8428	814.4164	65535	64583.65
838.9879	816.4778	65535	64577.5
839.133	818.5385	65535	64576.45
839.2781	820.5986	65535	64581.05
839.4232	822.658	65535	64577
839.5682	824.7166	65535	64579.3
839.7133	826.7747	65535	64582.05
839.8584	828.832	65535	64576.75
840.0035	830.8886	65535	64576.65
840.1486	832.9446	65535	64577.35
840.2937	834.9999	65535	64577.3
840.4388	837.0545	65535	64575.55
840.5839	839.1085	65535	64577.6
840.729	841.1618	65535	64569.85
840.8741	843.2143	65535	64580.05
841.0192	845.2662	65535	64575.4
841.1643	847.3175	65535	64575.75
841.3095	849.368	65535	64578.5
841.4546	851.4179	65535	64579.75
841.5997	853.467	65535	64575.25
841.7448	855.5155	65535	64576.95
841.8899	857.5633	65535	64580.85
842.0351	859.6105	65535	64579.15
842.1802	861.6569	65535	64576.25
842.3253	863.7027	65535	64572.3
842.4704	865.7478	65535	64579.25
842.6156	867.7922	65535	64577.15
842.7607	869.8359	65535	64577.5
842.9058	871.8789	65535	64576.15
843.0509	873.9212	65535	64548.15
843.1961	875.9629	65535	64577.15
843.3412	878.0039	65535	64576
843.4863	880.0441	65535	64576.2
843.6315	882.0837	65535	64581.6
843.7766	884.1226	65535	64577.55
843.9218	886.1609	65535	64579.55
844.0669	888.1984	65535	64581.7
844.212	890.2352	65535	64578.35
844.3572	892.2714	65534.9	64574.25
844.5023	894.3069	65535	64575.65
844.6475	896.3416	65535	64574.8
844.7926	898.3757	65534.4	64573.2
844.9377	900.4091	65500.85	64540.1
845.0829	902.4418	65535	64568.8
845.228	904.4739	65524.15	64562.15
845.3732	906.5052	65522.9	64562.1
845.5183	908.5358	65510.15	64551.75
845.6635	910.5658	65495.85	64533.5
845.8086	912.595	65490.35	64532.75
845.9538	914.6236	65326.55	64368.3
846.0989	916.6515	65519.15	64559.45
846.2441	918.6786	65330.2	64371.25
846.3892	920.7051	65427.8	64466.9
846.5344	922.7309	65374.85	64414.6
846.6795	924.756	65416.15	64457.2
846.8246	926.7804	65339.5	64380.7
846.9698	928.8041	65052.55	64096.1
847.1149	930.8272	65271.35	64311.35
847.2601	932.8495	65287.95	64330.75
847.4052	934.8711	65077.25	64119.35
847.5504	936.892	64837.5	63877.75
847.6955	938.9123	64966.8	64005.4
847.8407	940.9318	64763.9	63806
847.9858	942.9506	64741.4	63783.6
848.131	944.9688	64755.85	63797.8
848.2761	946.9862	64226.15	63268.05
848.4213	949.003	64497.65	63538.65
848.5664	951.019	64017.95	63055.65
848.7115	953.0344	64135.5	63177.8
848.8567	955.0491	64070.35	63112.15
849.0018	957.063	64242.4	63282.2
849.147	959.0763	64295.15	63332.85
849.2921	961.0888	63887.35	62927.05
849.4373	963.1007	64183.95	63228.1
849.5824	965.1119	64204.45	63256.6
849.7275	967.1223	63870.2	62923.65
849.8727	969.1321	64247.35	63301.7
850.0178	971.1412	63744.4	62791.15
850.1629	973.1495	63540.75	62585.3
850.3081	975.1572	63829.95	62816.15
850.4532	977.1641	63550.3	62590.05
850.5983	979.1704	63479.95	62522.15
850.7435	981.1759	63493.75	62533.35
850.8886	983.1808	63151.25	62188.05
851.0337	985.1849	63220.45	62250.05
851.1788	987.1884	63420.6	62464
851.324	989.1911	63692.8	62733.25
851.4691	991.1932	62671.3	61711.6
851.6142	993.1945	62955.35	61997.2
851.7593	995.1951	63271.35	62313.25
851.9045	997.1951	62636.9	61671.2
852.0496	999.1943	62511.25	61553.15
852.1947	1001.1928	62248.15	61290.4
852.3398	1003.1906	62462	61506.2
852.4849	1005.1877	61515.2	60557.7
852.63	1007.1841	61269.85	60317.6
852.7751	1009.1798	61219.9	60265.8
852.9202	1011.1748	61178.5	60222.25
853.0653	1013.1691	60942.2	59983.2
853.2104	1015.1627	59091.5	58134.8
853.3555	1017.1556	59759.15	58806.6
853.5006	1019.1477	60038	59084.7
853.6457	1021.1392	59109	58165.65
853.7908	1023.1299	58129.6	57178.85
853.9359	1025.12	58716.95	57774.8
854.081	1027.1093	58207.75	57273.05
854.2261	1029.0979	58201.85	57272
854.3712	1031.0859	58055.15	57121.9
854.5163	1033.0731	57252.3	56306.65
854.6613	1035.0596	57474.65	56528.95
854.8064	1037.0454	57241.55	56288.3
854.9515	1039.0304	56678.8	55726.05
855.0965	1041.0148	55892.25	54938.9
855.2416	1042.9985	55976.75	55020
855.3867	1044.9814	56297.65	55348.35
855.5317	1046.9636	55524.5	54569.1
855.6768	1048.9452	55477.9	54527.9
855.8219	1050.926	55269.95	54317.25
855.9669	1052.9061	55178.1	54227.25
856.112	1054.8855	55176.05	54219.5
856.257	1056.8642	54699.05	53744.9
856.4021	1058.8421	54539.6	53581.1
856.5471	1060.8194	54520.35	53564.85
856.6921	1062.7959	54247.65	53290.75
856.8372	1064.7717	54418.75	53464.9
856.9822	1066.7469	54131.1	53176.4
857.1272	1068.7213	54042.2	53087.9
857.2723	1070.695	53764.8	52809.05
857.4173	1072.6679	53324.1	52370.6
857.5623	1074.6402	53363.3	52408.85
857.7073	1076.6117	53008.7	52051.3
857.8523	1078.5826	52947.85	51990.15
857.9973	1080.5527	52963.3	52005.25
858.1423	1082.5221	52868.3	51913.75
858.2873	1084.4908	53038.15	52088.15
858.4323	1086.4587	53070.7	52116.05
858.5773	1088.426	53149.25	52195.6
858.7223	1090.3925	52869.4	51910.65
858.8673	1092.3584	52730.1	51778.8
859.0123	1094.3235	52158	51201.35
859.1573	1096.2879	51936.05	50981.85
859.3022	1098.2515	51823.2	50870.85
859.4472	1100.2145	51688.5	50737.35
859.5922	1102.1767	51572.85	50619.95
859.7371	1104.1382	51552.5	50602.35
859.8821	1106.099	51567.25	50614.6
860.027	1108.0591	51566.1	50614.75
860.172	1110.0185	51351.95	50398.35
860.3169	1111.9771	51518.3	50564.8
860.4619	1113.9351	51011.75	50060.35
860.6068	1115.8923	50451.1	49497.85
860.7517	1117.8488	50005	49053.4
860.8967	1119.8045	49375.5	48424
861.0416	1121.7596	49220.25	48267.25
861.1865	1123.7139	48933.35	47985.4
861.3314	1125.6675	48815.45	47866.15
861.4763	1127.6204	48836.85	47886.85
861.6212	1129.5726	48645.55	47695.2
861.7661	1131.524	48656.25	47707.85
861.911	1133.4748	48651.6	47700.15
862.0559	1135.4248	48433.25	47480.25
862.2008	1137.3741	48418.55	47468.4
862.3457	1139.3226	48248.85	47297.65
862.4905	1141.2705	48108.15	47151.35
862.6354	1143.2176	47841.9	46885.2
862.7803	1145.164	47696.3	46742.4
862.9251	1147.1097	47573.75	46619.4
863.07	1149.0546	47521.3	46569.4
863.2148	1150.9989	47389.3	46439.7
863.3597	1152.9424	47157.15	46207.8
863.5045	1154.8852	46833.15	45881.9
863.6493	1156.8272	46581	45631.3
863.7942	1158.7686	46463.75	45505.95
863.939	1160.7092	46161.15	45213.15
864.0838	1162.6491	45981.2	45025.35
864.2286	1164.5883	45982.65	45033.65
864.3734	1166.5267	45898.35	44946.65
864.5182	1168.4644	46026.1	45076.65
864.663	1170.4014	46004.15	45048.85
864.8078	1172.3377	46201.4	45252.15
864.9526	1174.2732	46287.8	45339.75
865.0974	1176.2081	46362.3	45415.3
865.2421	1178.1421	46430.2	45475.9
865.3869	1180.0755	46467.4	45518.95
865.5317	1182.0082	46196.1	45245.1
865.6764	1183.9401	46046	45100.7
865.8212	1185.8713	45648.7	44706.45
865.9659	1187.8017	45330.55	44392.2
866.1106	1189.7315	45035.35	44106.25
866.2554	1191.6605	44517.85	43589.7
866.4001	1193.5888	44185.15	43250.9
866.5448	1195.5163	43969.1	43031.25
866.6895	1197.4432	43699.45	42749.45
866.8342	1199.3693	43478.25	42534.85
866.9789	1201.2947	43246.95	42291.9
867.1236	1203.2193	43074.95	42129.4
867.2683	1205.1432	43013.2	42066.35
867.413	1207.0664	42900.65	41956.3
867.5576	1208.9889	42815.45	41868.1
867.7023	1210.9106	42693.8	41747.15
867.847	1212.8316	42586.85	41641.15
867.9916	1214.7519	42601.35	41644.65
868.1363	1216.6715	42415.5	41468.9
868.2809	1218.5903	42321.8	41373.6
868.4255	1220.5084	42146.15	41198.7
868.5701	1222.4257	42061.6	41114.25
868.7148	1224.3424	41765.7	40821.2
868.8594	1226.2583	41706.7	40760.95
869.004	1228.1735	41659.5	40714.35
869.1486	1230.0879	41642.9	40697.95
869.2932	1232.0016	41606.75	40660.7
869.4377	1233.9146	41541.45	40596.95
869.5823	1235.8269	41276.75	40333
869.7269	1237.7384	41074.7	40127.25
869.8715	1239.6492	40759.8	39815.9
870.016	1241.5592	40567.95	39624.55
870.1606	1243.4686	40323.85	39376.2
870.3051	1245.3772	40112.55	39166.1
870.4496	1247.285	39952.2	39007.55
870.5941	1249.1922	39722.75	38775.75
870.7387	1251.0986	39624.4	38682.9
870.8832	1253.0042	39455	38510.85
871.0277	1254.9092	39410.6	38465
871.1722	1256.8134	39406.8	38466.5
871.3167	1258.7169	39556.7	38614.2
871.4611	1260.6196	39523.5	38580.8
871.6056	1262.5216	39626.95	38684.6
871.7501	1264.4229	39679.85	38736.8
871.8945	1266.3234	39769.15	38827.05
872.039	1268.2232	39669.75	38722.7
872.1834	1270.1223	39501.65	38554.5
872.3278	1272.0207	39372.35	38426.55
872.4723	1273.9183	39248.4	38296.35
872.6167	1275.8151	39071.5	38127.85
872.7611	1277.7113	38918.55	37973.8
872.9055	1279.6067	38617.45	37675.4
873.0499	1281.5014	38378.7	37432.9
873.1943	1283.3953	38100.9	37153
873.3386	1285.2885	37943.5	37000.5
873.483	1287.181	37777.1	36837.45
873.6274	1289.0727	37754.5	36814.6
873.7717	1290.9637	37651.15	36710.4
873.9161	1292.854	37705.45	36763.95
874.0604	1294.7435	37768.65	36823.15
874.2047	1296.6323	37836.9	36896.05
874.349	1298.5204	38031.25	37085.7
874.4933	1300.4077	38237.7	37293.65
874.6376	1302.2943	38394.45	37454.35
874.7819	1304.1802	38395.1	37453.5
874.9262	1306.0653	38180.35	37235.6
875.0705	1307.9497	38019.85	37080.45
875.2147	1309.8333	37870.45	36928.85
875.359	1311.7162	37754	36813.15
875.5032	1313.5984	37799.35	36852.85
875.6475	1315.4798	37804.85	36844.3
875.7917	1317.3605	37942.6	36988.9
875.9359	1319.2405	38081.25	37141.4
876.0801	1321.1197	38010.7	37066.9
876.2243	1322.9982	37824.85	36877.35
876.3685	1324.876	37837.4	36897.75
876.5127	1326.753	37661.45	36718.65
876.6569	1328.6293	37666.5	36722.2
876.801	1330.5048	37660.2	36714.25
876.9452	1332.3796	37514.05	36571
877.0893	1334.2537	37462.85	36497.95
877.2335	1336.127	37295.95	36354.25
877.3776	1337.9996	37165.15	36222.55
877.5217	1339.8714	37029.3	36089.05
877.6658	1341.7426	36900.45	35913.95
877.8099	1343.6129	36724.6	35782.1
877.954	1345.4826	36575.9	35633.4
878.0981	1347.3515	36507.45	35561.95
878.2422	1349.2196	36374	35429.05
878.3862	1351.087	36334.05	35389.55
878.5303	1352.9537	36260.45	35319.8
878.6743	1354.8197	36332.15	35387.8
878.8184	1356.6849	36543.45	35600.3
878.9624	1358.5493	36436.2	35495.65
879.1064	1360.4131	36367.85	35428.5
879.2504	1362.276	36153.3	35214.8
879.3944	1364.1383	35911.1	34970.05
879.5384	1365.9998	35537.75	34592.15
879.6823	1367.8606	35136.25	34196.35
879.8263	1369.7206	34816.35	33873.15
879.9702	1371.5799	34589.75	33644.15
880.1142	1373.4384	34351.55	33410.7
880.2581	1375.2962	34227.8	33288
880.402	1377.1533	33834.1	32893.95
880.5459	1379.0096	33368.15	32433.6
880.6898	1380.8652	33062.5	32125
880.8337	1382.7201	32786.6	31849
880.9776	1384.5742	32450.1	31508.4
881.1215	1386.4275	32173.05	31231.25
881.2653	1388.2802	31972.05	31030.6
881.4092	1390.132	31815.05	30878.15
881.553	1391.9832	31670.2	30728.95
881.6968	1393.8336	31371.9	30430.6
881.8406	1395.6832	31311.5	30369.2
881.9844	1397.5322	31151.05	30211.6
882.1282	1399.3803	31040.2	30094.1
882.272	1401.2278	30841.9	29904.45
882.4158	1403.0745	30813.7	29878.55
882.5595	1404.9204	30637.35	29701.15
882.7033	1406.7656	30538	29598.1
882.847	1408.6101	30463.3	29524
882.9908	1410.4538	30333.7	29396
883.1345	1412.2968	30322.1	29385.3
883.2782	1414.139	30224.35	29285.5
883.4219	1415.9805	30216.55	29277.75
883.5656	1417.8213	30161.7	29204.45
883.7092	1419.6613	30238.6	29301.95
883.8529	1421.5006	30353.35	29414.8
883.9965	1423.3391	30551.7	29615.7
884.1402	1425.1769	30785.3	29846.6
884.2838	1427.0139	31233.75	30295.6
884.4274	1428.8502	31847.7	30909.8
884.571	1430.6858	32321.85	31386.2
884.7146	1432.5206	32582.45	31644.3
884.8582	1434.3547	32836.65	31899
885.0018	1436.188	32816.55	31880.65
885.1453	1438.0206	32672.65	31734.4
885.2889	1439.8524	32409.6	31470.45
885.4324	1441.6835	32305.3	31367.9
885.5759	1443.5139	32120.85	31179.3
885.7194	1445.3435	31955.45	31020.45
885.8629	1447.1724	31872.1	30936.9
886.0064	1449.0005	31750.5	30817.1
886.1499	1450.8279	31561.6	30628.05
886.2933	1452.6545	31486.35	30552.8
886.4368	1454.4804	31493.05	30561.8
886.5802	1456.3056	31437	30498.45
886.7237	1458.13	31231.15	30299.55
886.8671	1459.9536	30998.25	30064.15
887.0105	1461.7766	30596.15	29662.15
887.1539	1463.5987	30064.75	29126.8
887.2972	1465.4202	29646.75	28710
887.4406	1467.2409	29136.85	28201.5
887.584	1469.0608	28899.1	27965.7
887.7273	1470.88	28628.9	27694.65
887.8706	1472.6984	28296.95	27364.2
888.0139	1474.5161	28032.25	27097.35
888.1572	1476.3331	27797.2	26864.7
888.3005	1478.1493	27655.55	26722.5
888.4438	1479.9648	27485.2	26548.65
888.5871	1481.7795	27355.95	26424.75
888.7303	1483.5935	27263.7	26327
888.8736	1485.4067	27138.65	26202.85
889.0168	1487.2192	27042.05	26106.15
889.16	1489.031	26976	26040.1
889.3032	1490.842	26819.15	25886.45
889.4464	1492.6522	26810.95	25876.3
889.5896	1494.4618	26713.2	25776.8
889.7327	1496.2705	26629.35	25697.8
889.8759	1498.0785	26540.1	25605.4
890.019	1499.8858	26468.3	25533
890.1622	1501.6924	26342.65	25409.9
890.3053	1503.4981	26329	25394.65
890.4484	1505.3032	26244.45	25310.3
890.5914	1507.1075	26153.45	25220.7
890.7345	1508.911	26061.8	25130.85
890.8776	1510.7138	25977.6	25045.1
891.0206	1512.5159	25870.55	24940.2
891.1637	1514.3172	25770.2	24839.25
891.3067	1516.1178	25660.75	24731.95
891.4497	1517.9176	25623.25	24686.65
891.5927	1519.7166	25491.8	24562.05
891.7357	1521.515	25429.45	24492.1
891.8786	1523.3126	25312.55	24381.1
892.0216	1525.1094	25268.1	24334.7
892.1645	1526.9055	25139.6	24210.45
892.3074	1528.7008	25054.3	24126.2
892.4503	1530.4954	24877.3	23942
892.5932	1532.2893	24825.55	23898.7
892.7361	1534.0824	24700.8	23769.85
892.879	1535.8747	24669	23744.8
893.0218	1537.6663	24571.4	23646.7
893.1647	1539.4572	24499.6	23572.75
893.3075	1541.2473	24417.1	23488.45
893.4503	1543.0367	24344.35	23417.25
893.5931	1544.8253	24205	23273.85
893.7359	1546.6132	24231.45	23298.9
893.8787	1548.4003	24064.35	23127.75
894.0214	1550.1867	24077.95	23144.75
894.1642	1551.9723	23982.9	23054.95
894.3069	1553.7572	23937.35	23011.65
894.4496	1555.5414	23897.4	22972.15
894.5923	1557.3247	23843.2	22919.95
894.735	1559.1074	23848.75	22926.55
894.8777	1560.8893	23860	22938.45
895.0204	1562.6705	23801.4	22879
895.163	1564.4509	23817.7	22895.55
895.3056	1566.2305	23775.15	22857.1
895.4482	1568.0094	23872.65	22954.7
895.5908	1569.7876	23949.15	23031.8
895.7334	1571.565	23959.4	23041.35
895.876	1573.3417	23981.4	23060.25
896.0186	1575.1176	23913.85	22995.3
896.1611	1576.8928	23832.95	22914.75
896.3036	1578.6672	23672.75	22761.15
896.4461	1580.4409	23525.35	22615.6
896.5886	1582.2138	23275.7	22358.15
896.7311	1583.986	23111	22194.05
896.8736	1585.7575	22999.65	22083.85
897.0161	1587.5282	22825.15	21908.5
897.1585	1589.2981	22774.7	21863
897.3009	1591.0673	22602.9	21693.3
897.4433	1592.8358	22561.95	21652.75
897.5857	1594.6035	22483.35	21566.25
897.7281	1596.3704	22427.4	21509.95
897.8705	1598.1366	22299.6	21386.15
898.0128	1599.9021	22278.85	21363.5
898.1551	1601.6668	22262.25	21346.1
898.2975	1603.4308	22274.6	21357.5
898.4398	1605.194	22264.95	21345.25
898.5821	1606.9564	22228.05	21318.55
898.7243	1608.7182	22291.8	21385.4
898.8666	1610.4791	22353.5	21452.8
899.0088	1612.2394	22398.35	21498.65
899.1511	1613.9988	22535.1	21632.65
899.2933	1615.7576	22737.65	21831.65
899.4355	1617.5156	22940.5	22020.8
899.5776	1619.2728	23155.8	22239.55
899.7198	1621.0293	23328.2	22415.9
899.862	1622.785	23345.6	22433.85
900.0041	1624.54	23173.55	22264.2
900.1462	1626.2942	23003.3	22095.75
900.2883	1628.0477	22662.65	21751.7
900.4304	1629.8005	22365.65	21454.9
900.5725	1631.5525	22064.75	21158.8
900.7145	1633.3037	21821.95	20912.75
900.8566	1635.0542	21639.3	20732.95
900.9986	1636.804	21399.55	20491.5
901.1406	1638.553	21307.4	20354.25
901.2826	1640.3013	21135.3	20228.3
901.4245	1642.0488	21019	20109.85
901.5665	1643.7955	20960.35	20055.7
901.7085	1645.5416	20915.25	20009.9
901.8504	1647.2868	20940.9	20033.15
901.9923	1649.0313	20908.45	20000
902.1342	1650.7751	21054.3	20143.2
902.2761	1652.5181	21149.6	20243.7
902.4179	1654.2604	21315.8	20411
902.5598	1656.0019	21576.25	20671.9
902.7016	1657.7427	21925	21019.8
902.8434	1659.4828	22230.05	21320.25
902.9852	1661.222	22448.65	21540.1
903.127	1662.9606	22442.9	21532.2
903.2687	1664.6984	22306.85	21397.3
903.4105	1666.4354	21944.2	21031.85
903.5522	1668.1717	21430	20515.85
903.6939	1669.9072	20920.65	20008.05
903.8356	1671.642	20495.35	19580.15
903.9773	1673.3761	20189.45	19280.65
904.119	1675.1094	19888.45	18978.85
904.2606	1676.8419	19680.1	18773.25
904.4022	1678.5737	19472.85	18562.65
904.5439	1680.3048	19316.4	18406.1
904.6855	1682.0351	19195.35	18285.95
904.827	1683.7646	19026.4	18114.15
904.9686	1685.4934	18965.75	18055.2
905.1101	1687.2215	18861.7	17951.15
905.2517	1688.9488	18753.7	17846.25
905.3932	1690.6754	18648.75	17741.55
905.5347	1692.4012	18581.05	17672.35
905.6761	1694.1263	18508.35	17597.95
905.8176	1695.8506	18448.9	17542.15
905.9591	1697.5742	18371.65	17468.35
906.1005	1699.297	18291.35	17388.85
906.2419	1701.0191	18173.45	17272.45
906.3833	1702.7404	18098.95	17197.35
906.5246	1704.461	17970.05	17062.2
906.666	1706.1808	17922.45	17015.7
906.8073	1707.8999	17864.45	16961.5
906.9487	1709.6182	17810.15	16909.45
907.09	1711.3358	17762.85	16864.5
907.2313	1713.0527	17722.95	16827.1
907.3725	1714.7688	17633.15	16725.7
907.5138	1716.4841	17566.9	16664.15
907.655	1718.1987	17546.95	16639.55
907.7962	1719.9126	17442.6	16541.5
907.9374	1721.6257	17353.65	16453
908.0786	1723.338	17353.25	16452.75
908.2198	1725.0496	17218.85	16319.3
908.3609	1726.7605	17208.1	16307.8
908.502	1728.4706	17139.5	16238.7
908.6431	1730.18	17013.75	16112.85
908.7842	1731.8886	16968.55	16068.2
908.9253	1733.5964	16941.45	16021.2
909.0664	1735.3036	16928.3	16027.6
909.2074	1737.0099	16872.25	15972.7
909.3484	1738.7156	16836.05	15939.65
909.4894	1740.4204	16696.9	15795.6
909.6304	1742.1246	16684.75	15780.1
909.7714	1743.8279	16650.1	15752.9
909.9123	1745.5306	16642.8	15742.3
910.0532	1747.2325	16593.05	15696.4
910.1941	1748.9336	16511.55	15612.55
910.335	1750.634	16431	15529.7
910.4759	1752.3336	16416	15518.35
910.6168	1754.0325	16398.8	15502.65
910.7576	1755.7307	16333	15438.65
910.8984	1757.4281	16346.5	15445.1
911.0392	1759.1247	16284.2	15374.95
911.18	1760.8206	16266.9	15357.55
911.3208	1762.5158	16240.05	15334.5
911.4615	1764.2102	16168.3	15270.25
911.6022	1765.9039	16083.45	15186.15
911.7429	1767.5968	16020.7	15124.45
911.8836	1769.289	15968.65	15073
912.0243	1770.9804	15949.9	15051.7
912.1649	1772.6711	15957.15	15054.2
912.3056	1774.361	15885.55	14981.85
912.4462	1776.0502	15851.7	14950.55
912.5868	1777.7386	15829.9	14929.4
912.7274	1779.4263	15744.6	14848.1
912.8679	1781.1132	15717.7	14822.35
913.0084	1782.7994	15640.8	14745.55
913.149	1784.4849	15643.85	14749.15
913.2895	1786.1696	15584.5	14668.65
913.4299	1787.8535	15520.6	14625.65
913.5704	1789.5367	15498.85	14603.85
913.7108	1791.2192	15507.2	14611.5
913.8513	1792.9009	15406.2	14481.65
913.9917	1794.5818	15346.15	14445.9
914.132	1796.2621	15338.15	14440.85
914.2724	1797.9415	15301.6	14404.15
914.4128	1799.6202	15288.75	14392.25
914.5531	1801.2982	15235.25	14337.35
914.6934	1802.9755	15222.5	14323.55
914.8337	1804.6519	15169.2	14270.75
914.9739	1806.3277	15105.45	14209.65
915.1142	1808.0027	15018.7	14123.85
915.2544	1809.6769	15029.7	14135.55
915.3946	1811.3504	14961.75	14068.95
915.5348	1813.0231	14940.5	14045.1
915.675	1814.6951	14906.2	14013.3
915.8151	1816.3664	14880.75	13983.55
915.9553	1818.0369	14862.2	13963.55
916.0954	1819.7067	14807.15	13911.6
916.2355	1821.3757	14783.6	13883.55
916.3755	1823.044	14722.6	13824.2
916.5156	1824.7115	14723.7	13825.6
916.6556	1826.3783	14657.7	13761.75
916.7956	1828.0443	14639.3	13741.7
916.9356	1829.7096	14539.55	13640.95
917.0756	1831.3741	14551.35	13651.65
917.2155	1833.0379	14517.2	13623.9
917.3555	1834.701	14457.15	13563.15
917.4954	1836.3633	14433.25	13541.25
917.6353	1838.0248	14394.65	13498.6
917.7751	1839.6856	14349.85	13453.4
917.915	1841.3457	14340.3	13441.95
918.0548	1843.005	14310.55	13413.15
918.1946	1844.6636	14260.15	13366.3
918.3344	1846.3214	14215.9	13317.9
918.4742	1847.9785	14239.35	13344.45
918.6139	1849.6349	14199.95	13303.15
918.7537	1851.2904	14190.35	13284.05
918.8934	1852.9453	14117.2	13218.35
919.0331	1854.5994	14075.1	13175.65
919.1727	1856.2528	14085.8	13183.75
919.3124	1857.9054	14052	13155.3
919.452	1859.5572	14025.4	13131.4
919.5916	1861.2083	13978.9	13080.35
919.7312	1862.8587	13955.55	13060.2
919.8708	1864.5084	13900.2	13000.2
920.0103	1866.1572	13862.7	12963.65
920.1498	1867.8054	13808.9	12909.7
920.2893	1869.4528	13794.55	12895.3
920.4288	1871.0994	13755.25	12855.3
920.5683	1872.7453	13741.35	12842.8
920.7077	1874.3905	13697.7	12781.75
920.8471	1876.0349	13644.75	12745.7
920.9865	1877.6786	13631.85	12732.85
921.1259	1879.3215	13614.85	12718.75
921.2653	1880.9637	13556.7	12659.15
921.4046	1882.6051	13556.85	12661.7
921.5439	1884.2458	13525	12625.85
921.6832	1885.8858	13458.45	12563.15
921.8225	1887.525	13456.9	12557.75
921.9617	1889.1634	13380.7	12482.4
922.101	1890.8011	13335.45	12438.25
922.2402	1892.4381	13303.95	12407.65
922.3794	1894.0743	13297.1	12400.6
922.5185	1895.7098	13240.4	12347.55
922.6577	1897.3446	13234.9	12337.8
922.7968	1898.9786	13191.5	12292.15
922.9359	1900.6118	13171.15	12277.1
923.075	1902.2443	13056.85	12157.8
923.214	1903.8761	13065.5	12168.35
923.3531	1905.5071	12979.75	12083.55
923.4921	1907.1374	12952.15	12056.65
923.6311	1908.7669	12922.5	12027.85
923.77	1910.3957	12891.4	11997.9
923.909	1912.0237	12799.8	11904.9
924.0479	1913.651	12792.7	11896
924.1868	1915.2776	12741	11847.7
924.3257	1916.9034	12696.95	11804.7
924.4646	1918.5285	12671.35	11777.45
924.6034	1920.1528	12607.5	11712.45
924.7422	1921.7764	12603	11709.05
924.881	1923.3992	12563.9	11669.2
925.0198	1925.0213	12524.9	11628.5
925.1586	1926.6427	12438.95	11544.15
925.2973	1928.2633	12460.65	11498.2
925.436	1929.8832	12375	11476.7
925.5747	1931.5023	12330.55	11436.5
925.7134	1933.1207	12270.95	11377.15
925.852	1934.7383	12245.35	11349.4
925.9906	1936.3552	12204	11311.65
926.1292	1937.9714	12180.1	11285.85
926.2678	1939.5868	12132.6	11235.3
926.4064	1941.2015	12090.85	11192.5
926.5449	1942.8154	12036.1	11137
926.6834	1944.4286	11968.65	11074.15
926.8219	1946.041	11951.95	11035.75
926.9604	1947.6528	11893.8	10992.65
927.0988	1949.2637	11850.9	10957.05
927.2372	1950.8739	11791.25	10896.7
927.3756	1952.4834	11803.95	10909.3
927.514	1954.0921	11760.85	10867.35
927.6523	1955.7001	11726.3	10829.35
927.7907	1957.3074	11644.3	10753.15
927.929	1958.9139	11597.1	10706.1
928.0673	1960.5197	11577.2	10683.55
928.2055	1962.1247	11533.2	10643.45
928.3438	1963.729	11471.8	10581.3
928.482	1965.3325	11476	10561.95
928.6202	1966.9353	11446.95	10556.55
928.7584	1968.5374	11395.5	10505.4
928.8965	1970.1387	11321.7	10431.2
929.0346	1971.7393	11291.7	10400.6
929.1727	1973.3392	11233.55	10342.15
929.3108	1974.9383	11232.1	10342.3
929.4489	1976.5366	11165.2	10274.95
929.5869	1978.1342	11163.25	10271.55
929.7249	1979.7311	11148.4	10258.55
929.8629	1981.3273	11105.5	10215.6
930.0009	1982.9227	11030.2	10138.95
930.1388	1984.5173	11003.6	10115.55
930.2767	1986.1112	10959.6	10071.2
930.4146	1987.7044	10944.3	10055.7
930.5525	1989.2968	10898.5	10007.5
930.6904	1990.8885	10879.5	9987.45
930.8282	1992.4795	10870.4	9981.15
930.966	1994.0697	10821.2	9934.5
931.1038	1995.6592	10755	9865.95
931.2415	1997.2479	10747.1	9858.6
931.3793	1998.8359	10726.85	9837.35
931.517	2000.4232	10679.15	9793.65
931.6547	2002.0097	10649.6	9765
931.7923	2003.5955	10591.8	9708.75
931.93	2005.1805	10588.75	9700.25
932.0676	2006.7648	10547.75	9661.75
932.2052	2008.3484	10541.3	9652.5
932.3427	2009.9312	10543.9	9656.6
932.4803	2011.5133	10478.4	9592.75
932.6178	2013.0946	10436.3	9550.8
932.7553	2014.6752	10425.85	9540.45
932.8928	2016.2551	10411.8	9523.3
933.0302	2017.8342	10371.2	9482.45
933.1676	2019.4126	10309.5	9426.6
933.305	2020.9902	10249.4	9364.75
933.4424	2022.5672	10267.15	9383.2
933.5798	2024.1433	10253.55	9362.4
933.7171	2025.7188	10183.8	9302.75
933.8544	2027.2935	10156.35	9272.05
933.9917	2028.8674	10102.5	9219.1
934.129	2030.4406	10077	9194.25
934.2662	2032.0131	10036	9154.65
934.4034	2033.5849	10025.5	9138.7
934.5406	2035.1559	9981.3	9098.6
934.6778	2036.7261	9987.45	9102.85
934.8149	2038.2957	9940.15	9053.35
934.952	2039.8645	9929.4	9040.95
935.0891	2041.4325	9941.2	9050.45
935.2262	2042.9998	9857.9	8973.85
935.3632	2044.5664	9863.4	8979.1
935.5002	2046.1323	9810	8928.55
935.6372	2047.6974	9771.8	8890.25
935.7742	2049.2617	9773.65	8891.1
935.9111	2050.8254	9756.95	8869.65
936.048	2052.3883	9737.25	8851.3
936.1849	2053.9504	9708.2	8822.55
936.3218	2055.5118	9664.25	8776.4
936.4586	2057.0725	9608.25	8719.5
936.5955	2058.6325	9624.5	8737.9
936.7323	2060.1917	9574	8689.45
936.869	2061.7502	9579.65	8692.1
937.0058	2063.3079	9525.5	8642.45
937.1425	2064.8649	9478.25	8592.35
937.2792	2066.4212	9447.55	8562.25
937.4159	2067.9767	9431.05	8544.9
937.5525	2069.5315	9421.65	8535.95
937.6891	2071.0856	9375.75	8489.65
937.8257	2072.6389	9326.05	8441.05
937.9623	2074.1915	9277.5	8397.55
938.0989	2075.7433	9216.8	8330.75
938.2354	2077.2945	9238.65	8355.7
938.3719	2078.8448	9201.1	8313.4
938.5084	2080.3945	9161	8275.7
938.6448	2081.9434	9153.95	8267.7
938.7812	2083.4916	9100.55	8211.1
938.9176	2085.039	9085.4	8194.25
939.054	2086.5857	9076.6	8184.45
939.1903	2088.1317	9053.6	8162.6
939.3267	2089.677	9024.35	8130.75
939.463	2091.2215	9004.85	8111.65
939.5992	2092.7652	8953.3	8059.35
939.7355	2094.3083	8954.65	8061.75
939.8717	2095.8506	8925.7	8037.05
940.0079	2097.3921	8936.75	8049
940.1441	2098.933	8897.1	8008.05
940.2802	2100.4731	8876.5	7986.85
940.4163	2102.0124	8882.75	7987.45
940.5524	2103.5511	8863.5	7973.1
940.6885	2105.089	8847.15	7958.1
940.8245	2106.6261	8817.25	7925.05
940.9606	2108.1626	8789.8	7901.45
941.0965	2109.6983	8776.35	7857.05
941.2325	2111.2332	8757.4	7867.95
941.3684	2112.7675	8696	7806.3
941.5044	2114.301	8685.35	7792.85
941.6403	2115.8337	8656.85	7767
941.7761	2117.3657	8640.05	7750.9
941.912	2118.897	8634	7742.5
942.0478	2120.4276	8601.95	7708.15
942.1835	2121.9575	8552.95	7661.95
942.3193	2123.4866	8534.55	7644.9
942.455	2125.0149	8525.9	7632.7
942.5907	2126.5426	8474	7586
942.7264	2128.0695	8467.7	7580.1
942.8621	2129.5956	8438.95	7555.25
942.9977	2131.1211	8413.8	7523.3
943.1333	2132.6458	8385	7498.2
943.2689	2134.1698	8363.7	7471.85
943.4044	2135.693	8371.15	7477.75
943.54	2137.2155	8356.8	7463.95
943.6755	2138.7373	8327.7	7438.8
943.8109	2140.2584	8286.65	7400.65
943.9464	2141.7787	8254.55	7363
944.0818	2143.2983	8221.95	7339.3
944.2172	2144.8171	8193.75	7309.25
944.3526	2146.3353	8179.5	7293.7
944.4879	2147.8527	8134	7249.3
944.6232	2149.3693	8135.6	7247.15
944.7585	2150.8853	8096.95	7204.45
944.8938	2152.4005	8091.55	7199.25
945.029	2153.9149	8062	7167.9
945.1642	2155.4287	8117.95	7120.1
945.2994	2156.9417	8041.2	7147
945.4346	2158.454	8006.4	7116.3
945.5697	2159.9655	7978.3	7092.3
945.7048	2161.4764	7956.9	7069.8
945.8399	2162.9865	7932.55	7045.05
945.9749	2164.4958	7915.15	7028.3
946.1099	2166.0045	7882.45	6993.6
946.2449	2167.5124	7861.9	6973.55
946.3799	2169.0195	7839.55	6951.9
946.5148	2170.526	7856.6	6966.85
946.6498	2172.0317	7833.15	6943.25
946.7846	2173.5367	7765.4	6877.75
946.9195	2175.0409	7769	6879.95
947.0543	2176.5445	7767.8	6877.6
947.1891	2178.0473	7735	6845.3
947.3239	2179.5494	7694.45	6801.05
947.4587	2181.0507	7683.35	6794.4
947.5934	2182.5513	7659.5	6772
947.7281	2184.0512	7650.75	6761.1
947.8628	2185.5504	7613.05	6724.3
947.9974	2187.0488	7570.7	6682.1
948.132	2188.5465	7552.05	6664.7
948.2666	2190.0435	7530.15	6643.3
948.4012	2191.5397	7495.9	6606.8
948.5357	2193.0353	7481.15	6592.1
948.6702	2194.5301	7440.95	6546.65
948.8047	2196.0241	7439.95	6546.5
948.9392	2197.5175	7436.9	6543.55
949.0736	2199.0101	7386.75	6490.35
949.208	2200.502	7345.3	6454
949.3424	2201.9931	7331.75	6445.45
949.4767	2203.4835	7308	6419.45
949.611	2204.9733	7278	6375.85
949.7453	2206.4622	7255.6	6371.15
949.8796	2207.9505	7241.25	6350.65
950.0138	2209.438	7204.65	6320.3
950.148	2210.9248	7178.7	6289.4
950.2822	2212.4109	7162.3	6274.65
950.4164	2213.8962	7166.75	6271.8
950.5505	2215.3809	7132.7	6238.3
950.6846	2216.8648	7125.5	6231.9
950.8186	2218.3479	7105.75	6207.6
950.9527	2219.8304	7093.15	6197.4
951.0867	2221.3121	7059.65	6165
951.2207	2222.7931	7024.5	6132.75
951.3546	2224.2733	7005.8	6112.55
951.4886	2225.7529	6972.7	6082.3
951.6225	2227.2317	6926.65	6036
951.7563	2228.7098	6933.75	6048.55
951.8902	2230.1872	6893.9	6007.75
952.024	2231.6638	6903.2	6017.6
952.1578	2233.1397	6852.35	5960.75
952.2916	2234.6149	6829.85	5944.25
952.4253	2236.0894	6837.35	5949.7
952.559	2237.5632	6822.15	5931.1
952.6927	2239.0362	6798.55	5910.9
952.8263	2240.5085	6782.55	5894.05
952.9599	2241.9801	6738.05	5848.45
953.0935	2243.4509	6712.95	5822.2
953.2271	2244.921	6709.3	5816.6
953.3606	2246.3904	6677.1	5783.55
953.4941	2247.8591	6648.7	5758.75
953.6276	2249.3271	6622.05	5730.85
953.7611	2250.7943	6623.65	5733.3
953.8945	2252.2608	6594	5701.45
954.0279	2253.7266	6573.8	5683.85
954.1612	2255.1917	6568.1	5676.8
954.2946	2256.656	6542.45	5651.55
954.4279	2258.1197	6494.4	5607.85
954.5612	2259.5826	6486.05	5596.5
954.6944	2261.0447	6482.65	5592.8
954.8276	2262.5062	6466.35	5573.65
954.9608	2263.9669	6484.1	5588.45
955.094	2265.4269	6448.9	5559.05
955.2271	2266.8862	6419.9	5529.8
955.3602	2268.3448	6394.05	5505.35
955.4933	2269.8026	6401.1	5512.85
955.6264	2271.2598	6370.5	5480
955.7594	2272.7162	6360.75	5474.2
955.8924	2274.1719	6331.05	5439.55
956.0253	2275.6268	6322.95	5433.05
956.1583	2277.0811	6312.8	5419.9
956.2912	2278.5346	6284.6	5394.95
956.4241	2279.9874	6274.75	5384.55
956.5569	2281.4395	6264.3	5376.85
956.6897	2282.8908	6233.6	5340.3
956.8225	2284.3414	6224.75	5334.65
956.9553	2285.7914	6185.7	5295.95
957.088	2287.2406	6186.35	5293.6
957.2207	2288.689	6170.1	5276.45
957.3534	2290.1368	6157.95	5262.1
957.486	2291.5838	6152.95	5255.3
957.6186	2293.0302	6138.35	5240.45
957.7512	2294.4758	6101.9	5207.1
957.8838	2295.9206	6077.8	5184.15
958.0163	2297.3648	6084	5194.05
958.1488	2298.8082	6049.65	5160.5
958.2813	2300.251	6027.7	5137.3
958.4137	2301.693	6016.05	5123.15
958.5461	2303.1343	6017.8	5125.3
958.6785	2304.5748	5974.1	5082.55
958.8108	2306.0147	5966.25	5078
958.9432	2307.4538	5934.55	5046.2
959.0754	2308.8922	5929	5042.75
959.2077	2310.3299	5916.55	5030.35
959.3399	2311.7669	5898.75	5009.05
959.4721	2313.2031	5868.55	4977.4
959.6043	2314.6387	5855.35	4967.4
959.7365	2316.0735	5822.45	4932.5
959.8686	2317.5076	5800.9	4908.8
960.0006	2318.941	5814.5	4923.65
960.1327	2320.3737	5794.8	4901.6
960.2647	2321.8056	5781.95	4887.65
960.3967	2323.2369	5757.05	4866.55
960.5287	2324.6674	5751.75	4859.25
960.6606	2326.0972	5717.6	4825.4
960.7925	2327.5263	5709.35	4817.1
960.9244	2328.9547	5693.5	4799.85
961.0562	2330.3823	5674.35	4780.35
961.1881	2331.8092	5691.95	4797.55
961.3198	2333.2355	5638.1	4742.8
961.4516	2334.661	5643.6	4749.55
961.5833	2336.0858	5613	4720.45
961.715	2337.5098	5615.45	4723
961.8467	2338.9332	5585.25	4694.2
961.9783	2340.3558	5573.6	4680.4
962.1099	2341.7778	5551.25	4663.95
962.2415	2343.199	5545.8	4655.75
962.373	2344.6195	5529.8	4639.2
962.5045	2346.0393	5511.2	4622.15
962.636	2347.4583	5497.1	4605.75
962.7675	2348.8767	5497.7	4605.5
962.8989	2350.2943	5483.5	4591.7
963.0303	2351.7113	5478.75	4580.55
963.1617	2353.1275	5453.6	4559.05
963.293	2354.543	5437.15	4534.95
963.4243	2355.9578	5413.55	4522.15
963.5556	2357.3718	5371.95	4484.4
963.6868	2358.7852	5352.65	4463.25
963.818	2360.1978	5341.55	4453.05
963.9492	2361.6098	5333.4	4444.65
964.0803	2363.021	5333.2	4439.05
964.2114	2364.4315	5313.95	4420.45
964.3425	2365.8413	5293.75	4401.35
964.4736	2367.2504	5274.7	4386.4
964.6046	2368.6587	5244.45	4355.8
964.7356	2370.0664	5226.85	4337.8
964.8666	2371.4733	5208.75	4317.85
964.9975	2372.8795	5206.75	4318.15
965.1284	2374.285	5175.7	4286.8
965.2593	2375.6899	5151.65	4262.7
965.3901	2377.0939	5134.3	4245.9
965.5209	2378.4973	5122.1	4235.8
965.6517	2379.9	5096.55	4208.35
965.7825	2381.3019	5090	4200.35
965.9132	2382.7032	5071.1	4184.3
966.0439	2384.1037	5059.75	4174.25
966.1745	2385.5035	5026	4139.5
966.3051	2386.9027	5019.75	4134.15
966.4357	2388.3011	5017.7	4125.7
966.5663	2389.6987	4992.65	4103.45
966.6968	2391.0957	4990.9	4102.45
966.8273	2392.492	4963	4073.95
966.9578	2393.8876	4925.8	4037.55
967.0882	2395.2824	4910.9	4023.05
967.2186	2396.6765	4904.2	4017.6
967.349	2398.07	4887.45	3999.6
967.4793	2399.4627	4881.9	3988.95
967.6097	2400.8547	4849	3957.9
967.7399	2402.246	4851.25	3954.45
967.8702	2403.6366	4838.4	3948.9
968.0004	2405.0265	4793.9	3906.55
968.1306	2406.4156	4807.1	3916.65
968.2607	2407.8041	4773.05	3880.85
968.3909	2409.1918	4757.85	3865.05
968.521	2410.5789	4765.4	3876.15
968.651	2411.9652	4735.65	3844.4
968.781	2413.3508	4745.05	3856.1
968.911	2414.7358	4712.05	3820.3
969.041	2416.12	4686.65	3798.6
969.1709	2417.5035	4684.6	3795.65
969.3008	2418.8863	4662.2	3772.95
969.4307	2420.2684	4642.8	3753.3
969.5606	2421.6497	4647.05	3756.9
969.6904	2423.0304	4611.4	3724.05
969.8201	2424.4104	4609.65	3719.05
969.9499	2425.7896	4596.8	3705.6
970.0796	2427.1682	4568.75	3680
970.2093	2428.546	4551.65	3662.65
970.3389	2429.9232	4555.1	3665.3
970.4685	2431.2996	4540.35	3649.75
970.5981	2432.6753	4526.2	3635.55
970.7277	2434.0503	4528.15	3639.6
970.8572	2435.4246	4508.8	3620.75
970.9867	2436.7982	4491.25	3597.05
971.1161	2438.1711	4477.85	3589.25
971.2456	2439.5433	4453.8	3562.8
971.375	2440.9148	4453.8	3557.4
971.5043	2442.2856	4437.85	3550.4
971.6336	2443.6557	4415.3	3527.05
971.7629	2445.025	4385.55	3495
971.8922	2446.3937	4389.05	3499.5
972.0214	2447.7617	4382.05	3489.6
972.1506	2449.1289	4375.35	3485.2
972.2798	2450.4955	4386.05	3493.2
972.4089	2451.8613	4360.6	3473.8
972.538	2453.2265	4349.25	3459.7
972.6671	2454.5909	4331.7	3442
972.7961	2455.9546	4335.85	3447.05
972.9251	2457.3177	4312.85	3423.45
973.0541	2458.68	4311.85	3418.65
973.1831	2460.0416	4292.85	3402.2
973.312	2461.4025	4287.25	3395.3
973.4408	2462.7627	4283.45	3383.9
973.5697	2464.1222	4268.8	3382.55
973.6985	2465.4811	4247	3358.85
973.8273	2466.8392	4236.7	3349.25
973.956	2468.1966	4230.75	3338.3
974.0847	2469.5533	4235.75	3343.5
974.2134	2470.9093	4225	3333.7
974.3421	2472.2645	4208.5	3318.5
974.4707	2473.6191	4204.95	3315.35
974.5993	2474.973	4172	3284.45
974.7278	2476.3262	4185.4	3294.5
974.8563	2477.6787	4145.9	3258.1
974.9848	2479.0305	4133.85	3245.75
975.1132	2480.3816	4121.45	3229.9
975.2417	2481.7319	4116.8	3226.35
975.37	2483.0816	4103.6	3213.95
975.4984	2484.4306	4081.2	3193.15
975.6267	2485.7789	4061.5	3174.5
975.755	2487.1264	4069.65	3179.3
975.8833	2488.4733	4035.35	3149.4
976.0115	2489.8195	4060.25	3152
976.1397	2491.165	4024.3	3131.45
976.2678	2492.5097	4019.1	3128.4
976.3959	2493.8538	4005.95	3116.85
976.524	2495.1972	3981.9	3092.55
976.6521	2496.5398	3965.3	3075.5
976.7801	2497.8818	3949.6	3056.1
976.9081	2499.2231	3952.6	3061.7
977.036	2500.5637	3930.5	3040.65
977.164	2501.9035	3914.55	3023.8
977.2918	2503.2427	3913.75	3021.15
977.4197	2504.5812	3902.75	3013.45
977.5475	2505.919	3896.8	3005.45
977.6753	2507.256	3872.4	2981.25
977.8031	2508.5924	3879.5	2992.1
977.9308	2509.9281	3868.95	2973.15
978.0585	2511.2631	3836.6	2947.7
978.1861	2512.5974	3840.25	2952.1
978.3137	2513.9309	3826.95	2936.15
978.4413	2515.2638	3836.9	2921.8
978.5689	2516.596	3811.35	2921
978.6964	2517.9275	3807.1	2916.95
978.8239	2519.2583	3782.45	2891.5
978.9513	2520.5884	3769	2878.65
979.0788	2521.9178	3752.3	2862.45
979.2062	2523.2465	3749.75	2861.35
979.3335	2524.5745	3752.3	2864.05
979.4608	2525.9018	3725.1	2835.05
979.5881	2527.2284	3711.55	2821.55
979.7154	2528.5543	3710.95	2819.8
979.8426	2529.8796	3711.95	2822.8
979.9698	2531.2041	3693	2803.35
980.0969	2532.5279	3685.95	2798.1
980.224	2533.851	3664.9	2774.25
980.3511	2535.1735	3664.7	2776.6
980.4781	2536.4952	3659.35	2768.05
980.6052	2537.8163	3659.95	2768.3
980.7321	2539.1366	3636.25	2744.6
980.8591	2540.4562	3635.8	2743.05
980.986	2541.7752	3628.8	2740.3
981.1129	2543.0935	3632.55	2739.75
981.2397	2544.411	3627.2	2735.05
981.3665	2545.7279	3606.1	2718.8
981.4933	2547.0441	3618.05	2728.25
981.62	2548.3596	3615.85	2723.45
981.7467	2549.6744	3589.7	2699.6
981.8734	2550.9885	3587.75	2688.85
982.0001	2552.3019	3580.75	2689.9
982.1267	2553.6146	3572.4	2681.25
982.2532	2554.9266	3549.65	2659.25
982.3798	2556.2379	3544.85	2653.75
982.5063	2557.5485	3536.95	2647
982.6327	2558.8585	3515.85	2618.85
982.7592	2560.1677	3529.8	2635.4
982.8856	2561.4762	3513.85	2622.15
983.0119	2562.7841	3510.45	2614.5
983.1383	2564.0913	3498.95	2609.9
983.2646	2565.3977	3493.45	2603.25
983.3908	2566.7035	3486.4	2597.2
983.517	2568.0086	3476.75	2584.8
983.6432	2569.313	3482.15	2590.2
983.7694	2570.6167	3470.05	2576
983.8955	2571.9197	3452.1	2561.45
984.0216	2573.222	3461.55	2565.95
984.1476	2574.5236	3457.8	2565.4
984.2737	2575.8246	3445.1	2553.65
984.3996	2577.1248	3453.7	2559.25
984.5256	2578.4244	3432.35	2541.8
984.6515	2579.7232	3429.4	2539.55
984.7774	2581.0214	3439.5	2518.8
984.9032	2582.3189	3429.2	2540.95
985.029	2583.6157	3420	2524.35
985.1548	2584.9118	3406.65	2516.5
985.2806	2586.2072	3394.8	2504.95
985.4063	2587.5019	3384.35	2493.65
985.5319	2588.7959	3388.05	2494.65
985.6576	2590.0893	3381.4	2485.6
985.7832	2591.3819	3382.8	2491.85
985.9087	2592.6739	3366.2	2476.25
986.0343	2593.9652	3375.35	2483.85
986.1597	2595.2557	3362.2	2473.55
986.2852	2596.5456	3345.7	2451.6
986.4106	2597.8348	3348.3	2457.2
986.536	2599.1234	3337.75	2448.7
986.6614	2600.4112	3323.6	2430.9
986.7867	2601.6983	3324.35	2431.05
986.912	2602.9848	3318.1	2427.05
987.0372	2604.2705	3304.85	2407.7
987.1624	2605.5556	3298.7	2407.7
987.2876	2606.84	3275.2	2387.35
987.4128	2608.1237	3277.25	2387.45
987.5379	2609.4067	3274.55	2382.45
987.6629	2610.689	3261.25	2361.3
987.788	2611.9707	3251.65	2356.1
987.913	2613.2516	3245.9	2350.05
988.0379	2614.5319	3233.5	2342.05
988.1629	2615.8115	3223	2332.55
988.2878	2617.0903	3216	2324.25
988.4126	2618.3685	3195.5	2303.75
988.5375	2619.6461	3211.4	2319.75
988.6622	2620.9229	3192.55	2301.55
988.787	2622.199	3176.25	2283.4
988.9117	2623.4745	3178	2287.1
989.0364	2624.7493	3169.5	2280.7
989.161	2626.0234	3165.8	2275.2
989.2857	2627.2968	3151.25	2262.8
989.4102	2628.5695	3133.5	2242.2
989.5348	2629.8415	3131.25	2242.75
989.6593	2631.1128	3126.25	2234.4
989.7837	2632.3835	3104.45	2214.35
989.9082	2633.6535	3104.6	2216.45
990.0326	2634.9228	3102	2211.2
990.1569	2636.1914	3089.85	2200.3
990.2812	2637.4593	3099.2	2200.05
990.4055	2638.7265	3079.2	2186.9
990.5298	2639.9931	3081.35	2192.1
990.654	2641.259	3077.75	2186.3
990.7782	2642.5242	3047.3	2156.2
990.9023	2643.7887	3044.2	2154.35
991.0264	2645.0525	3038.25	2148
991.1505	2646.3156	3043.8	2141.25
991.2745	2647.5781	3018.3	2127.2
991.3985	2648.8398	3018.1	2128.5
991.5225	2650.1009	3013.6	2098.65
991.6464	2651.3613	2990.25	2099.35
991.7703	2652.6211	2994.2	2105
991.8942	2653.8801	2987.4	2098.5
992.018	2655.1385	2983.45	2089.8
992.1418	2656.3961	2976.7	2088.4
992.2655	2657.6531	2975.85	2084.75
992.3892	2658.9094	2973.45	2084.3
992.5129	2660.1651	2961.75	2073.05
992.6366	2661.42	2942.35	2052.1
992.7602	2662.6743	2949.05	2058.2
992.8837	2663.9279	2951.35	2062.65
993.0073	2665.1808	2954.65	2063.85
993.1307	2666.433	2950	2061.9
993.2542	2667.6846	2940.65	2050.6
993.3776	2668.9354	2926.2	2035.2
993.501	2670.1856	2925.5	2035.8
993.6244	2671.4351	2934.25	2045.4
993.7477	2672.6839	2923.9	2030.4
993.8709	2673.9321	2923.9	2035.2
993.9942	2675.1795	2917.75	2028.95
994.1174	2676.4263	2918.95	2026.9
994.2405	2677.6724	2905.05	2015.6
994.3637	2678.9179	2898.85	2007.3
994.4868	2680.1626	2908.95	2018.25
994.6098	2681.4067	2885	1997.25
994.7328	2682.6501	2877.9	1986.6
994.8558	2683.8928	2883.25	1993.65
994.9788	2685.1348	2861	1971.85
995.1017	2686.3761	2859	1971.6
995.2245	2687.6168	2848.9	1961.45
995.3474	2688.8568	2839.5	1950.1
995.4702	2690.0961	2830.45	1941
995.5929	2691.3348	2825	1935.45
995.7156	2692.5727	2810.6	1921.3
995.8383	2693.81	2817.3	1928.1
995.961	2695.0466	2789.95	1902.9
996.0836	2696.2826	2797.05	1907.75
996.2062	2697.5178	2793.55	1901.8
996.3287	2698.7524	2783.65	1893.5
996.4512	2699.9863	2791.75	1901.15
996.5737	2701.2195	2767.75	1878
996.6961	2702.452	2782.65	1894.75
996.8185	2703.6839	2782.05	1891.3
996.9408	2704.9151	2787	1897.75
997.0631	2706.1456	2765.45	1876.65
997.1854	2707.3755	2774	1885.15
997.3077	2708.6046	2777.2	1885.4
997.4299	2709.8331	2783.6	1894.8
997.552	2711.0609	2772.85	1883.55
997.6742	2712.2881	2775.25	1887.15
997.7963	2713.5145	2781.3	1887.9
997.9183	2714.7403	2794.05	1905.5
998.0403	2715.9654	2782.15	1893.3
998.1623	2717.1899	2800.7	1895.5
998.2842	2718.4136	2811.1	1924.2
998.4062	2719.6367	2802.4	1912.2
998.528	2720.8591	2812.85	1917.2
998.6498	2722.0809	2824	1933.6
998.7716	2723.3019	2824.55	1933.1
998.8934	2724.5223	2812.5	1922.85
999.0151	2725.7421	2826.35	1936.7
999.1368	2726.9611	2823	1932.95
999.2584	2728.1795	2817.45	1925.5
999.38	2729.3972	2797.1	1909.65
999.5016	2730.6142	2784.65	1889.35
999.6231	2731.8306	2760.6	1868.55
999.7446	2733.0462	2730.7	1839.4
999.8661	2734.2612	2720.45	1827.55
999.9875	2735.4756	2692	1801.85
1000.1089	2736.6892	2679.6	1790.6
1000.2302	2737.9022	2651.05	1765.4
1000.3515	2739.1145	2643.95	1756.9
1000.4728	2740.3262	2637.85	1740.65
1000.594	2741.5372	2604.9	1715.85
1000.7152	2742.7475	2579.9	1689.65
1000.8363	2743.9571	2583.3	1693.7
1000.9575	2745.1661	2572.05	1679.45
1001.0785	2746.3744	2544.8	1657.55
1001.1996	2747.582	2541.85	1654.35
1001.3206	2748.7889	2540.05	1649.5
1001.4415	2749.9952	2520.45	1631.7
1001.5625	2751.2008	2504.15	1615.95
1001.6833	2752.4057	2497.05	1607.65
1001.8042	2753.61	2489.55	1600.35
1001.925	2754.8136	2481.1	1591.3
1002.0458	2756.0165	2470.35	1584.2
1002.1665	2757.2188	2464.95	1578.3
1002.2872	2758.4204	2471.85	1584.15
1002.4078	2759.6213	2455.25	1566.75
1002.5285	2760.8215	2465.1	1574.75
1002.649	2762.0211	2449.9	1561.35
1002.7696	2763.22	2443.85	1553.75
1002.8901	2764.4182	2441.95	1552.85
1003.0106	2765.6158	2431	1541.65
1003.131	2766.8127	2407.5	1517.5
1003.2514	2768.009	2418.2	1532.95
1003.3717	2769.2045	2407.8	1520.15
1003.492	2770.3994	2407.15	1518.95
1003.6123	2771.5936	2394.3	1506.7
1003.7325	2772.7872	2391.2	1506.2
1003.8527	2773.9801	2380.85	1491.05
1003.9729	2775.1723	2397.65	1493.2
1004.093	2776.3639	2369.95	1484.05
1004.2131	2777.5548	2384.95	1497.2
1004.3331	2778.745	2367.05	1478.15
1004.4531	2779.9346	2367.55	1483.55
1004.5731	2781.1235	2364	1476.6
1004.693	2782.3117	2368.75	1482.2
1004.8129	2783.4992	2365.5	1478.55
1004.9328	2784.6861	2364.75	1479.05
1005.0526	2785.8723	2368.6	1480.65
1005.1723	2787.0579	2362.95	1476.55
1005.2921	2788.2428	2371.9	1485.4
1005.4118	2789.427	2382.9	1497.55
1005.5314	2790.6106	2377.75	1490.25
1005.651	2791.7935	2386.15	1496
1005.7706	2792.9757	2397.55	1510.4
1005.8902	2794.1573	2399.55	1510.4
1006.0097	2795.3382	2403.1	1516.35
1006.1291	2796.5184	2424.6	1541.35
1006.2485	2797.698	2426.65	1539.95
1006.3679	2798.8769	2448	1561.65
1006.4873	2800.0551	2452.5	1565.6
1006.6066	2801.2327	2468.35	1579.25
1006.7258	2802.4096	2485.8	1599.6
1006.8451	2803.5859	2502.5	1614.65
1006.9642	2804.7615	2521.55	1633.4
1007.0834	2805.9364	2545	1658.85
1007.2025	2807.1106	2562.75	1678.05
1007.3216	2808.2842	2598.55	1711.1
1007.4406	2809.4572	2629.65	1742.55
1007.5596	2810.6294	2650.9	1762
1007.6785	2811.801	2688.5	1802.6
1007.7975	2812.972	2743.05	1857.3
1007.9163	2814.1423	2775.3	1889.4
1008.0352	2815.3119	2811.3	1925.3
1008.154	2816.4808	2862.4	1977.4
1008.2727	2817.6491	2917.65	2030.25
1008.3914	2818.8167	2957.6	2073.6
1008.5101	2819.9837	3001.2	2110.45
1008.6288	2821.15	3036.7	2151.3
1008.7474	2822.3157	3081.3	2197.1
1008.8659	2823.4807	3138.1	2250.85
1008.9844	2824.645	3171.9	2284.7
1009.1029	2825.8086	3206.75	2322.65
1009.2214	2826.9716	3245.05	2358.9
1009.3398	2828.134	3273.1	2387.5
1009.4581	2829.2957	3310.75	2425.75
1009.5764	2830.4567	3318.85	2433.55
1009.6947	2831.617	3351.7	2463
1009.813	2832.7767	3352.4	2467.55
1009.9312	2833.9358	3346.5	2463
1010.0493	2835.0941	3350.65	2462.95
1010.1675	2836.2519	3337.15	2449.85
1010.2855	2837.4089	3329.95	2442.05
1010.4036	2838.5653	3327.55	2444.2
1010.5216	2839.7211	3312.25	2428.55
1010.6396	2840.8761	3321.1	2432.9
1010.7575	2842.0306	3348.45	2464.05
1010.8754	2843.1843	3378.25	2493.35
1010.9932	2844.3374	3427.7	2541.3
1011.111	2845.4899	3484.2	2596.7
1011.2288	2846.6417	3567.9	2681.5
1011.3465	2847.7928	3631	2744.25
1011.4642	2848.9433	3719.55	2834.8
1011.5818	2850.0931	3787.5	2903.55
1011.6995	2851.2422	3860.55	2972.9
1011.817	2852.3907	3934.65	3046.8
1011.9345	2853.5385	4010.05	3123.05
1012.052	2854.6857	4063.05	3170.25
1012.1695	2855.8323	4090.55	3204.2
1012.2869	2856.9781	4154.85	3269.6
1012.4042	2858.1233	4201.2	3315.4
1012.5216	2859.2679	4225.2	3341.8
1012.6389	2860.4118	4288.2	3401.55
1012.7561	2861.555	4309.2	3419.85
1012.8733	2862.6976	4356.65	3468.55
1012.9905	2863.8395	4360.3	3476.25
1013.1076	2864.9808	4389	3503.75
1013.2247	2866.1214	4404.9	3521.15
1013.3417	2867.2614	4430.2	3543.6
1013.4587	2868.4007	4432.35	3545.6
1013.5757	2869.5393	4423.65	3536.45
1013.6926	2870.6773	4450.25	3562.6
1013.8095	2871.8146	4459.3	3570.6
1013.9263	2872.9513	4449	3559
1014.0431	2874.0874	4465.15	3579.65
1014.1599	2875.2227	4424.1	3538.45
1014.2766	2876.3574	4412.5	3527.05
1014.3933	2877.4915	4395.95	3512.75
1014.51	2878.6249	4372.2	3488.9
1014.6266	2879.7577	4331.65	3446.3
1014.7431	2880.8898	4317.85	3422.8
1014.8596	2882.0212	4279.75	3394.5
1014.9761	2883.152	4273.85	3386.6
1015.0925	2884.2821	4256.95	3372.55
1015.2089	2885.4116	4252.85	3368.05
1015.3253	2886.5405	4245.85	3360.45
1015.4416	2887.6686	4261.2	3374.3
1015.5579	2888.7962	4240.85	3357.15
1015.6741	2889.923	4260.9	3376.1
1015.7903	2891.0493	4259.8	3377.2
1015.9065	2892.1748	4276.6	3389.75
1016.0226	2893.2997	4296.15	3411.5
1016.1387	2894.424	4283.75	3400.25
1016.2547	2895.5476	4298.3	3412.4
1016.3707	2896.6706	4347	3462.15
1016.4866	2897.7929	4356.8	3469.85
1016.6025	2898.9145	4394.65	3507.85
1016.7184	2900.0355	4415.05	3527.35
1016.8342	2901.1559	4447.15	3561.65
1016.95	2902.2756	4469.55	3587.4
1017.0658	2903.3946	4507.3	3623.8
1017.1815	2904.513	4521.75	3634.65
1017.2971	2905.6308	4553	3669
1017.4127	2906.7479	4562.05	3677.3
1017.5283	2907.8643	4585.1	3699.25
1017.6439	2908.9801	4592.4	3707.2
1017.7594	2910.0953	4607.55	3722.4
1017.8748	2911.2098	4602.05	3715.6
1017.9902	2912.3236	4587.55	3693.6
1018.1056	2913.4368	4569.75	3681.1
1018.2209	2914.5494	4559.8	3675.35
1018.3362	2915.6613	4515.55	3625.1
1018.4515	2916.7725	4502.15	3614.15
1018.5667	2917.8831	4452.05	3567.85
1018.6819	2918.9931	4440.9	3553
1018.797	2920.1024	4404.7	3520.75
1018.9121	2921.211	4376.9	3490.8
1019.0271	2922.319	4365.3	3479.2
1019.1421	2923.4264	4332.45	3448.2
1019.2571	2924.5331	4330.15	3447.55
1019.372	2925.6391	4298.9	3416.15
1019.4869	2926.7445	4295.3	3413.15
1019.6017	2927.8493	4299	3415.1
1019.7165	2928.9534	4275.35	3391.7
1019.8313	2930.0569	4259.5	3371.85
1019.946	2931.1597	4260	3374.85
1020.0606	2932.2619	4238.4	3354.9
1020.1753	2933.3634	4228.25	3344.25
1020.2899	2934.4643	4226.7	3336.65
1020.4044	2935.5645	4186.8	3298.7
1020.5189	2936.6641	4152.95	3264.35
1020.6334	2937.763	4112.45	3230
1020.7478	2938.8613	4065.35	3180.5
1020.8622	2939.959	4001.1	3113.45
1020.9765	2941.056	3914.4	3030.85
1021.0908	2942.1523	3839	2953.9
1021.2051	2943.248	3719.55	2834.05
1021.3193	2944.3431	3636.55	2754.5
1021.4334	2945.4375	3534.45	2650.5
1021.5476	2946.5313	3436.55	2554.85
1021.6617	2947.6244	3319.5	2435.1
1021.7757	2948.7169	3218.9	2333.75
1021.8897	2949.8087	3127.05	2244.2
1022.0037	2950.8999	3031.1	2147.45
1022.1176	2951.9904	2942.7	2058.3
1022.2315	2953.0803	2884.85	1998.95
1022.3453	2954.1696	2803	1917.5
1022.4591	2955.2582	2744.2	1860.75
1022.5728	2956.3462	2693.85	1811
1022.6865	2957.4335	2659.45	1775.6
1022.8002	2958.5202	2618.6	1734.5
1022.9138	2959.6062	2593.55	1710.5
1023.0274	2960.6916	2572.6	1688.9
1023.141	2961.7764	2545.75	1661.15
1023.2545	2962.8605	2528.6	1641.7
1023.3679	2963.9439	2519.75	1637.95
1023.4813	2965.0267	2505.65	1622.1
1023.5947	2966.1089	2517.1	1609.65
1023.708	2967.1905	2491.6	1610.2
1023.8213	2968.2714	2483.7	1598.6
1023.9346	2969.3516	2475.05	1592.05
1024.0478	2970.4312	2471.7	1581.75
1024.1609	2971.5102	2450.55	1567.95
1024.274	2972.5885	2472	1587.3
1024.3871	2973.6662	2460.5	1571.6
1024.5002	2974.7432	2460.05	1576.8
1024.6132	2975.8196	2448.75	1565.9
1024.7261	2976.8954	2450	1566.2
1024.839	2977.9705	2431.5	1549.35
1024.9519	2979.045	2411.5	1528.45
1025.0647	2980.1188	2384.75	1503.6
1025.1775	2981.192	2366.75	1487.45
1025.2902	2982.2645	2342.3	1457.35
1025.4029	2983.3364	2321.2	1437.25
1025.5156	2984.4077	2286.75	1402.95
1025.6282	2985.4783	2271.45	1382.6
1025.7407	2986.5483	2214.55	1330.85
1025.8532	2987.6177	2192.1	1308.55
1025.9657	2988.6864	2150.65	1265.8
1026.0782	2989.7545	2122.75	1239.8
1026.1906	2990.8219	2074.45	1192.9
1026.3029	2991.8887	2044.25	1159.2
1026.4152	2992.9548	2019.5	1134.5
1026.5275	2994.0204	1976.8	1094.55
1026.6397	2995.0852	1960.15	1077.3
1026.7519	2996.1495	1919.45	1035.25
1026.864	2997.2131	1905.5	1023.55
1026.9761	2998.276	1873.35	991.35
1027.0882	2999.3383	1856.95	973.35
1027.2002	3000.4	1839.55	955.25
1027.3122	3001.4611	1824.2	941.05
1027.4241	3002.5215	1803.35	921.4
1027.536	3003.5812	1789.55	906.25
1027.6478	3004.6404	1774.95	892.55
1027.7596	3005.6989	1767.75	882.4
1027.8714	3006.7567	1749.45	866.6
1027.9831	3007.8139	1768.5	863.05
1028.0947	3008.8705	1728.8	846.15
1028.2064	3009.9264	1743.4	842.95
1028.3179	3010.9818	1724.95	841.15
1028.4295	3012.0364	1723.1	839.85
1028.541	3013.0905	1717.4	834.1
1028.6524	3014.1439	1723.15	840.15
1028.7638	3015.1966	1714.5	831.55
1028.8752	3016.2487	1708.55	825.2
1028.9865	3017.3002	1713.15	821.55
1029.0978	3018.3511	1707.05	826.95
1029.209	3019.4013	1712.8	830.35
1029.3202	3020.4509	1702.95	821.6
1029.4314	3021.4998	1705.15	822.3
1029.5425	3022.5481	1695.65	815.05
1029.6535	3023.5958	1700.15	817
1029.7645	3024.6428	1698.15	815.65
1029.8755	3025.6892	1708.05	824.5
1029.9864	3026.735	1708.3	824.55
1030.0973	3027.7802	1707.75	823.35
1030.2082	3028.8247	1699.95	818.5
1030.319	3029.8685	1705.1	820.9
1030.4297	3030.9118	1708.8	826.1
1030.5404	3031.9544	1703.5	821.9
1030.6511	3032.9963	1711.75	829
1030.7617	3034.0376	1717.35	835.2
1030.8723	3035.0783	1721.85	836
1030.9829	3036.1184	1716.5	833
1031.0934	3037.1578	1716.95	835.65
1031.2038	3038.1966	1734.6	849.95
1031.3142	3039.2348	1725.75	841.9
1031.4246	3040.2723	1726.85	835.6
1031.5349	3041.3092	1712.15	831.1
1031.6452	3042.3455	1703.05	820.85
1031.7554	3043.3811	1713.1	829.3
1031.8656	3044.4161	1705.8	822
1031.9758	3045.4505	1693.6	811.8
1032.0859	3046.4842	1684.15	800.8
1032.1959	3047.5173	1679.25	799.15
1032.3059	3048.5498	1673.3	789.05
1032.4159	3049.5816	1668.7	787.75
1032.5258	3050.6128	1659.35	775.45
1032.6357	3051.6434	1654.15	768.15
1032.7455	3052.6734	1640.25	756.85
1032.8553	3053.7027	1642	759.5
1032.9651	3054.7314	1631	748.35
1033.0748	3055.7594	1624.7	742.6
1033.1845	3056.7868	1618.7	733.9
1033.2941	3057.8136	1604.6	723.1
1033.4037	3058.8398	1600.25	719
1033.5132	3059.8653	1588.25	704.75
1033.6227	3060.8902	1588.3	706.95
1033.7321	3061.9145	1586.1	703.55
1033.8415	3062.9381	1575.45	693.45
1033.9509	3063.9612	1582.15	685.75
1034.0602	3064.9835	1557.5	676.25
1034.1694	3066.0053	1558.95	675.05
1034.2787	3067.0264	1537	653.85
1034.3878	3068.0469	1535	652.55
1034.497	3069.0668	1530.55	644.3
1034.6061	3070.086	1518.4	638.2
1034.7151	3071.1046	1505.2	619.55
1034.8241	3072.1226	1501.7	618.7
1034.9331	3073.1399	1480.85	599.05
1035.042	3074.1567	1471.4	586.5
1035.1508	3075.1727	1473.6	588.55
1035.2597	3076.1882	1448	566.55
1035.3684	3077.203	1442.9	560.85
1035.4772	3078.2173	1436.45	554.5
1035.5859	3079.2308	1433.7	547.2
1035.6945	3080.2438	1422.3	539.2
1035.8031	3081.2561	1409.3	527.75
1035.9117	3082.2678	1397.8	516.85
1036.0202	3083.2789	1395.4	513.5
1036.1286	3084.2893	1388.85	507.35
1036.2371	3085.2991	1372.15	489.55
1036.3454	3086.3083	1373.1	486.6
1036.4538	3087.3169	1368.05	485.35
1036.562	3088.3248	1364.35	481.55
1036.6703	3089.3321	1359.35	475.45
1036.7785	3090.3388	1342.05	459.85
1036.8866	3091.3449	1339.1	458.8
1036.9948	3092.3503	1338.55	452.45
1037.1028	3093.3551	1332.65	452.85
1037.2108	3094.3593	1328.9	445.6
1037.3188	3095.3629	1321.6	442.65
1037.4267	3096.3658	1323.05	440
1037.5346	3097.3681	1318.95	437.65
1037.6425	3098.3698	1318.05	433.35
1037.7503	3099.3708	1310.3	422.7
1037.858	3100.3713	1303.8	422.3
1037.9657	3101.3711	1298.2	418.5
1038.0734	3102.3702	1435	411.45
1038.181	3103.3688	1302.05	419.5
1038.2886	3104.3667	1289.4	410.1
1038.3961	3105.364	1292	413.25
1038.5036	3106.3607	1288.7	406.9
1038.611	3107.3568	1280.8	399.5
1038.7184	3108.3522	1273.25	391.4
1038.8257	3109.347	1281.15	400.35
1038.933	3110.3412	1276.95	392.35
1039.0403	3111.3348	1271.2	388.6
1039.1475	3112.3277	1259.4	377.35
1039.2547	3113.32	1263.05	383.65
1039.3618	3114.3117	1268.55	385.55
1039.4689	3115.3028	1258.1	377.15
1039.5759	3116.2932	1254.3	370.3
1039.6829	3117.2831	1259.35	370.9
1039.7898	3118.2723	1255.95	374.4
1039.8967	3119.2608	1252.1	370.15
1040.0035	3120.2488	1251.95	370
1040.1103	3121.2361	1254.6	372.85
1040.2171	3122.2229	1247.95	367.05
1040.3238	3123.209	1241.55	357.9
1040.4305	3124.1944	1238.05	356.65
1040.5371	3125.1793	1238.95	353.75
1040.6437	3126.1635	1233.15	350.35
1040.7502	3127.1471	1233.35	351.4
1040.8567	3128.1301	1236.75	356.55
1040.9631	3129.1125	1231.05	348.4
1041.0695	3130.0942	1226.7	344.7
1041.1759	3131.0753	1237.6	348.05
1041.2822	3132.0558	1226.7	342.7
1041.3884	3133.0357	1220.55	338.65
1041.4946	3134.015	1214.05	332
1041.6008	3134.9936	1220.7	336.45
1041.7069	3135.9716	1235.5	333.3
1041.813	3136.949	1211.3	329.05
1041.919	3137.9258	1229.3	329.75
1042.025	3138.902	1216	328.55
1042.1309	3139.8775	1207.55	327.85
1042.2368	3140.8524	1209.95	328.45
1042.3427	3141.8267	1206.2	323.95
1042.4485	3142.8004	1199.6	319.75
1042.5542	3143.7735	1209.1	319.55
1042.6599	3144.7459	1206.55	322.35
1042.7656	3145.7178	1193.3	308.25
1042.8712	3146.689	1190.95	310.7
1042.9768	3147.6596	1195.85	311.25
1043.0823	3148.6295	1190.05	307.5
1043.1878	3149.5989	1190.45	307.65
1043.2932	3150.5676	1188.5	308
1043.3986	3151.5357	1183.6	306.45
1043.5039	3152.5032	1181.8	302.2
1043.6092	3153.4701	1178.1	295.9
1043.7145	3154.4364	1178.1	293.1
1043.8197	3155.402	1169.45	288.75
1043.9248	3156.367	1169.75	286.75
1044.03	3157.3315	1213.5	288.9
1044.135	3158.2952	1169.8	287.95
1044.24	3159.2584	1164.4	284.8
1044.345	3160.221	1169.55	286.3
1044.4499	3161.1829	1165.8	284.4
1044.5548	3162.1442	1162.35	281.7
1044.6596	3163.105	1160.25	281
1044.7644	3164.065	1161.6	281.35
1044.8692	3165.0245	1157.6	273.4
1044.9739	3165.9834	1148.3	269.9
1045.0785	3166.9416	1158.1	276.3
1045.1831	3167.8993	1152.1	271.3
1045.2877	3168.8563	1150.1	268.4
1045.3922	3169.8127	1147.95	266.95
1045.4966	3170.7684	1149.45	268.8
1045.6011	3171.7236	1139.5	258.45
1045.7054	3172.6782	1143.6	261.35
1045.8098	3173.6321	1142.85	263.1
1045.914	3174.5854	1149.05	263.45
1046.0183	3175.5381	1139.3	259.25
1046.1224	3176.4902	1137.35	258.15
1046.2266	3177.4417	1134.75	253.95
1046.3307	3178.3926	1132.25	255.55
1046.4347	3179.3428	1134.55	253.6
1046.5387	3180.2924	1135.15	254.35
1046.6427	3181.2415	1129.9	248.8
1046.7466	3182.1899	1130.8	247.45
1046.8504	3183.1377	1128.2	246.15
1046.9542	3184.0848	1133.75	247.6
1047.058	3185.0314	1122.85	239.85
1047.1617	3185.9773	1122.35	239.85
1047.2654	3186.9227	1125.45	244.05
1047.369	3187.8674	1124	242.95
1047.4726	3188.8115	1121.9	240.35
1047.5761	3189.755	1121.65	241.95
1047.6796	3190.6979	1119.35	239.35
1047.783	3191.6402	1114.35	235.1
1047.8864	3192.5818	1118	238
1047.9898	3193.5229	1121.6	234.6
1048.0931	3194.4633	1113.6	231.3
1048.1963	3195.4031	1114.75	233.2
1048.2995	3196.3423	1111.5	231.35
1048.4027	3197.2809	1113.85	232.1
1048.5058	3198.2189	1110.6	229.55
1048.6089	3199.1563	1112.5	223.9
1048.7119	3200.0931	1105.6	226.7
1048.8148	3201.0292	1104	224.25
1048.9178	3201.9648	1105.65	225.3
1049.0206	3202.8997	1103.85	219
1049.1235	3203.834	1102.1	222.3
1049.2262	3204.7677	1099.4	219.4
1049.329	3205.7008	1099.45	215.95
1049.4317	3206.6333	1095.4	216.15
1049.5343	3207.5652	1095.65	213.8
1049.6369	3208.4964	1096.55	214.25
1049.7394	3209.4271	1098.45	217.45
1049.8419	3210.3571	1087.8	206.45
1049.9444	3211.2865	1095.85	215.35
1050.0468	3212.2154	1090.05	207.95
1050.1491	3213.1436	1095.25	213.15
1050.2514	3214.0712	1091.85	202.6
1050.3537	3214.9982	1088.55	209.35
1050.4559	3215.9246	1082.35	199.8
1050.5581	3216.8503	1082.4	202.5
1050.6602	3217.7755	1088.1	206.5
1050.7623	3218.7001	1086.5	206.3
1050.8643	3219.624	1081.2	200.85
1050.9663	3220.5473	1084.85	204.9
1051.0682	3221.4701	1080.1	199.45
1051.1701	3222.3922	1086.15	204.35
1051.2719	3223.3137	1078.9	198.25
1051.3737	3224.2346	1075.65	196.1
1051.4754	3225.1549	1077.55	197.25
1051.5771	3226.0746	1071.55	190.45
1051.6788	3226.9937	1074.35	193.1
1051.7804	3227.9121	1068.65	188.7
1051.8819	3228.83	1071.35	192.25
1051.9834	3229.7473	1074.35	191.8
1052.0849	3230.6639	1072	192.2
1052.1863	3231.5799	1064.9	184.25
1052.2876	3232.4954	1067.85	186.5
1052.3889	3233.4102	1062.75	180.5
1052.4902	3234.3244	1064.65	183.6
1052.5914	3235.238	1061.05	179.95
1052.6926	3236.151	1088.75	182.05
1052.7937	3237.0634	1064.15	184.05
1052.8948	3237.9752	1063.9	184.8
1052.9958	3238.8864	1059.85	177.25
1053.0968	3239.797	1058.5	178.2
1053.1977	3240.7069	1064.5	184.1
1053.2986	3241.6163	1062.6	181.25
1053.3994	3242.5251	1056.8	177.4
1053.5002	3243.4332	1058.2	178.95
1053.6009	3244.3408	1052.75	173.5
1053.7016	3245.2477	1054.6	174.7
1053.8022	3246.154	1056.05	174.7
1053.9028	3247.0598	1057.15	172.75
1054.0034	3247.9649	1046.6	166.45
1054.1039	3248.8694	1051.2	169.7
1054.2043	3249.7733	1048.1	168.65
1054.3047	3250.6766	1048.05	168.3
1054.4051	3251.5793	1050.1	165.4
1054.5054	3252.4814	1047.75	168.45
1054.6056	3253.3829	1041.3	161.15
1054.7058	3254.2838	1043.25	163.9
1054.806	3255.1841	1037.55	159.25
1054.9061	3256.0838	1037.6	157.45
1055.0061	3256.9829	1037.25	157.55
1055.1062	3257.8814	1042.15	160.55
1055.2061	3258.7792	1032.65	152.5
1055.306	3259.6765	1033.25	151.95
1055.4059	3260.5731	1030.7	151.2
1055.5057	3261.4692	1035.65	157
1055.6055	3262.3647	1029.75	148.9
1055.7052	3263.2595	1024.5	143.1
1055.8049	3264.1538	1022.5	142.3
1055.9045	3265.0474	1023.65	142.5
1056.0041	3265.9404	1015.25	137.9
1056.1036	3266.8329	1015.95	136.65
1056.2031	3267.7247	1023.45	133.05
1056.3025	3268.616	1009.3	129.6
1056.4019	3269.5066	1008.55	127.5
1056.5013	3270.3966	1004.95	124.4
1056.6005	3271.286	997.1	118.65
