Software Version:	3.9.2.0
Unit SN:	10000200
Spectrometer SN:	6960
Date:	3/26/2024 2:01:48 PM
Data Line Index:	25
Spectral Points:	2048
Integration time (ms):	125
Averages:	20
Delay (ms):	30000
Sequence Number:	1
Processing:	dark subtract
Laser Power (mW):	300
Laser Current (mA):	820
Laser Diode Temp (C):	25
Laser Case Temp (C):	27.4
System Temp (C):	27.4
Spectrometer Temp (C):	25.3
CCD Temp (C):	0.008
Secondary Temp (C):	20.007
Heatsink Temp (C):	22.835
CCDPCB Temp (C):	36.852
SecondaryPCB Temp (C):	34.362

Wavelength	RamanShift	Raw Counts	Dark Subtracted
787.061	30.1047	619.9	212.5
787.2016	32.3739	626.35	218.75
787.3422	34.6426	639.95	229.95
787.4828	36.9109	658.15	245
787.6235	39.1787	677.3	262.95
787.7642	41.4461	701.65	280.4
787.9049	43.7131	718.15	294.4
788.0456	45.9796	746.6	320.55
788.1863	48.2456	761.15	329.9
788.3271	50.5112	792.4	357.4
788.4679	52.7764	808.95	371.3
788.6087	55.0411	836.85	396.6
788.7496	57.3054	868.35	419.9
788.8904	59.5692	896.65	447.3
789.0313	61.8326	924.45	472.5
789.1722	64.0955	968.9	510.2
789.3132	66.3579	1010.8	550.3
789.4541	68.6199	1057.6	592.35
789.5951	70.8815	1149.2	680.25
789.7361	73.1426	1326.8	855.55
789.8771	75.4032	1787.6	1310.7
790.0181	77.6634	2904.75	2420
790.1592	79.9231	5712.35	5221
790.3003	82.1824	12175.5	11664.4
790.4414	84.4412	25933.2	25393.85
790.5825	86.6995	50170.85	49591.1
790.7237	88.9574	61690.6	61071.75
790.8648	91.2148	64316.95	63665.85
791.006	93.4717	64616.35	63947.65
791.1472	95.7282	64733.1	64053.3
791.2885	97.9842	64798.3	64119.2
791.4297	100.2398	64777.85	64091.3
791.571	102.4949	64764.55	64077.6
791.7123	104.7495	64740.1	64049.4
791.8536	107.0036	64683.05	63987
791.9949	109.2573	64731.25	64035.65
792.1363	111.5105	64668.45	63974.45
792.2777	113.7632	64663.35	63964.9
792.4191	116.0154	64661.55	63958.55
792.5605	118.2672	64688.9	63987.05
792.7019	120.5185	64697.6	63993.6
792.8434	122.7693	64688.25	63980.2
792.9849	125.0197	64582.1	63876.45
793.1264	127.2696	64737.2	64030
793.2679	129.519	64690.35	63980.65
793.4094	131.7679	64743.75	64027.4
793.551	134.0163	64590.7	63867.75
793.6926	136.2642	64645.6	63922.1
793.8342	138.5117	64730.9	64001.85
793.9758	140.7587	64683.05	63951.2
794.1175	143.0052	64687.55	63959
794.2591	145.2512	64593.65	63864.3
794.4008	147.4967	64695.65	63966.35
794.5425	149.7417	64662.3	63927.15
794.6842	151.9863	64650.15	63910.9
794.826	154.2304	64583.15	63840.55
794.9677	156.4739	64635.15	63893.9
795.1095	158.717	64696.45	63951.25
795.2513	160.9596	64630.65	63878.6
795.3931	163.2017	64543.8	63791.7
795.535	165.4433	64617.85	63862.9
795.6768	167.6844	64555.05	63799.25
795.8187	169.925	64597.1	63840.8
795.9606	172.1651	64550.8	63792.3
796.1025	174.4047	64558.8	63795.75
796.2445	176.6439	64536.15	63774
796.3864	178.8825	64526.8	63762.05
796.5284	181.1206	64583.3	63811.1
796.6704	183.3582	64557.3	63780.9
796.8124	185.5954	64497.95	63720.45
796.9544	187.832	64510.7	63726.9
797.0965	190.0681	64453	63672.55
797.2386	192.3037	64551.65	63768.25
797.3806	194.5388	64638.6	63849.25
797.5228	196.7734	64399.05	63609.25
797.6649	199.0075	64599.5	63805.8
797.807	201.2411	64531.55	63733.75
797.9492	203.4742	64638.6	63841.1
798.0914	205.7068	64604.95	63802.95
798.2336	207.9389	64602.3	63799.2
798.3758	210.1704	64592.55	63789.8
798.518	212.4015	64684.55	63881.65
798.6603	214.632	64570.85	63766.4
798.8025	216.862	64703.6	63908.1
798.9448	219.0915	64652.95	63869.05
799.0871	221.3205	64624.6	63840.65
799.2294	223.549	64726.35	63943.4
799.3718	225.777	64720.85	63938.85
799.5141	228.0044	64785.2	63996.35
799.6565	230.2314	64753.55	63972.6
799.7989	232.4578	64768.1	63985.35
799.9413	234.6837	64781.55	63991.85
800.0837	236.909	64966.45	64172.9
800.2262	239.1339	64697.95	63881.5
800.3687	241.3582	64803.85	63995.95
800.5111	243.582	64787.75	63951.7
800.6536	245.8053	64776.85	63955.3
800.7961	248.0281	64786.95	63967.05
800.9387	250.2503	64787.4	63966.5
801.0812	252.472	64718	63892.05
801.2238	254.6932	64776.9	63944.8
801.3664	256.9139	64744.7	63917.35
801.509	259.134	64899.8	64062.35
801.6516	261.3536	64709	63877.55
801.7942	263.5727	64805.5	63966.7
801.9369	265.7912	64734.95	63900.9
802.0795	268.0092	64756.4	63925.7
802.2222	270.2267	64789.7	63956.4
802.3649	272.4436	64711.8	63874.95
802.5076	274.6601	64775.95	63937.1
802.6504	276.8759	64807.75	63971.05
802.7931	279.0913	64752.85	63916.35
802.9359	281.3061	64751.3	63911.7
803.0787	283.5204	64773.3	63928.3
803.2215	285.7341	64763.45	63915.75
803.3643	287.9473	64846.1	63984.9
803.5071	290.16	64781.05	63926.15
803.6499	292.3721	64844.05	64000.3
803.7928	294.5837	64785.2	63936.75
803.9357	296.7947	64755.15	63907.9
804.0786	299.0052	64889.5	64038.05
804.2215	301.2152	64811.55	63964.8
804.3644	303.4246	64852.25	64010.2
804.5074	305.6334	64824.35	63982.1
804.6503	307.8418	64710.05	63861.25
804.7933	310.0495	64723.45	63874
804.9363	312.2568	64703.95	63851.65
805.0793	314.4635	64703.6	63849.05
805.2223	316.6696	64731.7	63876.3
805.3653	318.8752	64785.65	63924.35
805.5084	321.0802	64622.15	63768.4
805.6514	323.2847	64696.2	63834.7
805.7945	325.4887	64689.2	63832.3
805.9376	327.692	64645.25	63786.95
806.0807	329.8949	64687.2	63827.8
806.2238	332.0972	64625.85	63766.5
806.367	334.2989	64647.75	63787.2
806.5101	336.5001	64693.55	63832.25
806.6533	338.7007	64558.35	63693.3
806.7965	340.9008	64622.85	63755.55
806.9397	343.1003	64633	63770.45
807.0829	345.2992	64671.95	63802.7
807.2261	347.4976	64608	63739.2
807.3693	349.6955	64638.35	63763.05
807.5126	351.8927	64588.8	63713.95
807.6559	354.0895	64647.75	63766.1
807.7991	356.2856	64631.85	63754.95
807.9424	358.4812	64684.35	63808.55
808.0857	360.6763	64603.9	63726.65
808.2291	362.8707	64680.45	63799.05
808.3724	365.0646	64622.55	63748.85
808.5158	367.258	64616.9	63740.05
808.6591	369.4508	64566.5	63682.8
808.8025	371.643	64644.6	63758.7
808.9459	373.8346	64618.1	63729.75
809.0893	376.0257	64587.05	63699.7
809.2327	378.2162	64572.9	63685.25
809.3762	380.4062	64520.95	63631.9
809.5196	382.5956	64560.35	63666.8
809.6631	384.7844	64566.9	63678.2
809.8066	386.9726	64579	63686.95
809.9501	389.1603	64587.8	63696.55
810.0936	391.3474	64515.85	63585.8
810.2371	393.5339	64576.05	63687.2
810.3806	395.7199	64488.55	63607.35
810.5241	397.9052	64492.35	63612.25
810.6677	400.09	64507.55	63627.95
810.8113	402.2743	64551.75	63669.7
810.9548	404.4579	64518.7	63641.25
811.0984	406.641	64499.5	63622.75
811.2421	408.8235	64562.7	63685.65
811.3857	411.0054	64578.95	63695.35
811.5293	413.1868	64588.65	63700.9
811.673	415.3675	64556.8	63669.7
811.8166	417.5477	64564.2	63678.85
811.9603	419.7273	64560.95	63674.9
812.104	421.9064	64560.95	63665.35
812.2477	424.0848	64582.15	63690.3
812.3914	426.2627	64592.1	63695.65
812.5351	428.4399	64504.85	63605.6
812.6788	430.6166	64443.6	63540.85
812.8226	432.7928	64488.75	63591.35
812.9663	434.9683	64418.2	63519.85
813.1101	437.1432	64427.85	63533
813.2539	439.3176	64454.55	63560.7
813.3977	441.4914	64375.3	63479.3
813.5415	443.6645	64385.9	63489.6
813.6853	445.8371	64386.9	63488.4
813.8291	448.0091	64343.8	63447.6
813.973	450.1806	64337.45	63439.5
814.1168	452.3514	64342	63447.75
814.2607	454.5216	64311	63404.45
814.4046	456.6913	64350.2	63449.6
814.5485	458.8603	64346.05	63447.7
814.6924	461.0288	64301.85	63408.55
814.8363	463.1967	64337.6	63446.15
814.9802	465.3639	64350.05	63453.3
815.1241	467.5306	64256.65	63358.8
815.2681	469.6967	64293.45	63400.05
815.412	471.8622	64325	63429.95
815.556	474.0271	64315.1	63417.85
815.7	476.1914	64306	63406.4
815.844	478.3551	64326.9	63428.25
815.988	480.5182	64354.85	63459.95
816.132	482.6807	64295.45	63401.7
816.276	484.8426	64321.45	63435.95
816.4201	487.0039	64359.05	63469.75
816.5641	489.1647	64365.3	63465.3
816.7082	491.3248	64322.7	63423.15
816.8522	493.4843	64403.15	63508.4
816.9963	495.6432	64403	63508.8
817.1404	497.8015	64339.55	63436
817.2845	499.9592	64365.95	63459.8
817.4286	502.1163	64358.15	63454.1
817.5727	504.2728	64345.2	63443.95
817.7168	506.4287	64354.8	63461.75
817.861	508.5839	64295.15	63397.8
818.0051	510.7386	64307.35	63405.7
818.1493	512.8927	64306.95	63401.95
818.2935	515.0461	64272.6	63367.3
818.4377	517.199	64297.3	63389.95
818.5818	519.3512	64282.7	63374.35
818.726	521.5029	64249.05	63335.15
818.8703	523.6539	64282.55	63377.1
819.0145	525.8043	64214.8	63307.95
819.1587	527.9541	64266.65	63355.85
819.303	530.1033	64266.85	63361.25
819.4472	532.2519	64234.45	63323.85
819.5915	534.3999	64265.85	63360.5
819.7357	536.5472	64312.55	63403.75
819.88	538.694	64264.8	63362.9
820.0243	540.8401	64341.6	63434.35
820.1686	542.9856	64336.85	63418.9
820.3129	545.1305	64350.85	63429.9
820.4572	547.2748	64319.25	63395.2
820.6016	549.4185	64314.35	63389.7
820.7459	551.5615	64311.25	63392.6
820.8902	553.704	64295.4	63372.35
821.0346	555.8458	64277.8	63362.4
821.1789	557.987	64279.05	63361.85
821.3233	560.1276	64286.65	63365.75
821.4677	562.2675	64259.6	63340.9
821.6121	564.4069	64273.5	63355.05
821.7565	566.5456	64288.1	63373.4
821.9009	568.6837	64245.25	63328.45
822.0453	570.8212	64256.45	63340.9
822.1897	572.958	64157.6	63239.15
822.3342	575.0942	64199.6	63285.15
822.4786	577.2299	64162.75	63253.8
822.6231	579.3648	64157.8	63256.85
822.7675	581.4992	64111.95	63216.6
822.912	583.6329	64113.45	63219.3
823.0565	585.766	64126.65	63229.9
823.201	587.8985	64170.45	63261.6
823.3454	590.0304	64066.2	63145.6
823.4899	592.1616	64120.3	63203.5
823.6345	594.2922	64078.2	63160.75
823.779	596.4222	63984.35	63061.65
823.9235	598.5515	63983.25	63062.35
824.068	600.6802	64028.45	63104
824.2126	602.8083	63926.35	63008.1
824.3571	604.9358	63922.65	63004.45
824.5017	607.0626	63987.8	63064.2
824.6462	609.1888	63823.8	62898.6
824.7908	611.3144	63927	62997.9
824.9354	613.4393	63862.5	62935.35
825.08	615.5636	63786.35	62862.65
825.2246	617.6873	63844.35	62918.55
825.3692	619.8103	63748.15	62823.15
825.5138	621.9327	63842.8	62917.9
825.6584	624.0544	63849.05	62932.15
825.803	626.1756	63775.65	62857.1
825.9477	628.2961	63771.1	62848.95
826.0923	630.4159	63719.5	62796.45
826.237	632.5351	63692.7	62767.5
826.3816	634.6537	63867.6	62944.1
826.5263	636.7716	63658.2	62728.4
826.6709	638.8889	63720.55	62792.6
826.8156	641.0056	63702.75	62773.8
826.9603	643.1216	63727.35	62795.15
827.105	645.237	63772.8	62845
827.2497	647.3518	63643.5	62722
827.3944	649.4659	63706.15	62787.95
827.5391	651.5793	63699.9	62777.65
827.6838	653.6922	63732.1	62814.05
827.8285	655.8043	63560.65	62637.05
827.9733	657.9159	63755.4	62834.35
828.118	660.0268	63395.5	62472.7
828.2627	662.137	63603.35	62680.15
828.4075	664.2466	63614.5	62681.25
828.5522	666.3556	63526.75	62599.4
828.697	668.4639	63577.7	62652.6
828.8418	670.5716	63502.4	62581.05
828.9865	672.6786	63585.7	62656.7
829.1313	674.785	63475.15	62545.25
829.2761	676.8907	63478.45	62554.2
829.4209	678.9958	63533.95	62610.5
829.5657	681.1002	63549	62624.7
829.7105	683.204	63425.8	62487.8
829.8553	685.3072	63335.5	62401.85
830.0001	687.4097	63407.55	62480.55
830.1449	689.5115	63345.95	62413.25
830.2898	691.6127	63460.9	62532.65
830.4346	693.7132	63339	62415.8
830.5794	695.8131	63348.65	62399.5
830.7243	697.9123	63370.7	62433.75
830.8691	700.0109	63383.8	62447
831.014	702.1089	63215.55	62284.3
831.1588	704.2061	63291.3	62358.05
831.3037	706.3028	63267.8	62336.45
831.4486	708.3987	63299.65	62365.35
831.5935	710.4941	63243.95	62313.75
831.7383	712.5887	63352	62421.25
831.8832	714.6827	63281.55	62346.75
832.0281	716.7761	63405.4	62476.65
832.173	718.8688	63437.95	62507.9
832.3179	720.9608	63335.85	62401.05
832.4628	723.0522	63361.85	62421.45
832.6077	725.1429	63267.5	62334.85
832.7527	727.233	63468.95	62535.9
832.8976	729.3224	62910.05	61977.05
833.0425	731.4112	63153.2	62220.3
833.1874	733.4993	63133.6	62201.65
833.3324	735.5867	63122.95	62190.55
833.4773	737.6735	62947.2	62014
833.6222	739.7596	62788.4	61853.65
833.7672	741.845	62750.85	61816.2
833.9122	743.9298	63004.6	62068.7
834.0571	746.014	62728.65	61795.4
834.2021	748.0974	62544.55	61602.05
834.347	750.1802	62886.2	61948.4
834.492	752.2624	62422.5	61486.7
834.637	754.3439	62479.6	61540.6
834.782	756.4247	62608.05	61662.45
834.9269	758.5048	62424.95	61490.45
835.0719	760.5843	62521.85	61583
835.2169	762.6631	62658.9	61719.05
835.3619	764.7413	62585.45	61649.7
835.5069	766.8188	62668.3	61731.6
835.6519	768.8956	62916.4	61975.3
835.7969	770.9718	62910.8	61975.8
835.9419	773.0473	62779.8	61845.6
836.0869	775.1221	62471.25	61536.3
836.232	777.1962	62416.4	61477.45
836.377	779.2697	62097.45	61159.35
836.522	781.3426	62293.2	61335.5
836.667	783.4147	62402.65	61463.6
836.8121	785.4862	62396.8	61459.05
836.9571	787.557	62121.4	61182.4
837.1021	789.6271	62389.3	61449.7
837.2472	791.6966	62062.3	61124.35
837.3922	793.7654	61647.15	60705.95
837.5373	795.8335	61627.25	60690.35
837.6823	797.901	61678.15	60737.25
837.8274	799.9678	61496.5	60555.95
837.9724	802.0339	61382.8	60441.95
838.1175	804.0993	61423.6	60471.65
838.2626	806.1641	61293.85	60355.35
838.4076	808.2282	61260.1	60322.8
838.5527	810.2916	61134.25	60192.8
838.6978	812.3544	61322.6	60387.15
838.8428	814.4164	60903.35	59962.3
838.9879	816.4778	60991.5	60049.6
839.133	818.5385	61028.5	60084.85
839.2781	820.5986	60969.95	60027.75
839.4232	822.658	61012.85	60069.4
839.5682	824.7166	61068.75	60128.9
839.7133	826.7747	60777	59835.4
839.8584	828.832	60950	60011.9
840.0035	830.8886	61130.5	60187.85
840.1486	832.9446	61154.2	60212.2
840.2937	834.9999	60601.35	59659.05
840.4388	837.0545	60838.25	59890.05
840.5839	839.1085	60969.1	60027.15
840.729	841.1618	60798.3	59855.1
840.8741	843.2143	60430.25	59491.8
841.0192	845.2662	60416.95	59475.75
841.1643	847.3175	60508.7	59567.4
841.3095	849.368	59918.15	58977.45
841.4546	851.4179	60362.9	59418.8
841.5997	853.467	59973.05	59031.85
841.7448	855.5155	60143.95	59203.45
841.8899	857.5633	59780.2	58837.65
842.0351	859.6105	59548	58605.5
842.1802	861.6569	59794.55	58852.6
842.3253	863.7027	59314.3	58372.05
842.4704	865.7478	59459.5	58518.65
842.6156	867.7922	59320.5	58376.45
842.7607	869.8359	59601.3	58657.55
842.9058	871.8789	59020.55	58076.5
843.0509	873.9212	59366.2	58389.35
843.1961	875.9629	59398.45	58452.7
843.3412	878.0039	59351.35	58406.65
843.4863	880.0441	59209.65	58272.6
843.6315	882.0837	59199.3	58257.6
843.7766	884.1226	59139.45	58195.2
843.9218	886.1609	59050.4	58108.85
844.0669	888.1984	58815.95	57871.25
844.212	890.2352	59168.75	58228
844.3572	892.2714	58602.75	57653.5
844.5023	894.3069	58850.65	57904.15
844.6475	896.3416	58578.3	57635.55
844.7926	898.3757	58503.3	57560.05
844.9377	900.4091	57876.65	56931.05
845.0829	902.4418	58604.8	57657.35
845.228	904.4739	58153.15	57205.3
845.3732	906.5052	58253.6	57311.3
845.5183	908.5358	57884.4	56940.6
845.6635	910.5658	57687.95	56742.65
845.8086	912.595	57594.75	56649.55
845.9538	914.6236	56957.55	56011
846.0989	916.6515	57830.2	56885.3
846.2441	918.6786	56814.15	55865.05
846.3892	920.7051	57064.45	56120.3
846.5344	922.7309	56955.6	56012.35
846.6795	924.756	57089.35	56146.95
846.8246	926.7804	56807.35	55862.15
846.9698	928.8041	56149.25	55204
847.1149	930.8272	56585.25	55640.8
847.2601	932.8495	56556.5	55611.3
847.4052	934.8711	56053.35	55106.7
847.5504	936.892	55772.65	54826.5
847.6955	938.9123	55834.65	54889.6
847.8407	940.9318	55486.8	54544.7
847.9858	942.9506	55367.55	54423.7
848.131	944.9688	55412.7	54470.4
848.2761	946.9862	54671.35	53728.9
848.4213	949.003	54884.25	53941.75
848.5664	951.019	54284.4	53343.05
848.7115	953.0344	54331.1	53383.1
848.8567	955.0491	54199.05	53253.85
849.0018	957.063	54429	53482.35
849.147	959.0763	54557.5	53605.65
849.2921	961.0888	54113.1	53168.25
849.4373	963.1007	54362.75	53418.95
849.5824	965.1119	54390.75	53451.95
849.7275	967.1223	54009.4	53075.25
849.8727	969.1321	54352.05	53420.35
850.0178	971.1412	53812.5	52876.3
850.1629	973.1495	53570.45	52631.2
850.3081	975.1572	53802.55	52809.95
850.4532	977.1641	53636.4	52693.75
850.5983	979.1704	53470.05	52524.9
850.7435	981.1759	53443.1	52495.4
850.8886	983.1808	53160.65	52214.25
851.0337	985.1849	53153.15	52196.7
851.1788	987.1884	53265.05	52318.45
851.324	989.1911	53521.9	52578.2
851.4691	991.1932	52852.6	51910.8
851.6142	993.1945	52929.2	51986.95
851.7593	995.1951	53041.25	52096.8
851.9045	997.1951	52593.75	51644.35
852.0496	999.1943	52356.1	51412.5
852.1947	1001.1928	52158.05	51213.9
852.3398	1003.1906	52196.2	51252.65
852.4849	1005.1877	51780.4	50835.3
852.63	1007.1841	51592.25	50651.2
852.7751	1009.1798	51393.1	50450.85
852.9202	1011.1748	51220.4	50275.5
853.0653	1013.1691	50957.65	50014.2
853.2104	1015.1627	50193.5	49253.55
853.3555	1017.1556	50046.45	49105.7
853.5006	1019.1477	50052.7	49115.25
853.6457	1021.1392	49588.5	48652.7
853.7908	1023.1299	49135.3	48201.5
853.9359	1025.12	49227.8	48296.15
854.081	1027.1093	48951.35	48029.8
854.2261	1029.0979	48957.75	48035.95
854.3712	1031.0859	48821.1	47897.15
854.5163	1033.0731	48477.5	47545.75
854.6613	1035.0596	48499.5	47564.35
854.8064	1037.0454	48159.65	47223.65
854.9515	1039.0304	47907.85	46970.7
855.0965	1041.0148	47544.9	46603.35
855.2416	1042.9985	47414.35	46470.6
855.3867	1044.9814	47418.95	46476.85
855.5317	1046.9636	47040.35	46101.35
855.6768	1048.9452	46921.95	45986.4
855.8219	1050.926	46846.95	45908.3
855.9669	1052.9061	46697.15	45759.05
856.112	1054.8855	46656.25	45716.3
856.257	1056.8642	46460.9	45521.6
856.4021	1058.8421	46472.65	45527.55
856.5471	1060.8194	46336.95	45396.35
856.6921	1062.7959	46208.1	45265.7
856.8372	1064.7717	46174.5	45232.05
856.9822	1066.7469	46043.7	45104.2
857.1272	1068.7213	45994.1	45052
857.2723	1070.695	45851.55	44911.55
857.4173	1072.6679	45557	44615.5
857.5623	1074.6402	45518.5	44579.9
857.7073	1076.6117	45447.55	44499.2
857.8523	1078.5826	45359.45	44417.7
857.9973	1080.5527	45205	44262.85
858.1423	1082.5221	45101.05	44158.5
858.2873	1084.4908	45150.7	44212.05
858.4323	1086.4587	45163.35	44222.55
858.5773	1088.426	45178.2	44237.9
858.7223	1090.3925	44991.2	44045.65
858.8673	1092.3584	44889.75	43950.65
859.0123	1094.3235	44531.55	43595.7
859.1573	1096.2879	44401.9	43467.1
859.3022	1098.2515	44345.4	43409.25
859.4472	1100.2145	44370.5	43432.1
859.5922	1102.1767	44245.1	43304.75
859.7371	1104.1382	44329.05	43389.75
859.8821	1106.099	44400.7	43461
860.027	1108.0591	44367	43431.65
860.172	1110.0185	44281.9	43338.9
860.3169	1111.9771	44362.35	43423.8
860.4619	1113.9351	44004.85	43066.1
860.6068	1115.8923	43661.1	42723.55
860.7517	1117.8488	43291.75	42349.35
860.8967	1119.8045	42847.4	41908.1
861.0416	1121.7596	42714.5	41775.75
861.1865	1123.7139	42476.3	41541.9
861.3314	1125.6675	42428.15	41490.5
861.4763	1127.6204	42429.65	41492.25
861.6212	1129.5726	42236.4	41293.95
861.7661	1131.524	42218.45	41277.4
861.911	1133.4748	42130.5	41193.05
862.0559	1135.4248	41971.2	41033.15
862.2008	1137.3741	41856.45	40918.1
862.3457	1139.3226	41703.75	40764.65
862.4905	1141.2705	41660.4	40725.3
862.6354	1143.2176	41364.1	40418.75
862.7803	1145.164	41315.75	40374.95
862.9251	1147.1097	41187.15	40250.25
863.07	1149.0546	41170.3	40231.85
863.2148	1150.9989	41070.55	40132.9
863.3597	1152.9424	40911.25	39971.6
863.5045	1154.8852	40668.75	39726.65
863.6493	1156.8272	40490.35	39552.3
863.7942	1158.7686	40426.15	39478.65
863.939	1160.7092	40167.3	39226.9
864.0838	1162.6491	40046.6	39105.1
864.2286	1164.5883	40111.85	39171.75
864.3734	1166.5267	40031.95	39093.35
864.5182	1168.4644	40084.2	39144.85
864.663	1170.4014	40118.65	39174.9
864.8078	1172.3377	40300.1	39367.25
864.9526	1174.2732	40474.75	39538.05
865.0974	1176.2081	40596.65	39659.25
865.2421	1178.1421	40700.25	39759.75
865.3869	1180.0755	40844.95	39907.5
865.5317	1182.0082	40811.8	39876.75
865.6764	1183.9401	40755.6	39816.3
865.8212	1185.8713	40521.95	39590.5
865.9659	1187.8017	40235.5	39308.75
866.1106	1189.7315	39965.5	39046.05
866.2554	1191.6605	39548.7	38628.55
866.4001	1193.5888	39208.9	38283.55
866.5448	1195.5163	39048.7	38119.25
866.6895	1197.4432	38860.35	37927.2
866.8342	1199.3693	38723.35	37791.25
866.9789	1201.2947	38558.85	37618.8
867.1236	1203.2193	38341.25	37407.15
867.2683	1205.1432	38391.2	37456
867.413	1207.0664	38272.85	37339.05
867.5576	1208.9889	38143.7	37206.95
867.7023	1210.9106	38049.35	37114.2
867.847	1212.8316	37917.95	36981.5
867.9916	1214.7519	37932.4	36986.15
868.1363	1216.6715	37772.7	36837.15
868.2809	1218.5903	37733.65	36797.3
868.4255	1220.5084	37586	36653.15
868.5701	1222.4257	37586.35	36654.45
868.7148	1224.3424	37365.45	36434.85
868.8594	1226.2583	37333.9	36399.45
869.004	1228.1735	37301.4	36365.8
869.1486	1230.0879	37229.05	36298
869.2932	1232.0016	37218.05	36283.75
869.4377	1233.9146	37148.95	36213.9
869.5823	1235.8269	36961.45	36030.6
869.7269	1237.7384	36865.65	35930.75
869.8715	1239.6492	36533.2	35599.35
870.016	1241.5592	36483.5	35548.1
870.1606	1243.4686	36303	35370.9
870.3051	1245.3772	36176.25	35241.9
870.4496	1247.285	36048.35	35115
870.5941	1249.1922	35930.1	34997
870.7387	1251.0986	35826.2	34894.25
870.8832	1253.0042	35730.1	34797.1
871.0277	1254.9092	35711.3	34779.95
871.1722	1256.8134	35658.9	34730.65
871.3167	1258.7169	35766.35	34834.7
871.4611	1260.6196	35740.75	34810.95
871.6056	1262.5216	35951.5	35019.5
871.7501	1264.4229	35987.2	35055.1
871.8945	1266.3234	35995.35	35063.85
872.039	1268.2232	36000.7	35069.25
872.1834	1270.1223	35963.05	35030.5
872.3278	1272.0207	35870.4	34938.45
872.4723	1273.9183	35734.35	34795.35
872.6167	1275.8151	35591.4	34657.75
872.7611	1277.7113	35440.7	34508.15
872.9055	1279.6067	35316.1	34381.95
873.0499	1281.5014	35176.95	34241.1
873.1943	1283.3953	35092.6	34159.9
873.3386	1285.2885	35064.85	34133.35
873.483	1287.181	35061.85	34130.85
873.6274	1289.0727	35169.5	34240.4
873.7717	1290.9637	35099.85	34166.25
873.9161	1292.854	35213.2	34279.95
874.0604	1294.7435	35167.8	34235.75
874.2047	1296.6323	35241.05	34308.75
874.349	1298.5204	35316.95	34382.7
874.4933	1300.4077	35393.5	34463.5
874.6376	1302.2943	35374.85	34444.9
874.7819	1304.1802	35398	34470.2
874.9262	1306.0653	35135.6	34200.85
875.0705	1307.9497	34912.7	33980
875.2147	1309.8333	34724.9	33793.9
875.359	1311.7162	34533.1	33602.7
875.5032	1313.5984	34544.8	33610.9
875.6475	1315.4798	34442	33513.6
875.7917	1317.3605	34463.95	33529.2
875.9359	1319.2405	34526.85	33594.85
876.0801	1321.1197	34461.2	33528
876.2243	1322.9982	34250.35	33315.5
876.3685	1324.876	34231.65	33302.55
876.5127	1326.753	33954.2	33021.25
876.6569	1328.6293	33932.3	32996.95
876.801	1330.5048	33966.25	33032.4
876.9452	1332.3796	33826.25	32894.8
877.0893	1334.2537	33766.3	32808.65
877.2335	1336.127	33594.95	32665.5
877.3776	1337.9996	33530.6	32601.6
877.5217	1339.8714	33474.35	32543.5
877.6658	1341.7426	33326.55	32349.45
877.8099	1343.6129	33263.35	32330.45
877.954	1345.4826	33166.2	32234
878.0981	1347.3515	33226.3	32293.8
878.2422	1349.2196	33046.85	32113.8
878.3862	1351.087	33063.25	32133.25
878.5303	1352.9537	33030.75	32099.45
878.6743	1354.8197	33100	32167.9
878.8184	1356.6849	33248.4	32314.8
878.9624	1358.5493	33205.8	32275.25
879.1064	1360.4131	33145.45	32217.2
879.2504	1362.276	33102.4	32174.6
879.3944	1364.1383	32947.3	32018.9
879.5384	1365.9998	32656.75	31720.5
879.6823	1367.8606	32330.6	31398.5
879.8263	1369.7206	32005.6	31071.65
879.9702	1371.5799	31726.6	30796.05
880.1142	1373.4384	31494.05	30563.5
880.2581	1375.2962	31304.95	30373.75
880.402	1377.1533	30972.85	30043
880.5459	1379.0096	30594.1	29669.7
880.6898	1380.8652	30227.05	29300.35
880.8337	1382.7201	29980.75	29052.95
880.9776	1384.5742	29698.75	28770.35
881.1215	1386.4275	29467.6	28539.15
881.2653	1388.2802	29216.9	28287.5
881.4092	1390.132	29093.45	28160.35
881.553	1391.9832	29013.95	28083.25
881.6968	1393.8336	28774.15	27844.9
881.8406	1395.6832	28700.1	27768.75
881.9844	1397.5322	28557.55	27626.8
882.1282	1399.3803	28490.85	27558.2
882.272	1401.2278	28346.4	27417.45
882.4158	1403.0745	28244.9	27317.1
882.5595	1404.9204	28128.35	27198.6
882.7033	1406.7656	28097.2	27165.55
882.847	1408.6101	28000.95	27068.65
882.9908	1410.4538	27884.3	26956.45
883.1345	1412.2968	27921.8	26994
883.2782	1414.139	27818.55	26891.65
883.4219	1415.9805	27847.85	26920.5
883.5656	1417.8213	27797.3	26851.1
883.7092	1419.6613	27808.7	26883.05
883.8529	1421.5006	27913.7	26988.6
883.9965	1423.3391	28052.85	27124.35
884.1402	1425.1769	28177.95	27248.1
884.2838	1427.0139	28584.95	27656.1
884.4274	1428.8502	29004	28073.65
884.571	1430.6858	29384.75	28454.4
884.7146	1432.5206	29592	28664.55
884.8582	1434.3547	29847.9	28921.8
885.0018	1436.188	29838.6	28912.25
885.1453	1438.0206	29711.35	28782.15
885.2889	1439.8524	29466.4	28538.45
885.4324	1441.6835	29350.8	28425.05
885.5759	1443.5139	29212.35	28282.1
885.7194	1445.3435	29049.9	28124.85
885.8629	1447.1724	28993.7	28070.85
886.0064	1449.0005	28901.8	27978.4
886.1499	1450.8279	28752.25	27825.85
886.2933	1452.6545	28718.8	27794.3
886.4368	1454.4804	28696.25	27774
886.5802	1456.3056	28619.6	27685.75
886.7237	1458.13	28532.15	27608.05
886.8671	1459.9536	28332.25	27406.6
887.0105	1461.7766	28018.05	27092.05
887.1539	1463.5987	27599.4	26671.1
887.2972	1465.4202	27232.9	26308.25
887.4406	1467.2409	26919.65	25992.2
887.584	1469.0608	26692.6	25767.9
887.7273	1470.88	26408.7	25482.2
887.8706	1472.6984	26165.05	25239.95
888.0139	1474.5161	25920.45	24991.4
888.1572	1476.3331	25766.3	24840.7
888.3005	1478.1493	25605.55	24683.7
888.4438	1479.9648	25486.55	24561.35
888.5871	1481.7795	25369.9	24444.7
888.7303	1483.5935	25345	24419.05
888.8736	1485.4067	25191.85	24268.15
889.0168	1487.2192	25144.5	24220
889.16	1489.031	25077.55	24149
889.3032	1490.842	24964.3	24039.15
889.4464	1492.6522	24859.8	23933.1
889.5896	1494.4618	24774.5	23849.15
889.7327	1496.2705	24756.75	23831.6
889.8759	1498.0785	24709.65	23784.3
890.019	1499.8858	24653.45	23727.85
890.1622	1501.6924	24547.3	23624.25
890.3053	1503.4981	24498.3	23576.15
890.4484	1505.3032	24475.1	23552.05
890.5914	1507.1075	24412.65	23486.8
890.7345	1508.911	24294.15	23371.45
890.8776	1510.7138	24251.7	23322.4
891.0206	1512.5159	24130.7	23205.65
891.1637	1514.3172	24003.25	23080.55
891.3067	1516.1178	23931.55	23007.65
891.4497	1517.9176	23889.05	22961.6
891.5927	1519.7166	23777.2	22855.9
891.7357	1521.515	23727.8	22798.4
891.8786	1523.3126	23631.35	22706.95
892.0216	1525.1094	23530.25	22605.3
892.1645	1526.9055	23482.95	22562
892.3074	1528.7008	23400.35	22481.05
892.4503	1530.4954	23249.05	22318.15
892.5932	1532.2893	23222.05	22302.8
892.7361	1534.0824	23032.35	22108.05
892.879	1535.8747	23052.55	22135.05
893.0218	1537.6663	22961.75	22043.4
893.1647	1539.4572	22875.6	21953.45
893.3075	1541.2473	22897.7	21978.9
893.4503	1543.0367	22830.75	21915.55
893.5931	1544.8253	22708	21784.6
893.7359	1546.6132	22690.65	21770
893.8787	1548.4003	22580.65	21652.8
894.0214	1550.1867	22615.95	21690.35
894.1642	1551.9723	22537.6	21616.25
894.3069	1553.7572	22516.1	21596.3
894.4496	1555.5414	22494.85	21579.25
894.5923	1557.3247	22479	21562.35
894.735	1559.1074	22491.15	21574.45
894.8777	1560.8893	22498.15	21584.75
895.0204	1562.6705	22505.7	21590.95
895.163	1564.4509	22539.1	21627.95
895.3056	1566.2305	22504.45	21594.05
895.4482	1568.0094	22589	21679.75
895.5908	1569.7876	22560.45	21650
895.7334	1571.565	22558.5	21644.45
895.876	1573.3417	22564.2	21648.65
896.0186	1575.1176	22505.7	21592.65
896.1611	1576.8928	22430.2	21519.8
896.3036	1578.6672	22294.6	21386.55
896.4461	1580.4409	22172.5	21267.7
896.5886	1582.2138	22056.8	21146.75
896.7311	1583.986	21919.7	21006.8
896.8736	1585.7575	21844.1	20932
897.0161	1587.5282	21731	20822.9
897.1585	1589.2981	21663.05	20756.65
897.3009	1591.0673	21617.05	20708.7
897.4433	1592.8358	21600.2	20693.1
897.5857	1594.6035	21577.8	20666.9
897.7281	1596.3704	21477.6	20567.75
897.8705	1598.1366	21489.65	20577.95
898.0128	1599.9021	21445.05	20539.3
898.1551	1601.6668	21422.9	20512.45
898.2975	1603.4308	21465.05	20553.15
898.4398	1605.194	21502.4	20590.35
898.5821	1606.9564	21523.1	20617.4
898.7243	1608.7182	21626.15	20721.4
898.8666	1610.4791	21709.1	20812.15
899.0088	1612.2394	21806.65	20911.45
899.1511	1613.9988	21891.55	20991.15
899.2933	1615.7576	22059.7	21156.85
899.4355	1617.5156	22221.25	21305.1
899.5776	1619.2728	22385.55	21473.85
899.7198	1621.0293	22413.15	21504.6
899.862	1622.785	22380.25	21471.45
900.0041	1624.54	22220.1	21316.75
900.1462	1626.2942	22024.05	21121.95
900.2883	1628.0477	21734.9	20830.9
900.4304	1629.8005	21521.2	20613.9
900.5725	1631.5525	21300.6	20397.9
900.7145	1633.3037	21073.65	20168.2
900.8566	1635.0542	20954.95	20050.65
900.9986	1636.804	20797.8	19894.55
901.1406	1638.553	20715.2	19760.3
901.2826	1640.3013	20637.8	19735.95
901.4245	1642.0488	20526.25	19620.45
901.5665	1643.7955	20527.8	19626.95
901.7085	1645.5416	20534.7	19632.25
901.8504	1647.2868	20559.35	19655.75
901.9923	1649.0313	20581.3	19677.05
902.1342	1650.7751	20670.25	19762.2
902.2761	1652.5181	20759.05	19856.4
902.4179	1654.2604	20854	19950.7
902.5598	1656.0019	21064.85	20163.15
902.7016	1657.7427	21271.75	20369.9
902.8434	1659.4828	21482.45	20578.65
902.9852	1661.222	21612.15	20706
903.127	1662.9606	21565.45	20658.45
903.2687	1664.6984	21368.55	20462.35
903.4105	1666.4354	21073.2	20165.3
903.5522	1668.1717	20601.5	19693.5
903.6939	1669.9072	20093.35	19185.95
903.8356	1671.642	19743.35	18836.2
903.9773	1673.3761	19423.85	18517.3
904.119	1675.1094	19134.05	18227.4
904.2606	1676.8419	18908.7	18004.2
904.4022	1678.5737	18727.45	17821.35
904.5439	1680.3048	18550.35	17644.75
904.6855	1682.0351	18381.25	17475.1
904.827	1683.7646	18247.15	17338.9
904.9686	1685.4934	18144.85	17240.75
905.1101	1687.2215	18081.6	17175.95
905.2517	1688.9488	17975.75	17074.05
905.3932	1690.6754	17853.2	16952.2
905.5347	1692.4012	17824.95	16921.15
905.6761	1694.1263	17781.35	16875.15
905.8176	1695.8506	17677.15	16775.6
905.9591	1697.5742	17617.05	16716.05
906.1005	1699.297	17563.9	16664.45
906.2419	1701.0191	17431.85	16533.35
906.3833	1702.7404	17415.25	16517.4
906.5246	1704.461	17259.55	16358.25
906.666	1706.1808	17220.05	16317.15
906.8073	1707.8999	17176.05	16275.5
906.9487	1709.6182	17109.45	16212.8
907.09	1711.3358	17032.45	16134.1
907.2313	1713.0527	17004.9	16109.65
907.3725	1714.7688	16914.6	16013.15
907.5138	1716.4841	16856.65	15955.1
907.655	1718.1987	16826.6	15920.2
907.7962	1719.9126	16752.55	15852.95
907.9374	1721.6257	16714.55	15817.25
908.0786	1723.338	16664.7	15767.7
908.2198	1725.0496	16570.9	15671.8
908.3609	1726.7605	16537.3	15636.4
908.502	1728.4706	16463.05	15562.85
908.6431	1730.18	16409.4	15511.05
908.7842	1731.8886	16380.8	15484.9
908.9253	1733.5964	16378.45	15461.9
909.0664	1735.3036	16267.55	15367.65
909.2074	1737.0099	16231.45	15332.55
909.3484	1738.7156	16211.9	15316.65
909.4894	1740.4204	16127.65	15227.75
909.6304	1742.1246	16084.6	15185.15
909.7714	1743.8279	16035.55	15137.45
909.9123	1745.5306	16008.15	15111.75
910.0532	1747.2325	15939.8	15043.15
910.1941	1748.9336	15904.15	15007.25
910.335	1750.634	15810.85	14912.5
910.4759	1752.3336	15785.7	14889.6
910.6168	1754.0325	15779.1	14886.35
910.7576	1755.7307	15757.3	14860.95
910.8984	1757.4281	15751.85	14854
911.0392	1759.1247	15697.4	14789.45
911.18	1760.8206	15659.55	14750.7
911.3208	1762.5158	15621.8	14718.7
911.4615	1764.2102	15562.75	14665.1
911.6022	1765.9039	15507.15	14610.4
911.7429	1767.5968	15486.4	14592.25
911.8836	1769.289	15436.15	14541.85
912.0243	1770.9804	15405.05	14507.15
912.1649	1772.6711	15367.6	14469.2
912.3056	1774.361	15314.85	14415.55
912.4462	1776.0502	15314.2	14413.05
912.5868	1777.7386	15257.2	14356.15
912.7274	1779.4263	15190.4	14292.75
912.8679	1781.1132	15201.25	14305
913.0084	1782.7994	15152.25	14258.65
913.149	1784.4849	15123.65	14230.9
913.2895	1786.1696	15070.2	14170.4
913.4299	1787.8535	15049.8	14156.45
913.5704	1789.5367	15005.1	14112.35
913.7108	1791.2192	14992.9	14101.1
913.8513	1792.9009	14956.35	14033.2
913.9917	1794.5818	14888.6	13989.85
914.132	1796.2621	14863.7	13968.8
914.2724	1797.9415	14800.1	13904.65
914.4128	1799.6202	14765.25	13866.15
914.5531	1801.2982	14742.65	13845.05
914.6934	1802.9755	14676.75	13779.35
914.8337	1804.6519	14672.4	13775.55
914.9739	1806.3277	14628.75	13733.6
915.1142	1808.0027	14547.75	13656.15
915.2544	1809.6769	14553.15	13661.95
915.3946	1811.3504	14501.15	13608.75
915.5348	1813.0231	14468.15	13574.9
915.675	1814.6951	14474.2	13580.05
915.8151	1816.3664	14440.9	13543.35
915.9553	1818.0369	14420.6	13523.95
916.0954	1819.7067	14371.05	13476.9
916.2355	1821.3757	14340.75	13444
916.3755	1823.044	14318.75	13420.75
916.5156	1824.7115	14261.95	13365.1
916.6556	1826.3783	14195.55	13300.6
916.7956	1828.0443	14146.05	13251.4
916.9356	1829.7096	14166	13268.35
917.0756	1831.3741	14156.25	13257.9
917.2155	1833.0379	14130.2	13236.2
917.3555	1834.701	14066.2	13170.65
917.4954	1836.3633	14021.1	13128.35
917.6353	1838.0248	14011.35	13118.55
917.7751	1839.6856	13941.75	13047.95
917.915	1841.3457	13970.95	13076.95
918.0548	1843.005	13912.55	13016.5
918.1946	1844.6636	13891	12995.8
918.3344	1846.3214	13844.6	12948.15
918.4742	1847.9785	13851.65	12957.65
918.6139	1849.6349	13787.4	12890.3
918.7537	1851.2904	13768.6	12863.05
918.8934	1852.9453	13758.4	12861.1
919.0331	1854.5994	13719.25	12819.8
919.1727	1856.2528	13735.3	12834.15
919.3124	1857.9054	13655.15	12758.9
919.452	1859.5572	13660.9	12765.95
919.5916	1861.2083	13651.85	12756
919.7312	1862.8587	13651.1	12753.95
919.8708	1864.5084	13617.15	12718.1
920.0103	1866.1572	13559.75	12663.1
920.1498	1867.8054	13494.35	12596.65
920.2893	1869.4528	13489.05	12591.65
920.4288	1871.0994	13428.4	12531.65
920.5683	1872.7453	13376.35	12478.9
920.7077	1874.3905	13375.85	12474.85
920.8471	1876.0349	13311.85	12415.6
920.9865	1877.6786	13318.1	12421.15
921.1259	1879.3215	13298.1	12401.35
921.2653	1880.9637	13262.25	12365.2
921.4046	1882.6051	13221.85	12326.3
921.5439	1884.2458	13217.4	12319.7
921.6832	1885.8858	13136.55	12241.2
921.8225	1887.525	13108.7	12213.15
921.9617	1889.1634	13102.95	12207
922.101	1890.8011	13046.25	12148.35
922.2402	1892.4381	13021.2	12125.7
922.3794	1894.0743	12991.65	12094.55
922.5185	1895.7098	12985.6	12090.7
922.6577	1897.3446	12940.95	12044.2
922.7968	1898.9786	12910.4	12009.5
922.9359	1900.6118	12891.75	11996.1
923.075	1902.2443	12801.15	11902.85
923.214	1903.8761	12783.15	11889.35
923.3531	1905.5071	12750.4	11855.45
923.4921	1907.1374	12675.4	11779.3
923.6311	1908.7669	12674.7	11780.3
923.77	1910.3957	12632.25	11737.65
923.909	1912.0237	12560.7	11667.4
924.0479	1913.651	12527.15	11632.4
924.1868	1915.2776	12516.85	11623.4
924.3257	1916.9034	12494.7	11603.65
924.4646	1918.5285	12412.1	11520.6
924.6034	1920.1528	12353.25	11457.3
924.7422	1921.7764	12373.15	11480.05
924.881	1923.3992	12305.75	11413.25
925.0198	1925.0213	12246.05	11352.6
925.1586	1926.6427	12215.3	11321.25
925.2973	1928.2633	12234.7	11269.15
925.436	1929.8832	12182.05	11287.4
925.5747	1931.5023	12089.35	11196.6
925.7134	1933.1207	12065.05	11169.05
925.852	1934.7383	12046.9	11152.8
925.9906	1936.3552	12015.05	11122.05
926.1292	1937.9714	11992	11097.85
926.2678	1939.5868	11929.5	11034.05
926.4064	1941.2015	11871.8	10976.3
926.5449	1942.8154	11838.4	10941.2
926.6834	1944.4286	11796.35	10899.8
926.8219	1946.041	11733.45	10820.1
926.9604	1947.6528	11684.75	10784.75
927.0988	1949.2637	11633	10741.6
927.2372	1950.8739	11623.95	10731.1
927.3756	1952.4834	11588.9	10695.95
927.514	1954.0921	11587.7	10696.85
927.6523	1955.7001	11558.25	10661.95
927.7907	1957.3074	11486	10596.35
927.929	1958.9139	11465.85	10574.65
928.0673	1960.5197	11409.85	10515.85
928.2055	1962.1247	11355.95	10465.05
928.3438	1963.729	11333.25	10443.5
928.482	1965.3325	11305.05	10390.3
928.6202	1966.9353	11261	10373.9
928.7584	1968.5374	11253.2	10363.55
928.8965	1970.1387	11195.6	10304.9
929.0346	1971.7393	11139.15	10246.55
929.1727	1973.3392	11115.8	10224.55
929.3108	1974.9383	11050.55	10158.25
929.4489	1976.5366	11018.15	10129.35
929.5869	1978.1342	11009.4	10118.05
929.7249	1979.7311	11003.95	10113.25
929.8629	1981.3273	10954.3	10066.7
930.0009	1982.9227	10908.6	10020.3
930.1388	1984.5173	10883.25	9994.35
930.2767	1986.1112	10839.05	9952.15
930.4146	1987.7044	10824.85	9938.15
930.5525	1989.2968	10787.55	9899.45
930.6904	1990.8885	10786.3	9893.9
930.8282	1992.4795	10728.65	9840.75
930.966	1994.0697	10689	9803.25
931.1038	1995.6592	10651.4	9763.05
931.2415	1997.2479	10621.35	9734.35
931.3793	1998.8359	10587.55	9700.7
931.517	2000.4232	10561.5	9677.7
931.6547	2002.0097	10533.8	9652
931.7923	2003.5955	10501.4	9617.15
931.93	2005.1805	10495.35	9607
932.0676	2006.7648	10449.45	9565
932.2052	2008.3484	10427.2	9539.65
932.3427	2009.9312	10428.7	9543.8
932.4803	2011.5133	10367.05	9483.1
932.6178	2013.0946	10340.55	9456.55
932.7553	2014.6752	10311.95	9426.2
932.8928	2016.2551	10300.65	9413.7
933.0302	2017.8342	10256.05	9369.5
933.1676	2019.4126	10226.45	9343.95
933.305	2020.9902	10194.35	9309.5
933.4424	2022.5672	10187.05	9301.7
933.5798	2024.1433	10136.05	9247.2
933.7171	2025.7188	10105.8	9222.4
933.8544	2027.2935	10078.95	9194.05
933.9917	2028.8674	10059.7	9175.3
934.129	2030.4406	9997.95	9116.55
934.2662	2032.0131	9974.8	9092.7
934.4034	2033.5849	9952.25	9064.7
934.5406	2035.1559	9935.4	9051.55
934.6778	2036.7261	9915.4	9029.35
934.8149	2038.2957	9899.65	9011.45
934.952	2039.8645	9871	8983.4
935.0891	2041.4325	9883.7	8995.1
935.2262	2042.9998	9835	8950.95
935.3632	2044.5664	9814.55	8928.75
935.5002	2046.1323	9774.45	8891.1
935.6372	2047.6974	9731.5	8847.75
935.7742	2049.2617	9702.3	8819.5
935.9111	2050.8254	9684.95	8795.7
936.048	2052.3883	9687.7	8801.05
936.1849	2053.9504	9644.55	8758.9
936.3218	2055.5118	9624.1	8737.25
936.4586	2057.0725	9559.45	8671.45
936.5955	2058.6325	9540.45	8656.5
936.7323	2060.1917	9528.4	8646
936.869	2061.7502	9491.95	8603.9
937.0058	2063.3079	9475.65	8594.8
937.1425	2064.8649	9462.75	8575.75
937.2792	2066.4212	9422.1	8537.2
937.4159	2067.9767	9414.1	8528.9
937.5525	2069.5315	9366.25	8480.35
937.6891	2071.0856	9307.2	8422.65
937.8257	2072.6389	9279.25	8394.9
937.9623	2074.1915	9250.4	8367.9
938.0989	2075.7433	9207.65	8321.8
938.2354	2077.2945	9178.55	8294.45
938.3719	2078.8448	9155.35	8271.25
938.5084	2080.3945	9143.6	8257.2
938.6448	2081.9434	9144.55	8257.15
938.7812	2083.4916	9106.5	8217.6
938.9176	2085.039	9082.7	8192.8
939.054	2086.5857	9028.25	8136.25
939.1903	2088.1317	9020.25	8130.35
939.3267	2089.677	9022.45	8131.1
939.463	2091.2215	8987.5	8098.9
939.5992	2092.7652	8956.1	8062.95
939.7355	2094.3083	8933.95	8044.45
939.8717	2095.8506	8928	8039.75
940.0079	2097.3921	8947.45	8061.25
940.1441	2098.933	8896.05	8008.75
940.2802	2100.4731	8871.1	7982.4
940.4163	2102.0124	8893.35	7998.1
940.5524	2103.5511	8831.65	7945
940.6885	2105.089	8811	7921.65
940.8245	2106.6261	8809	7922.85
940.9606	2108.1626	8778.65	7888.25
941.0965	2109.6983	8755.7	7841.45
941.2325	2111.2332	8738.65	7850.2
941.3684	2112.7675	8692.1	7804.45
941.5044	2114.301	8667.25	7778.3
941.6403	2115.8337	8647.95	7757.85
941.7761	2117.3657	8639.05	7752.15
941.912	2118.897	8592.1	7704.15
942.0478	2120.4276	8613.1	7719.4
942.1835	2121.9575	8568.95	7679.6
942.3193	2123.4866	8556.25	7666.9
942.455	2125.0149	8532.6	7642.85
942.5907	2126.5426	8461.05	7573.05
942.7264	2128.0695	8460.35	7571.4
942.8621	2129.5956	8431.8	7550.2
942.9977	2131.1211	8436.8	7547.1
943.1333	2132.6458	8417.5	7532.45
943.2689	2134.1698	8408.1	7521.65
943.4044	2135.693	8374.85	7479.25
943.54	2137.2155	8369.8	7478.1
943.6755	2138.7373	8360.85	7473.55
943.8109	2140.2584	8317.15	7432.75
943.9464	2141.7787	8273.9	7382.6
944.0818	2143.2983	8233.95	7350.4
944.2172	2144.8171	8211.05	7328.9
944.3526	2146.3353	8170.6	7283.25
944.4879	2147.8527	8159.8	7275.55
944.6232	2149.3693	8197	7308.65
944.7585	2150.8853	8145.5	7256.1
944.8938	2152.4005	8127.55	7237.8
945.029	2153.9149	8097.5	7207.3
945.1642	2155.4287	8148.6	7154.35
945.2994	2156.9417	8068.05	7176.85
945.4346	2158.454	8013.75	7124.75
945.5697	2159.9655	7994.9	7109.4
945.7048	2161.4764	7969.1	7085.05
945.8399	2162.9865	7965.5	7078.3
945.9749	2164.4958	7927.15	7040.1
946.1099	2166.0045	7917.1	7027.85
946.2449	2167.5124	7904.95	7017.65
946.3799	2169.0195	7872.5	6984.1
946.5148	2170.526	7874.8	6985.75
946.6498	2172.0317	7856.55	6968.3
946.7846	2173.5367	7840.45	6952.05
946.9195	2175.0409	7780.65	6894.85
947.0543	2176.5445	7812	6923.15
947.1891	2178.0473	7768.9	6881.5
947.3239	2179.5494	7750.2	6859.3
947.4587	2181.0507	7713.6	6824.9
947.5934	2182.5513	7696.7	6809.35
947.7281	2184.0512	7684.75	6797.65
947.8628	2185.5504	7653.1	6766.55
947.9974	2187.0488	7616.4	6729.1
948.132	2188.5465	7602.15	6716.45
948.2666	2190.0435	7588.35	6699.5
948.4012	2191.5397	7545.1	6655.75
948.5357	2193.0353	7540.55	6651.85
948.6702	2194.5301	7494.95	6603.75
948.8047	2196.0241	7466.55	6575.8
948.9392	2197.5175	7456.35	6565.2
949.0736	2199.0101	7433	6538.7
949.208	2200.502	7391.15	6501.85
949.3424	2201.9931	7377.4	6492.4
949.4767	2203.4835	7338.2	6448.8
949.611	2204.9733	7337.5	6434.25
949.7453	2206.4622	7330.9	6446.3
949.8796	2207.9505	7289.15	6400.55
950.0138	2209.438	7268.85	6386.75
950.148	2210.9248	7235.45	6349.1
950.2822	2212.4109	7237.9	6350.6
950.4164	2213.8962	7198.4	6306.5
950.5505	2215.3809	7187.65	6294.95
950.6846	2216.8648	7165.8	6271.85
950.8186	2218.3479	7157.55	6261.15
950.9527	2219.8304	7127.95	6232.5
951.0867	2221.3121	7101	6209.35
951.2207	2222.7931	7076.5	6188.2
951.3546	2224.2733	7059	6170.75
951.4886	2225.7529	7036.3	6147.75
951.6225	2227.2317	7035.95	6147.25
951.7563	2228.7098	7006.05	6120.3
951.8902	2230.1872	6952.95	6066.3
952.024	2231.6638	6949.15	6063.8
952.1578	2233.1397	6929.75	6041.6
952.2916	2234.6149	6888.85	6003.5
952.4253	2236.0894	6876.75	5988.7
952.559	2237.5632	6873.25	5985.5
952.6927	2239.0362	6831.1	5944.45
952.8263	2240.5085	6804.8	5920.85
952.9599	2241.9801	6803.1	5914.65
953.0935	2243.4509	6779.45	5890.1
953.2271	2244.921	6760.05	5870.5
953.3606	2246.3904	6765.85	5872.85
953.4941	2247.8591	6720.45	5831.45
953.6276	2249.3271	6709.5	5821.35
953.7611	2250.7943	6695.25	5805.4
953.8945	2252.2608	6664.2	5776.05
954.0279	2253.7266	6649.9	5760.3
954.1612	2255.1917	6608.85	5721.7
954.2946	2256.656	6581	5693.55
954.4279	2258.1197	6567.35	5682.75
954.5612	2259.5826	6564.1	5677
954.6944	2261.0447	6553.55	5665.9
954.8276	2262.5062	6527.85	5637.45
954.9608	2263.9669	6519.5	5628.65
955.094	2265.4269	6500	5610.95
955.2271	2266.8862	6491.85	5603.55
955.3602	2268.3448	6471.75	5585.55
955.4933	2269.8026	6451.4	5564.1
955.6264	2271.2598	6433.25	5549.2
955.7594	2272.7162	6401.3	5513.15
955.8924	2274.1719	6430	5540.25
956.0253	2275.6268	6404.4	5514.65
956.1583	2277.0811	6370.35	5480.2
956.2912	2278.5346	6364.35	5477.1
956.4241	2279.9874	6352.15	5465.5
956.5569	2281.4395	6329.1	5444.25
956.6897	2282.8908	6284.35	5392.7
956.8225	2284.3414	6305.65	5415.45
956.9553	2285.7914	6279	5390.6
957.088	2287.2406	6262	5371.85
957.2207	2288.689	6252.15	5361.25
957.3534	2290.1368	6235.15	5340.5
957.486	2291.5838	6208.35	5312.65
957.6186	2293.0302	6187.1	5293.7
957.7512	2294.4758	6162.6	5271.5
957.8838	2295.9206	6138.75	5248
958.0163	2297.3648	6133.35	5244.5
958.1488	2298.8082	6137.95	5249.75
958.2813	2300.251	6118.65	5227.25
958.4137	2301.693	6103.15	5211.45
958.5461	2303.1343	6105.7	5214.35
958.6785	2304.5748	6050.3	5160.85
958.8108	2306.0147	6033	5145.05
958.9432	2307.4538	6042.6	5155.1
959.0754	2308.8922	5997.65	5115.2
959.2077	2310.3299	5988	5101.7
959.3399	2311.7669	5963.1	5077.9
959.4721	2313.2031	5954.8	5066.65
959.6043	2314.6387	5931.6	5040.6
959.7365	2316.0735	5907.6	5021.05
959.8686	2317.5076	5902.35	5013.85
960.0006	2318.941	5873.25	4983.05
960.1327	2320.3737	5870.35	4979.55
960.2647	2321.8056	5856.45	4964.35
960.3967	2323.2369	5854.35	4963.6
960.5287	2324.6674	5821.3	4931.1
960.6606	2326.0972	5804.85	4914.9
960.7925	2327.5263	5780.5	4891.65
960.9244	2328.9547	5759.05	4867.85
961.0562	2330.3823	5757.05	4864.5
961.1881	2331.8092	5770.7	4873.8
961.3198	2333.2355	5734.75	4842.6
961.4516	2334.661	5730.15	4840.05
961.5833	2336.0858	5727.65	4834.95
961.715	2337.5098	5695.85	4807.15
961.8467	2338.9332	5688.65	4796.8
961.9783	2340.3558	5654.7	4762.35
962.1099	2341.7778	5636.05	4747.6
962.2415	2343.199	5648.45	4756.75
962.373	2344.6195	5620.3	4731.65
962.5045	2346.0393	5606.8	4719.15
962.636	2347.4583	5595.1	4705.95
962.7675	2348.8767	5569.8	4677.25
962.8989	2350.2943	5555.9	4664.55
963.0303	2351.7113	5562.7	4669.65
963.1617	2353.1275	5534.7	4642.55
963.293	2354.543	5538.6	4641.55
963.4243	2355.9578	5505	4614.8
963.5556	2357.3718	5482.65	4592.85
963.6868	2358.7852	5455.65	4564.05
963.818	2360.1978	5439.85	4551.8
963.9492	2361.6098	5405.35	4516.85
964.0803	2363.021	5414.75	4522.3
964.2114	2364.4315	5401.75	4512.8
964.3425	2365.8413	5396.75	4507.35
964.4736	2367.2504	5355.2	4468.35
964.6046	2368.6587	5345.65	4458.65
964.7356	2370.0664	5302.15	4414.85
964.8666	2371.4733	5300.3	4408.9
964.9975	2372.8795	5294.7	4405.4
965.1284	2374.285	5255.5	4366.45
965.2593	2375.6899	5247.8	4359.1
965.3901	2377.0939	5222.95	4334.95
965.5209	2378.4973	5200.55	4312.6
965.6517	2379.9	5196.05	4307.2
965.7825	2381.3019	5196.05	4310
965.9132	2382.7032	5164.25	4277.25
966.0439	2384.1037	5146.8	4260.35
966.1745	2385.5035	5134.25	4249.4
966.3051	2386.9027	5122.9	4235.85
966.4357	2388.3011	5110.35	4221
966.5663	2389.6987	5100.95	4214
966.6968	2391.0957	5094.55	4208.35
966.8273	2392.492	5054.4	4167.2
966.9578	2393.8876	5054.25	4167.9
967.0882	2395.2824	5032.4	4144.85
967.2186	2396.6765	5009.35	4123
967.349	2398.07	5004.6	4115.45
967.4793	2399.4627	4987.5	4095.7
967.6097	2400.8547	4967.25	4077.75
967.7399	2402.246	4960.75	4067.95
967.8702	2403.6366	4918.95	4028.9
968.0004	2405.0265	4908.95	4022.55
968.1306	2406.4156	4886.75	3994.5
968.2607	2407.8041	4880.75	3987.95
968.3909	2409.1918	4868.65	3978.7
968.521	2410.5789	4851.95	3962.7
968.651	2411.9652	4840	3950.85
968.781	2413.3508	4826	3938
968.911	2414.7358	4813	3921.55
969.041	2416.12	4805.15	3918.15
969.1709	2417.5035	4788.9	3900.1
969.3008	2418.8863	4745.45	3855.05
969.4307	2420.2684	4757.35	3868.3
969.5606	2421.6497	4736.65	3847.6
969.6904	2423.0304	4714.9	3827.3
969.8201	2424.4104	4707.55	3820.3
969.9499	2425.7896	4682.55	3791.85
970.0796	2427.1682	4677.35	3790.2
970.2093	2428.546	4668.35	3780.15
970.3389	2429.9232	4646.35	3754
970.4685	2431.2996	4647.4	3759.45
970.5981	2432.6753	4624.95	3736.8
970.7277	2434.0503	4612.3	3722.15
970.8572	2435.4246	4593.75	3704.4
970.9867	2436.7982	4588.85	3696.05
971.1161	2438.1711	4561.6	3673.85
971.2456	2439.5433	4570.3	3678.7
971.375	2440.9148	4552.3	3660.25
971.5043	2442.2856	4521.4	3633.8
971.6336	2443.6557	4526.45	3637.2
971.7629	2445.025	4498.8	3610.35
971.8922	2446.3937	4508.45	3618.95
972.0214	2447.7617	4497.5	3606.65
972.1506	2449.1289	4484.8	3594.65
972.2798	2450.4955	4480.95	3588.75
972.4089	2451.8613	4449.5	3561.75
972.538	2453.2265	4449.5	3561.4
972.6671	2454.5909	4432.25	3543.65
972.7961	2455.9546	4428.1	3538.3
972.9251	2457.3177	4411.5	3522.25
973.0541	2458.68	4404.4	3515.25
973.1831	2460.0416	4388.45	3499.05
973.312	2461.4025	4373.7	3481.45
973.4408	2462.7627	4382.8	3481.05
973.5697	2464.1222	4370.1	3484.4
973.6985	2465.4811	4346.95	3461.75
973.8273	2466.8392	4322.05	3434.55
973.956	2468.1966	4330.7	3441.05
974.0847	2469.5533	4305.6	3415.35
974.2134	2470.9093	4319.45	3431.7
974.3421	2472.2645	4300.35	3413.9
974.4707	2473.6191	4290.75	3401.15
974.5993	2474.973	4261.9	3371.85
974.7278	2476.3262	4263.85	3373.15
974.8563	2477.6787	4269.1	3381.1
974.9848	2479.0305	4228.3	3339.9
975.1132	2480.3816	4217.95	3329.45
975.2417	2481.7319	4204.1	3315.2
975.37	2483.0816	4190.15	3301.6
975.4984	2484.4306	4190.8	3302.35
975.6267	2485.7789	4178.1	3292.95
975.755	2487.1264	4158	3270.7
975.8833	2488.4733	4128.4	3242.15
976.0115	2489.8195	4131	3234.3
976.1397	2491.165	4113.55	3223.15
976.2678	2492.5097	4110.7	3221.2
976.3959	2493.8538	4087.15	3200.8
976.524	2495.1972	4082.95	3195.25
976.6521	2496.5398	4076.15	3185.95
976.7801	2497.8818	4053.2	3162.5
976.9081	2499.2231	4051.35	3165.15
977.036	2500.5637	4030.2	3140.7
977.164	2501.9035	4015.5	3125.85
977.2918	2503.2427	4012.2	3118.3
977.4197	2504.5812	3990.05	3100.3
977.5475	2505.919	3988.2	3097.75
977.6753	2507.256	3999.2	3110.15
977.8031	2508.5924	3975.4	3088.45
977.9308	2509.9281	3962.45	3069.95
978.0585	2511.2631	3956	3068.35
978.1861	2512.5974	3929.35	3041.25
978.3137	2513.9309	3912.7	3026.45
978.4413	2515.2638	3918.75	3006.4
978.5689	2516.596	3902.6	3014.85
978.6964	2517.9275	3873.55	2982.4
978.8239	2519.2583	3866.85	2977.55
978.9513	2520.5884	3854.35	2967.75
979.0788	2521.9178	3844.35	2958.8
979.2062	2523.2465	3818.9	2930.45
979.3335	2524.5745	3807.9	2920.45
979.4608	2525.9018	3812.75	2923.85
979.5881	2527.2284	3811.25	2923.9
979.7154	2528.5543	3798.55	2911.7
979.8426	2529.8796	3789.95	2902.5
979.9698	2531.2041	3792.4	2904.7
980.0969	2532.5279	3781.75	2896.45
980.224	2533.851	3782.6	2894.65
980.3511	2535.1735	3752	2863.9
980.4781	2536.4952	3753.55	2863.7
980.6052	2537.8163	3746.65	2858.4
980.7321	2539.1366	3741.15	2853.4
980.8591	2540.4562	3722.55	2832.85
980.986	2541.7752	3727.1	2838.95
981.1129	2543.0935	3726.95	2838.3
981.2397	2544.411	3714.05	2823.8
981.3665	2545.7279	3690.45	2802.05
981.4933	2547.0441	3687.3	2799.55
981.62	2548.3596	3707.6	2815.35
981.7467	2549.6744	3687.55	2798.45
981.8734	2550.9885	3690.25	2792.7
982.0001	2552.3019	3666.2	2777.4
982.1267	2553.6146	3659.5	2770.05
982.2532	2554.9266	3651.45	2763.7
982.3798	2556.2379	3636.15	2747.35
982.5063	2557.5485	3632.5	2744.45
982.6327	2558.8585	3627.7	2731.95
982.7592	2560.1677	3625.6	2732.9
982.8856	2561.4762	3607.3	2716.5
983.0119	2562.7841	3611.35	2721.05
983.1383	2564.0913	3582.9	2695.7
983.2646	2565.3977	3587.75	2701.5
983.3908	2566.7035	3576.75	2687.35
983.517	2568.0086	3591.5	2701.85
983.6432	2569.313	3580.7	2692.25
983.7694	2570.6167	3571.1	2676.85
983.8955	2571.9197	3568.3	2678.85
984.0216	2573.222	3554.9	2664.4
984.1476	2574.5236	3539.3	2648.9
984.2737	2575.8246	3536.3	2644.9
984.3996	2577.1248	3547.55	2654.6
984.5256	2578.4244	3522.95	2635.6
984.6515	2579.7232	3504.2	2616.4
984.7774	2581.0214	3536.6	2615.85
984.9032	2582.3189	3512.05	2624.65
985.029	2583.6157	3493.25	2598.9
985.1548	2584.9118	3500.7	2612.45
985.2806	2586.2072	3503.15	2615.85
985.4063	2587.5019	3482.8	2592.9
985.5319	2588.7959	3476.45	2588.25
985.6576	2590.0893	3471.85	2580.05
985.7832	2591.3819	3475.05	2586.05
985.9087	2592.6739	3440.95	2551
986.0343	2593.9652	3459.85	2568.95
986.1597	2595.2557	3434.35	2545.35
986.2852	2596.5456	3433.4	2541.3
986.4106	2597.8348	3441.85	2553.3
986.536	2599.1234	3409.3	2521.65
986.6614	2600.4112	3401.15	2511.4
986.7867	2601.6983	3406.95	2514.5
986.912	2602.9848	3391.85	2502.25
987.0372	2604.2705	3386.65	2493.3
987.1624	2605.5556	3371.8	2482.45
987.2876	2606.84	3371.9	2484.2
987.4128	2608.1237	3363.05	2472.8
987.5379	2609.4067	3346.6	2457.25
987.6629	2610.689	3333.1	2436.2
987.788	2611.9707	3322.75	2430.45
987.913	2613.2516	3324.3	2431.05
988.0379	2614.5319	3285.55	2398.25
988.1629	2615.8115	3294.15	2407.65
988.2878	2617.0903	3274.85	2383.85
988.4126	2618.3685	3284.35	2396.9
988.5375	2619.6461	3268.3	2379.6
988.6622	2620.9229	3260.3	2371.35
988.787	2622.199	3253.25	2365.7
988.9117	2623.4745	3246.2	2357.55
989.0364	2624.7493	3227.7	2340.4
989.161	2626.0234	3222.25	2334.25
989.2857	2627.2968	3220.55	2331.4
989.4102	2628.5695	3203.3	2313.85
989.5348	2629.8415	3195.9	2308.9
989.6593	2631.1128	3183.75	2295.4
989.7837	2632.3835	3174.45	2285.35
989.9082	2633.6535	3169.8	2283.85
990.0326	2634.9228	3155.35	2270.5
990.1569	2636.1914	3159.65	2271.35
990.2812	2637.4593	3155	2263.95
990.4055	2638.7265	3145.35	2255.95
990.5298	2639.9931	3133.5	2245.35
990.654	2641.259	3136.7	2244.6
990.7782	2642.5242	3127.45	2237.45
990.9023	2643.7887	3109.75	2220
991.0264	2645.0525	3098.6	2209.8
991.1505	2646.3156	3105.5	2203.1
991.2745	2647.5781	3081.9	2191.55
991.3985	2648.8398	3066.85	2179.4
991.5225	2650.1009	3077.75	2165.2
991.6464	2651.3613	3076.25	2188.95
991.7703	2652.6211	3053.8	2165.65
991.8942	2653.8801	3053.8	2166.7
992.018	2655.1385	3055.95	2166.35
992.1418	2656.3961	3027.75	2140.95
992.2655	2657.6531	3028.6	2140.1
992.3892	2658.9094	3015.25	2128.15
992.5129	2660.1651	3025	2138
992.6366	2661.42	3028.35	2139.6
992.7602	2662.6743	3010.45	2119.75
992.8837	2663.9279	3009.65	2123.35
993.0073	2665.1808	3007.85	2119
993.1307	2666.433	2997.4	2107.2
993.2542	2667.6846	2992.25	2104.5
993.3776	2668.9354	2993.05	2101
993.501	2670.1856	2984.35	2096.3
993.6244	2671.4351	2993.4	2106.4
993.7477	2672.6839	2981.6	2092.2
993.8709	2673.9321	2967.45	2080.7
993.9942	2675.1795	2971.8	2084.45
994.1174	2676.4263	2954.25	2067.3
994.2405	2677.6724	2958.4	2071.55
994.3637	2678.9179	2950.55	2062.9
994.4868	2680.1626	2946.05	2060.4
994.6098	2681.4067	2946.75	2057.65
994.7328	2682.6501	2936.8	2049.35
994.8558	2683.8928	2920.5	2032.1
994.9788	2685.1348	2921.1	2033.2
995.1017	2686.3761	2898.05	2011.5
995.2245	2687.6168	2907.25	2020.9
995.3474	2688.8568	2894.3	2006
995.4702	2690.0961	2884.45	1997.3
995.5929	2691.3348	2870	1982.7
995.7156	2692.5727	2871.85	1984.9
995.8383	2693.81	2866.65	1978.8
995.961	2695.0466	2857	1970.3
996.0836	2696.2826	2853.05	1962.95
996.2062	2697.5178	2845.65	1955.15
996.3287	2698.7524	2848.5	1961.9
996.4512	2699.9863	2839	1950.85
996.5737	2701.2195	2813.4	1927.6
996.6961	2702.452	2830.9	1942.5
996.8185	2703.6839	2828.2	1937.85
996.9408	2704.9151	2818.4	1932.75
997.0631	2706.1456	2805.05	1917.35
997.1854	2707.3755	2805.85	1919.15
997.3077	2708.6046	2813	1923.75
997.4299	2709.8331	2809.4	1921.7
997.552	2711.0609	2818.2	1933.55
997.6742	2712.2881	2815.5	1927.9
997.7963	2713.5145	2824.05	1933.25
997.9183	2714.7403	2815.55	1928.45
998.0403	2715.9654	2816.5	1930.95
998.1623	2717.1899	2832.2	1930.9
998.2842	2718.4136	2833.25	1945.05
998.4062	2719.6367	2823.1	1935.5
998.528	2720.8591	2826.2	1932
998.6498	2722.0809	2829.9	1943.8
998.7716	2723.3019	2837.45	1945.8
998.8934	2724.5223	2836.3	1948.2
999.0151	2725.7421	2825.5	1937.75
999.1368	2726.9611	2823.5	1935
999.2584	2728.1795	2830.95	1938.95
999.38	2729.3972	2808.4	1921.75
999.5016	2730.6142	2796.55	1902.15
999.6231	2731.8306	2773.3	1884.6
999.7446	2733.0462	2762.65	1875.55
999.8661	2734.2612	2740.2	1848.85
999.9875	2735.4756	2721.35	1834.4
1000.1089	2736.6892	2704.2	1816.85
1000.2302	2737.9022	2696	1812.05
1000.3515	2739.1145	2660.2	1774.8
1000.4728	2740.3262	2650.95	1756.95
1000.594	2741.5372	2637.8	1750.1
1000.7152	2742.7475	2619.35	1731.75
1000.8363	2743.9571	2624.85	1737.8
1000.9575	2745.1661	2594.8	1704.55
1001.0785	2746.3744	2581.3	1694
1001.1996	2747.582	2577.6	1692.3
1001.3206	2748.7889	2563.25	1675.1
1001.4415	2749.9952	2551.4	1663.9
1001.5625	2751.2008	2546.1	1660.85
1001.6833	2752.4057	2541.9	1651.65
1001.8042	2753.61	2539.95	1652.45
1001.925	2754.8136	2523.55	1634.15
1002.0458	2756.0165	2520.75	1633.15
1002.1665	2757.2188	2508.1	1622.4
1002.2872	2758.4204	2507.45	1623
1002.4078	2759.6213	2507.05	1618.5
1002.5285	2760.8215	2499.4	1608.15
1002.649	2762.0211	2494.8	1606.4
1002.7696	2763.22	2480.25	1591.25
1002.8901	2764.4182	2471.65	1583
1003.0106	2765.6158	2472.4	1585.4
1003.131	2766.8127	2454.1	1565.35
1003.2514	2768.009	2454.7	1568.8
1003.3717	2769.2045	2454.2	1567.15
1003.492	2770.3994	2437	1548.65
1003.6123	2771.5936	2420.25	1533.35
1003.7325	2772.7872	2435.85	1551
1003.8527	2773.9801	2427.05	1539.2
1003.9729	2775.1723	2428.25	1524.5
1004.093	2776.3639	2401.55	1515.3
1004.2131	2777.5548	2418.55	1531.45
1004.3331	2778.745	2403.25	1516.8
1004.4531	2779.9346	2401.9	1517.95
1004.5731	2781.1235	2395.65	1510.35
1004.693	2782.3117	2398.35	1516.25
1004.8129	2783.4992	2392.35	1507
1004.9328	2784.6861	2379.75	1494.3
1005.0526	2785.8723	2393.7	1507.25
1005.1723	2787.0579	2387.05	1501.3
1005.2921	2788.2428	2392.65	1507.85
1005.4118	2789.427	2380.3	1494.35
1005.5314	2790.6106	2389.05	1504.7
1005.651	2791.7935	2389.25	1503.95
1005.7706	2792.9757	2387.8	1503.3
1005.8902	2794.1573	2390.6	1503.75
1006.0097	2795.3382	2412	1526.55
1006.1291	2796.5184	2409.65	1526.7
1006.2485	2797.698	2421.45	1535.1
1006.3679	2798.8769	2428	1544.6
1006.4873	2800.0551	2435.8	1549.35
1006.6066	2801.2327	2439.15	1548.05
1006.7258	2802.4096	2450.5	1565.75
1006.8451	2803.5859	2465.5	1578.9
1006.9642	2804.7615	2471	1585.35
1007.0834	2805.9364	2492.45	1608.8
1007.2025	2807.1106	2505.2	1620.8
1007.3216	2808.2842	2521.85	1635.7
1007.4406	2809.4572	2543.9	1659.85
1007.5596	2810.6294	2573.7	1684.6
1007.6785	2811.801	2597.45	1714.9
1007.7975	2812.972	2634.1	1749.65
1007.9163	2814.1423	2662.9	1778.4
1008.0352	2815.3119	2698.2	1813.4
1008.154	2816.4808	2735.2	1849.7
1008.2727	2817.6491	2778.75	1893.3
1008.3914	2818.8167	2804.6	1918.2
1008.5101	2819.9837	2848.4	1959
1008.6288	2821.15	2889.15	2005.05
1008.7474	2822.3157	2924.95	2040.6
1008.8659	2823.4807	2972.75	2088.75
1008.9844	2824.645	2990	2104.45
1009.1029	2825.8086	3029.7	2147.75
1009.2214	2826.9716	3069.65	2183.95
1009.3398	2828.134	3104.3	2220.15
1009.4581	2829.2957	3118.75	2233
1009.5764	2830.4567	3141.4	2256.55
1009.6947	2831.617	3170.3	2287.6
1009.813	2832.7767	3172.7	2289.85
1009.9312	2833.9358	3165	2280.4
1010.0493	2835.0941	3160.95	2274.25
1010.1675	2836.2519	3141.5	2257.7
1010.2855	2837.4089	3127.9	2242.8
1010.4036	2838.5653	3135.25	2251.1
1010.5216	2839.7211	3121.15	2236.75
1010.6396	2840.8761	3122.9	2237
1010.7575	2842.0306	3114.5	2228.75
1010.8754	2843.1843	3146.5	2263.1
1010.9932	2844.3374	3198.45	2313.1
1011.111	2845.4899	3220.7	2335.2
1011.2288	2846.6417	3279.2	2394.85
1011.3465	2847.7928	3344.65	2459.2
1011.4642	2848.9433	3396.05	2511.55
1011.5818	2850.0931	3450.35	2567.3
1011.6995	2851.2422	3521.45	2635.9
1011.817	2852.3907	3570.35	2684.8
1011.9345	2853.5385	3606.15	2718.4
1012.052	2854.6857	3667.45	2772.85
1012.1695	2855.8323	3703.45	2819.5
1012.2869	2856.9781	3728.15	2843.65
1012.4042	2858.1233	3774.75	2890.15
1012.5216	2859.2679	3815.65	2932.35
1012.6389	2860.4118	3843.2	2958
1012.7561	2861.555	3875.45	2987.35
1012.8733	2862.6976	3909.55	3025.3
1012.9905	2863.8395	3929.7	3045.3
1013.1076	2864.9808	3942.25	3059.05
1013.2247	2866.1214	3948.6	3064.7
1013.3417	2867.2614	3960	3077.1
1013.4587	2868.4007	3973.7	3086.7
1013.5757	2869.5393	3973.85	3089.15
1013.6926	2870.6773	3991.9	3105.2
1013.8095	2871.8146	3994.4	3107.45
1013.9263	2872.9513	3990.4	3103.4
1014.0431	2874.0874	3974.45	3092.7
1014.1599	2875.2227	3980.2	3096.25
1014.2766	2876.3574	3966.8	3083.1
1014.3933	2877.4915	3935.55	3052.65
1014.51	2878.6249	3911.25	3027.85
1014.6266	2879.7577	3882.25	2996.35
1014.7431	2880.8898	3866.85	2972.15
1014.8596	2882.0212	3835.6	2952.45
1014.9761	2883.152	3831.1	2946.05
1015.0925	2884.2821	3815.05	2931.85
1015.2089	2885.4116	3798.8	2916.45
1015.3253	2886.5405	3795.6	2911.15
1015.4416	2887.6686	3809.95	2923.9
1015.5579	2888.7962	3806.15	2922.9
1015.6741	2889.923	3821.15	2938.3
1015.7903	2891.0493	3821	2939.35
1015.9065	2892.1748	3815.2	2930.05
1016.0226	2893.2997	3825.4	2941.7
1016.1387	2894.424	3835.1	2952.7
1016.2547	2895.5476	3846.3	2963.45
1016.3707	2896.6706	3866.15	2982.2
1016.4866	2897.7929	3882.1	2998.35
1016.6025	2898.9145	3895.2	3010
1016.7184	2900.0355	3907.75	3026.1
1016.8342	2901.1559	3949.1	3062.8
1016.95	2902.2756	3970.2	3084.55
1017.0658	2903.3946	3995.1	3111.25
1017.1815	2904.513	4005.55	3119.25
1017.2971	2905.6308	4028.1	3143.1
1017.4127	2906.7479	4045.2	3158.85
1017.5283	2907.8643	4058.3	3171.35
1017.6439	2908.9801	4060.15	3176.1
1017.7594	2910.0953	4083	3199.05
1017.8748	2911.2098	4065.25	3178.9
1017.9902	2912.3236	4055.05	3163.45
1018.1056	2913.4368	4049.9	3163.55
1018.2209	2914.5494	4020.55	3137.3
1018.3362	2915.6613	4009.4	3118.35
1018.4515	2916.7725	3982.05	3095.25
1018.5667	2917.8831	3952.9	3066.7
1018.6819	2918.9931	3928.95	3045.9
1018.797	2920.1024	3897.05	3013.7
1018.9121	2921.211	3865.25	2980.6
1019.0271	2922.319	3868.15	2984.95
1019.1421	2923.4264	3840.55	2956.5
1019.2571	2924.5331	3823.1	2940.3
1019.372	2925.6391	3801.55	2918.35
1019.4869	2926.7445	3804.9	2922.85
1019.6017	2927.8493	3792.6	2907.95
1019.7165	2928.9534	3791.15	2908.05
1019.8313	2930.0569	3782.55	2896.3
1019.946	2931.1597	3790.45	2905.5
1020.0606	2932.2619	3783.8	2900.8
1020.1753	2933.3634	3786.5	2904.55
1020.2899	2934.4643	3774.8	2886.7
1020.4044	2935.5645	3765.25	2874.45
1020.5189	2936.6641	3731.75	2844.75
1020.6334	2937.763	3686.65	2805.15
1020.7478	2938.8613	3641.25	2757
1020.8622	2939.959	3595.45	2708.6
1020.9765	2941.056	3533.5	2650.95
1021.0908	2942.1523	3485.55	2601.3
1021.2051	2943.248	3395.5	2510.95
1021.3193	2944.3431	3324.8	2442.5
1021.4334	2945.4375	3237.6	2355.6
1021.5476	2946.5313	3157.1	2274.95
1021.6617	2947.6244	3062.9	2178
1021.7757	2948.7169	2976.95	2093.3
1021.8897	2949.8087	2888.8	2008.75
1022.0037	2950.8999	2819.95	1936.7
1022.1176	2951.9904	2740.15	1857.5
1022.2315	2953.0803	2685.4	1803.05
1022.3453	2954.1696	2610.25	1728
1022.4591	2955.2582	2575.3	1695.35
1022.5728	2956.3462	2553.05	1669.85
1022.6865	2957.4335	2502.5	1620.35
1022.8002	2958.5202	2471.8	1587.5
1022.9138	2959.6062	2457.1	1575.35
1023.0274	2960.6916	2421.5	1539.2
1023.141	2961.7764	2404.45	1520.95
1023.2545	2962.8605	2382.05	1499
1023.3679	2963.9439	2376.9	1496.55
1023.4813	2965.0267	2365.85	1480.55
1023.5947	2966.1089	2372.85	1470.8
1023.708	2967.1905	2349.75	1467.55
1023.8213	2968.2714	2340.2	1458.55
1023.9346	2969.3516	2332.2	1449.25
1024.0478	2970.4312	2348.9	1458.6
1024.1609	2971.5102	2341.25	1458.95
1024.274	2972.5885	2335.3	1453.85
1024.3871	2973.6662	2335.85	1448.75
1024.5002	2974.7432	2320.9	1439.75
1024.6132	2975.8196	2316.8	1432.4
1024.7261	2976.8954	2316.3	1433.25
1024.839	2977.9705	2303.5	1421.85
1024.9519	2979.045	2292.1	1410.05
1025.0647	2980.1188	2276.45	1397.1
1025.1775	2981.192	2249.25	1367.85
1025.2902	2982.2645	2240.05	1355.95
1025.4029	2983.3364	2228.25	1346.55
1025.5156	2984.4077	2174.2	1293.6
1025.6282	2985.4783	2173.9	1284.35
1025.7407	2986.5483	2138.2	1257.4
1025.8532	2987.6177	2105.6	1225.7
1025.9657	2988.6864	2080.2	1196.35
1026.0782	2989.7545	2046.65	1162.1
1026.1906	2990.8219	2032.1	1150.65
1026.3029	2991.8887	1989.3	1103.8
1026.4152	2992.9548	1962.75	1080.35
1026.5275	2994.0204	1930.75	1049.65
1026.6397	2995.0852	1901.75	1020.75
1026.7519	2996.1495	1889.85	1008.05
1026.864	2997.2131	1862.35	980.55
1026.9761	2998.276	1852.75	969.5
1027.0882	2999.3383	1831.5	947.9
1027.2002	3000.4	1812.6	930.65
1027.3122	3001.4611	1789.9	906.25
1027.4241	3002.5215	1776.5	894.05
1027.536	3003.5812	1768.35	885.6
1027.6478	3004.6404	1747.2	866.05
1027.7596	3005.6989	1740.8	859.15
1027.8714	3006.7567	1721.2	838.45
1027.9831	3007.8139	1728.3	832.4
1028.0947	3008.8705	1710.2	830.9
1028.2064	3009.9264	1712.8	814.85
1028.3179	3010.9818	1699.4	818.5
1028.4295	3012.0364	1694.15	811.5
1028.541	3013.0905	1683.75	800.7
1028.6524	3014.1439	1674.6	791.7
1028.7638	3015.1966	1681.35	797.85
1028.8752	3016.2487	1673.9	793.35
1028.9865	3017.3002	1686.3	797.25
1029.0978	3018.3511	1673.25	792
1029.209	3019.4013	1661.85	777.1
1029.3202	3020.4509	1660.85	778.35
1029.4314	3021.4998	1670.85	787.9
1029.5425	3022.5481	1657.95	775.7
1029.6535	3023.5958	1656.3	773.95
1029.7645	3024.6428	1657.3	776.15
1029.8755	3025.6892	1652.35	771.1
1029.9864	3026.735	1662.6	781.6
1030.0973	3027.7802	1654.55	772.45
1030.2082	3028.8247	1651.25	770.15
1030.319	3029.8685	1649.85	769.05
1030.4297	3030.9118	1655	773.3
1030.5404	3031.9544	1662.7	783.3
1030.6511	3032.9963	1654.7	773.25
1030.7617	3034.0376	1651.8	769.8
1030.8723	3035.0783	1664.85	781.55
1030.9829	3036.1184	1654.4	771.65
1031.0934	3037.1578	1659.35	777.65
1031.2038	3038.1966	1660.15	775.2
1031.3142	3039.2348	1665.9	784.75
1031.4246	3040.2723	1662.85	773
1031.5349	3041.3092	1657.1	774.6
1031.6452	3042.3455	1648.5	766.65
1031.7554	3043.3811	1655.25	771.55
1031.8656	3044.4161	1647.3	764.15
1031.9758	3045.4505	1641.4	761.7
1032.0859	3046.4842	1634.65	752.15
1032.1959	3047.5173	1623.3	743.2
1032.3059	3048.5498	1620.6	738.05
1032.4159	3049.5816	1616.9	737.05
1032.5258	3050.6128	1621.85	740.15
1032.6357	3051.6434	1604.15	721.15
1032.7455	3052.6734	1600.55	718.7
1032.8553	3053.7027	1593.9	712.65
1032.9651	3054.7314	1590.55	710.65
1033.0748	3055.7594	1583.7	704
1033.1845	3056.7868	1578.1	694
1033.2941	3057.8136	1581.75	701.15
1033.4037	3058.8398	1559.75	678.9
1033.5132	3059.8653	1559.35	678.4
1033.6227	3060.8902	1553.65	672.65
1033.7321	3061.9145	1549.75	668.4
1033.8415	3062.9381	1545.85	662.45
1033.9509	3063.9612	1553.75	655
1034.0602	3064.9835	1531.95	652
1034.1694	3066.0053	1525.65	642.6
1034.2787	3067.0264	1525.1	644.55
1034.3878	3068.0469	1516.25	632.95
1034.497	3069.0668	1520.55	637.55
1034.6061	3070.086	1500.1	620.85
1034.7151	3071.1046	1492.85	610.75
1034.8241	3072.1226	1483.15	599.2
1034.9331	3073.1399	1477.05	594.4
1035.042	3074.1567	1473.35	594
1035.1508	3075.1727	1465.25	582.95
1035.2597	3076.1882	1458.05	576.2
1035.3684	3077.203	1442.2	560.65
1035.4772	3078.2173	1435.65	552.55
1035.5859	3079.2308	1433.05	549.2
1035.6945	3080.2438	1425.85	542.45
1035.8031	3081.2561	1417.1	535.1
1035.9117	3082.2678	1406.6	524.6
1036.0202	3083.2789	1395.25	513.5
1036.1286	3084.2893	1390.8	510.6
1036.2371	3085.2991	1387.1	506
1036.3454	3086.3083	1386.35	501
1036.4538	3087.3169	1372.6	489.85
1036.562	3088.3248	1374.8	491.8
1036.6703	3089.3321	1374.55	490.7
1036.7785	3090.3388	1356.6	476.85
1036.8866	3091.3449	1361.15	479.1
1036.9948	3092.3503	1348.55	464.3
1037.1028	3093.3551	1347.1	467.15
1037.2108	3094.3593	1346.75	465
1037.3188	3095.3629	1343.9	462.95
1037.4267	3096.3658	1341.1	458.15
1037.5346	3097.3681	1332.35	453.3
1037.6425	3098.3698	1335.55	453.85
1037.7503	3099.3708	1325.65	437.8
1037.858	3100.3713	1319.15	441.25
1037.9657	3101.3711	1316.85	435.25
1038.0734	3102.3702	1452.45	434.85
1038.181	3103.3688	1322.35	438.15
1038.2886	3104.3667	1308.55	430.05
1038.3961	3105.364	1307.85	429.15
1038.5036	3106.3607	1302.15	418.85
1038.611	3107.3568	1297.55	416.4
1038.7184	3108.3522	1297.9	418.75
1038.8257	3109.347	1295.55	414.55
1038.933	3110.3412	1298.5	413.6
1039.0403	3111.3348	1290.75	410.45
1039.1475	3112.3277	1285.45	403.55
1039.2547	3113.32	1277.1	397.85
1039.3618	3114.3117	1272.2	390.5
1039.4689	3115.3028	1278.2	398.3
1039.5759	3116.2932	1279.6	396.2
1039.6829	3117.2831	1270.5	387
1039.7898	3118.2723	1264.3	382.5
1039.8967	3119.2608	1261.9	381.35
1040.0035	3120.2488	1258.8	378.2
1040.1103	3121.2361	1262.65	382
1040.2171	3122.2229	1254.55	373.55
1040.3238	3123.209	1259	376.55
1040.4305	3124.1944	1251.25	370.7
1040.5371	3125.1793	1256.9	376.9
1040.6437	3126.1635	1246.5	366.95
1040.7502	3127.1471	1246.5	365.1
1040.8567	3128.1301	1243.8	363.6
1040.9631	3129.1125	1236.5	357.3
1041.0695	3130.0942	1241.05	359.7
1041.1759	3131.0753	1248.25	360.15
1041.2822	3132.0558	1244.75	362.65
1041.3884	3133.0357	1240.95	360.7
1041.4946	3134.015	1232.55	350.35
1041.6008	3134.9936	1224.9	343.65
1041.7069	3135.9716	1246.75	343.35
1041.813	3136.949	1231.25	350.6
1041.919	3137.9258	1246.65	347.7
1042.025	3138.902	1229.65	342.05
1042.1309	3139.8775	1222.4	343.95
1042.2368	3140.8524	1217.65	337.05
1042.3427	3141.8267	1220.15	338.35
1042.4485	3142.8004	1213.4	332.3
1042.5542	3143.7735	1219.4	333.25
1042.6599	3144.7459	1214.2	331.15
1042.7656	3145.7178	1210.55	329.55
1042.8712	3146.689	1206.5	326.85
1042.9768	3147.6596	1207.6	325.3
1043.0823	3148.6295	1208.7	327.4
1043.1878	3149.5989	1200.7	319.75
1043.2932	3150.5676	1204.65	325.85
1043.3986	3151.5357	1194.55	314.15
1043.5039	3152.5032	1196.05	315.45
1043.6092	3153.4701	1199.8	319.35
1043.7145	3154.4364	1194.05	311.25
1043.8197	3155.402	1193.6	315.4
1043.9248	3156.367	1192.7	308.45
1044.03	3157.3315	1228.6	312.75
1044.135	3158.2952	1189.5	310.05
1044.24	3159.2584	1181.4	301.35
1044.345	3160.221	1180.8	299.7
1044.4499	3161.1829	1173.2	292.25
1044.5548	3162.1442	1176.25	296.7
1044.6596	3163.105	1172.25	291.25
1044.7644	3164.065	1170.7	289.05
1044.8692	3165.0245	1172.5	289.65
1044.9739	3165.9834	1169.85	290.8
1045.0785	3166.9416	1170.45	290.95
1045.1831	3167.8993	1169	285.85
1045.2877	3168.8563	1167.55	287.5
1045.3922	3169.8127	1162.95	284.05
1045.4966	3170.7684	1162.15	283.25
1045.6011	3171.7236	1155.25	270.95
1045.7054	3172.6782	1159.35	279.85
1045.8098	3173.6321	1161.95	282.05
1045.914	3174.5854	1163.05	279.15
1046.0183	3175.5381	1155.75	277.3
1046.1224	3176.4902	1155.1	275.95
1046.2266	3177.4417	1154.45	275.7
1046.3307	3178.3926	1149.15	268.35
1046.4347	3179.3428	1145.55	264.75
1046.5387	3180.2924	1144.35	263.5
1046.6427	3181.2415	1146.05	265.55
1046.7466	3182.1899	1144.85	259.2
1046.8504	3183.1377	1141.3	261.5
1046.9542	3184.0848	1144.5	259.85
1047.058	3185.0314	1139.6	259.15
1047.1617	3185.9773	1141.2	258.65
1047.2654	3186.9227	1140.85	260
1047.369	3187.8674	1138.7	258.25
1047.4726	3188.8115	1133.65	250.55
1047.5761	3189.755	1131.7	253.95
1047.6796	3190.6979	1131.6	252.5
1047.783	3191.6402	1130.4	250.75
1047.8864	3192.5818	1129.4	251.1
1047.9898	3193.5229	1136.4	250.6
1048.0931	3194.4633	1127.05	245.8
1048.1963	3195.4031	1124.5	245.7
1048.2995	3196.3423	1122	240.9
1048.4027	3197.2809	1120.7	241.3
1048.5058	3198.2189	1123.2	242.8
1048.6089	3199.1563	1127.15	240.75
1048.7119	3200.0931	1121.95	245.6
1048.8148	3201.0292	1118.65	239.65
1048.9178	3201.9648	1117.95	237.55
1049.0206	3202.8997	1118.6	234.65
1049.1235	3203.834	1110.55	230.75
1049.2262	3204.7677	1110.85	231.75
1049.329	3205.7008	1108.15	226.9
1049.4317	3206.6333	1108.95	229.55
1049.5343	3207.5652	1110.5	228.15
1049.6369	3208.4964	1110.75	231.15
1049.7394	3209.4271	1106.7	229.4
1049.8419	3210.3571	1104.45	225.5
1049.9444	3211.2865	1103.7	222.2
1050.0468	3212.2154	1103.4	224.05
1050.1491	3213.1436	1104.55	223.15
1050.2514	3214.0712	1103.9	216.85
1050.3537	3214.9982	1097.4	217.45
1050.4559	3215.9246	1099.25	217.35
1050.5581	3216.8503	1098.45	218.9
1050.6602	3217.7755	1096.55	214.55
1050.7623	3218.7001	1095.55	215.1
1050.8643	3219.624	1095.6	217.35
1050.9663	3220.5473	1095.35	216.25
1051.0682	3221.4701	1093.4	213.15
1051.1701	3222.3922	1093.15	211.5
1051.2719	3223.3137	1084.5	204.3
1051.3737	3224.2346	1090.05	211.5
1051.4754	3225.1549	1083.7	204.35
1051.5771	3226.0746	1085.35	205.15
1051.6788	3226.9937	1081.7	201.55
1051.7804	3227.9121	1082.55	204.3
1051.8819	3228.83	1079.75	199.7
1051.9834	3229.7473	1083.35	202.3
1052.0849	3230.6639	1080.1	199.15
1052.1863	3231.5799	1082	202.5
1052.2876	3232.4954	1079.9	198.3
1052.3889	3233.4102	1080.6	200.4
1052.4902	3234.3244	1077.95	197.9
1052.5914	3235.238	1076.4	196.65
1052.6926	3236.151	1096.45	191.25
1052.7937	3237.0634	1077.25	198.45
1052.8948	3237.9752	1074.25	196.05
1052.9958	3238.8864	1073.7	193
1053.0968	3239.797	1070.95	191.3
1053.1977	3240.7069	1069	190.45
1053.2986	3241.6163	1068.4	187.7
1053.3994	3242.5251	1065.95	187.05
1053.5002	3243.4332	1069.05	188
1053.6009	3244.3408	1066.55	185.5
1053.7016	3245.2477	1063.05	184.55
1053.8022	3246.154	1065.05	184
1053.9028	3247.0598	1059.55	180.1
1054.0034	3247.9649	1060.9	181.6
1054.1039	3248.8694	1059.75	179.45
1054.2043	3249.7733	1058.5	179.3
1054.3047	3250.6766	1053.8	172.45
1054.4051	3251.5793	1055.5	173.3
1054.5054	3252.4814	1053.25	174.8
1054.6056	3253.3829	1051.5	169.8
1054.7058	3254.2838	1052.45	173.7
1054.806	3255.1841	1047.45	168.65
1054.9061	3256.0838	1051.25	171.6
1055.0061	3256.9829	1046.1	167.85
1055.1062	3257.8814	1044.7	164.75
1055.2061	3258.7792	1043.7	161.05
1055.306	3259.6765	1044	163.75
1055.4059	3260.5731	1039.75	159.7
1055.5057	3261.4692	1035.75	154.05
1055.6055	3262.3647	1033.2	152.15
1055.7052	3263.2595	1031.7	152.5
1055.8049	3264.1538	1036.85	156.2
1055.9045	3265.0474	1028.6	146.85
1056.0041	3265.9404	1025.3	145.95
1056.1036	3266.8329	1023.1	145.55
1056.2031	3267.7247	1031.5	140.55
1056.3025	3268.616	1016.6	138.45
1056.4019	3269.5066	1014.05	131.6
1056.5013	3270.3966	1014.5	134.65
1056.6005	3271.286	1011.1	132.35
