Software Version:	3.9.2.0
Unit SN:	10000200
Spectrometer SN:	6960
Date:	3/26/2024 2:29:23 PM
Data Line Index:	25
Spectral Points:	2048
Integration time (ms):	125
Averages:	20
Delay (ms):	30000
Sequence Number:	1
Processing:	dark subtract
Laser Power (mW):	305
Laser Current (mA):	820
Laser Diode Temp (C):	25
Laser Case Temp (C):	27.8
System Temp (C):	27.8
Spectrometer Temp (C):	25.6
CCD Temp (C):	0.008
Secondary Temp (C):	20.007
Heatsink Temp (C):	23.318
CCDPCB Temp (C):	37.196
SecondaryPCB Temp (C):	34.406

Wavelength	RamanShift	Raw Counts	Dark Subtracted
787.061	30.1047	658.95	250.05
787.2016	32.3739	673.7	267.15
787.3422	34.6426	689.85	283
787.4828	36.9109	707.6	299.2
787.6235	39.1787	730.45	317.85
787.7642	41.4461	753.25	335.75
787.9049	43.7131	784.45	362.25
788.0456	45.9796	809.4	382.4
788.1863	48.2456	833.55	402.4
788.3271	50.5112	865.45	432.8
788.4679	52.7764	888.2	453.85
788.6087	55.0411	925.25	485.05
788.7496	57.3054	958.65	514.45
788.8904	59.5692	993.3	543.6
789.0313	61.8326	1033.5	580.3
789.1722	64.0955	1070.1	613.9
789.3132	66.3579	1135.3	672.4
789.4541	68.6199	1184.8	718.25
789.5951	70.8815	1294.65	825.5
789.7361	73.1426	1509.8	1037.05
789.8771	75.4032	2041.35	1562.7
790.0181	77.6634	3395.05	2911.45
790.1592	79.9231	6777.7	6283.2
790.3003	82.1824	14591	14080.8
790.4414	84.4412	33968.05	33423.2
790.5825	86.6995	62049.4	61456.6
790.7237	88.9574	65535	64902.9
790.8648	91.2148	65535	64870.3
791.006	93.4717	65535	64851.35
791.1472	95.7282	65535	64838.15
791.2885	97.9842	65535	64832.65
791.4297	100.2398	65535	64832.2
791.571	102.4949	65535	64827.75
791.7123	104.7495	65535	64823.35
791.8536	107.0036	65535	64827.7
791.9949	109.2573	65535	64827.25
792.1363	111.5105	65535	64824.9
792.2777	113.7632	65535	64822.35
792.4191	116.0154	65535	64811.6
792.5605	118.2672	65535	64817.75
792.7019	120.5185	65535	64816.05
792.8434	122.7693	65535	64814.25
792.9849	125.0197	65535	64810.6
793.1264	127.2696	65535	64814.35
793.2679	129.519	65535	64802.1
793.4094	131.7679	65535	64797
793.551	134.0163	65535	64794.3
793.6926	136.2642	65535	64795.35
793.8342	138.5117	65535	64797.45
793.9758	140.7587	65535	64792.05
794.1175	143.0052	65535	64782
794.2591	145.2512	65535	64787.65
794.4008	147.4967	65535	64788.25
794.5425	149.7417	65535	64789.2
794.6842	151.9863	65535	64780.3
794.826	154.2304	65535	64777.85
794.9677	156.4739	65535	64776.1
795.1095	158.717	65535	64775.5
795.2513	160.9596	65535	64767.9
795.3931	163.2017	65535	64768.7
795.535	165.4433	65535	64765.5
795.6768	167.6844	65535	64763.1
795.8187	169.925	65535	64758.95
795.9606	172.1651	65535	64762.15
796.1025	174.4047	65535	64760.6
796.2445	176.6439	65535	64757
796.3864	178.8825	65535	64749.55
796.5284	181.1206	65535	64748.95
796.6704	183.3582	65535	64742.45
796.8124	185.5954	65535	64740
796.9544	187.832	65535	64743.2
797.0965	190.0681	65535	64737.55
797.2386	192.3037	65535	64735.4
797.3806	194.5388	65535	64731.7
797.5228	196.7734	65535	64724.85
797.6649	199.0075	65535	64726.3
797.807	201.2411	65535	64718.7
797.9492	203.4742	65535	64720
798.0914	205.7068	65535	64722.4
798.2336	207.9389	65535	64722
798.3758	210.1704	65535	64720.9
798.518	212.4015	65535	64716.2
798.6603	214.632	65535	64714
798.8025	216.862	65535	64721.4
798.9448	219.0915	65535	64732.25
799.0871	221.3205	65535	64731.15
799.2294	223.549	65535	64736.05
799.3718	225.777	65535	64737.1
799.5141	228.0044	65535	64736.85
799.6565	230.2314	65535	64739.15
799.7989	232.4578	65535	64735.5
799.9413	234.6837	65535	64733.45
800.0837	236.909	65535	64721.3
800.2262	239.1339	65535	64699.15
800.3687	241.3582	65535	64709.7
800.5111	243.582	65535	64683.75
800.6536	245.8053	65535	64696.35
800.7961	248.0281	65535	64701.55
800.9387	250.2503	65535	64699.45
801.0812	252.472	65535	64693.05
801.2238	254.6932	65535	64690
801.3664	256.9139	65535	64691.6
801.509	259.134	65535	64683.45
801.6516	261.3536	65535	64687.1
801.7942	263.5727	65535	64681.2
801.9369	265.7912	65535	64687.05
802.0795	268.0092	65535	64683.7
802.2222	270.2267	65535	64684.1
802.3649	272.4436	65535	64680.1
802.5076	274.6601	65535	64680.8
802.6504	276.8759	65535	64684.75
802.7931	279.0913	65535	64681.35
802.9359	281.3061	65535	64681.75
803.0787	283.5204	65535	64676.15
803.2215	285.7341	65535	64674.95
803.3643	287.9473	65535	64658.7
803.5071	290.16	65535	64665.5
803.6499	292.3721	65535	64672.15
803.7928	294.5837	65535	64671.55
803.9357	296.7947	65535	64673
804.0786	299.0052	65535	64667.25
804.2215	301.2152	65535	64667.55
804.3644	303.4246	65535	64674.6
804.5074	305.6334	65535	64673
804.6503	307.8418	65535	64673.9
804.7933	310.0495	65535	64668.25
804.9363	312.2568	65535	64670.2
805.0793	314.4635	65535	64669.05
805.2223	316.6696	65535	64668.75
805.3653	318.8752	65535	64658.3
805.5084	321.0802	65535	64658.65
805.6514	323.2847	65535	64662.9
805.7945	325.4887	65535	64659.6
805.9376	327.692	65535	64658.55
806.0807	329.8949	65535	64658.7
806.2238	332.0972	65535	64661.4
806.367	334.2989	65535	64649.5
806.5101	336.5001	65535	64652.1
806.6533	338.7007	65535	64651.5
806.7965	340.9008	65535	64649.6
806.9397	343.1003	65535	64650.55
807.0829	345.2992	65535	64653.35
807.2261	347.4976	65535	64652.2
807.3693	349.6955	65535	64641.9
807.5126	351.8927	65535	64647.8
807.6559	354.0895	65535	64636.7
807.7991	356.2856	65535	64644.4
807.9424	358.4812	65535	64651.1
808.0857	360.6763	65535	64640.75
808.2291	362.8707	65535	64645.35
808.3724	365.0646	65535	64639.6
808.5158	367.258	65535	64641.95
808.6591	369.4508	65535	64633.6
808.8025	371.643	65535	64636.25
808.9459	373.8346	65535	64631.05
809.0893	376.0257	65535	64629.95
809.2327	378.2162	65535	64632.5
809.3762	380.4062	65535	64630
809.5196	382.5956	65535	64631.9
809.6631	384.7844	65535	64627.9
809.8066	386.9726	65535	64633.65
809.9501	389.1603	65535	64634.2
810.0936	391.3474	65535	64590.45
810.2371	393.5339	65535	64634.75
810.3806	395.7199	65535	64640.8
810.5241	397.9052	65535	64639.5
810.6677	400.09	65535	64641.5
810.8113	402.2743	65535	64640.95
810.9548	404.4579	65535	64642.9
811.0984	406.641	65535	64641.05
811.2421	408.8235	65535	64643.05
811.3857	411.0054	65535	64638.6
811.5293	413.1868	65535	64636.35
811.673	415.3675	65535	64629.45
811.8166	417.5477	65535	64630.6
811.9603	419.7273	65535	64632.6
812.104	421.9064	65535	64624.45
812.2477	424.0848	65535	64628.25
812.3914	426.2627	65535	64628.5
812.5351	428.4399	65535	64626.45
812.6788	430.6166	65535	64619.45
812.8226	432.7928	65535	64623.95
812.9663	434.9683	65535	64625.05
813.1101	437.1432	65535	64625.75
813.2539	439.3176	65535	64629.2
813.3977	441.4914	65535	64633.75
813.5415	443.6645	65535	64626.6
813.6853	445.8371	65535	64625.15
813.8291	448.0091	65535	64621.85
813.973	450.1806	65535	64629.2
814.1168	452.3514	65535	64624.3
814.2607	454.5216	65535	64621.4
814.4046	456.6913	65535	64625.9
814.5485	458.8603	65535	64625.35
814.6924	461.0288	65535	64630.95
814.8363	463.1967	65535	64634.9
814.9802	465.3639	65535	64628.9
815.1241	467.5306	65535	64627.35
815.2681	469.6967	65535	64628.8
815.412	471.8622	65535	64631.5
815.556	474.0271	65535	64625.7
815.7	476.1914	65535	64622.7
815.844	478.3551	65535	64620.45
815.988	480.5182	65535	64627.95
816.132	482.6807	65535	64631.65
816.276	484.8426	65535	64638.15
816.4201	487.0039	65535	64633.8
816.5641	489.1647	65535	64621.7
816.7082	491.3248	65535	64621.05
816.8522	493.4843	65535	64630.4
816.9963	495.6432	65535	64627.9
817.1404	497.8015	65535	64615.65
817.2845	499.9592	65535	64614.7
817.4286	502.1163	65535	64613.55
817.5727	504.2728	65535	64623.7
817.7168	506.4287	65535	64629.8
817.861	508.5839	65535	64630.25
818.0051	510.7386	65535	64623.65
818.1493	512.8927	65535	64613.65
818.2935	515.0461	65535	64618.4
818.4377	517.199	65535	64615.85
818.5818	519.3512	65535	64615.75
818.726	521.5029	65535	64610.05
818.8703	523.6539	65535	64617.25
819.0145	525.8043	65535	64613.8
819.1587	527.9541	65535	64612.75
819.303	530.1033	65535	64615.05
819.4472	532.2519	65535	64616.25
819.5915	534.3999	65535	64612.05
819.7357	536.5472	65535	64614.7
819.88	538.694	65535	64620.55
820.0243	540.8401	65535	64613.95
820.1686	542.9856	65535	64606.8
820.3129	545.1305	65535	64601.85
820.4572	547.2748	65535	64598.15
820.6016	549.4185	65535	64599.25
820.7459	551.5615	65535	64601.7
820.8902	553.704	65535	64603.8
821.0346	555.8458	65535	64603.95
821.1789	557.987	65535	64607.95
821.3233	560.1276	65535	64607.65
821.4677	562.2675	65535	64605.6
821.6121	564.4069	65535	64604.7
821.7565	566.5456	65535	64607.8
821.9009	568.6837	65535	64607.1
822.0453	570.8212	65535	64607.3
822.1897	572.958	65535	64605.7
822.3342	575.0942	65535	64611.85
822.4786	577.2299	65535	64614.95
822.6231	579.3648	65535	64624.85
822.7675	581.4992	65535	64628.65
822.912	583.6329	65535	64630.3
823.0565	585.766	65535	64627.6
823.201	587.8985	65535	64622.4
823.3454	590.0304	65535	64592.15
823.4899	592.1616	65535	64607.95
823.6345	594.2922	65535	64607.5
823.779	596.4222	65535	64600.5
823.9235	598.5515	65535	64597.05
824.068	600.6802	65535	64602.85
824.2126	602.8083	65535	64607.8
824.3571	604.9358	65535	64603.45
824.5017	607.0626	65535	64603.2
824.6462	609.1888	65535	64596.75
824.7908	611.3144	65535	64592.9
824.9354	613.4393	65535	64600.75
825.08	615.5636	65535	64595.8
825.2246	617.6873	65535	64600.9
825.3692	619.8103	65535	64599.15
825.5138	621.9327	65535	64598.2
825.6584	624.0544	65535	64602.6
825.803	626.1756	65535	64606.1
825.9477	628.2961	65535	64603.5
826.0923	630.4159	65535	64596.6
826.237	632.5351	65535	64598.65
826.3816	634.6537	65535	64600.2
826.5263	636.7716	65535	64590.1
826.6709	638.8889	65535	64590
826.8156	641.0056	65535	64589.6
826.9603	643.1216	65535	64593.1
827.105	645.237	65535	64597.3
827.2497	647.3518	65535	64605.5
827.3944	649.4659	65535	64610.15
827.5391	651.5793	65535	64608.7
827.6838	653.6922	65535	64605.55
827.8285	655.8043	65535	64599.5
827.9733	657.9159	65535	64599.85
828.118	660.0268	65535	64599.85
828.2627	662.137	65535	64594.15
828.4075	664.2466	65535	64591.45
828.5522	666.3556	65535	64595.75
828.697	668.4639	65535	64598
828.8418	670.5716	65535	64603.75
828.9865	672.6786	65535	64595.35
829.1313	674.785	65535	64594.1
829.2761	676.8907	65535	64594.7
829.4209	678.9958	65535	64599.5
829.5657	681.1002	65535	64595.7
829.7105	683.204	65535	64586.8
829.8553	685.3072	65535	64590.25
830.0001	687.4097	65535	64591
830.1449	689.5115	65535	64587.35
830.2898	691.6127	65535	64596.35
830.4346	693.7132	65535	64598.1
830.5794	695.8131	65535	64575.4
830.7243	697.9123	65535	64589.45
830.8691	700.0109	65535	64590.65
831.014	702.1089	65535	64590.8
831.1588	704.2061	65535	64594.1
831.3037	706.3028	65535	64591.05
831.4486	708.3987	65535	64587.25
831.5935	710.4941	65535	64592.65
831.7383	712.5887	65535	64591.85
831.8832	714.6827	65535	64590.2
832.0281	716.7761	65535	64597.15
832.173	718.8688	65535	64592.85
832.3179	720.9608	65535	64587.6
832.4628	723.0522	65535	64583.25
832.6077	725.1429	65535	64589
832.7527	727.233	65535	64590.55
832.8976	729.3224	65535	64588.2
833.0425	731.4112	65535	64589.15
833.1874	733.4993	65535	64592
833.3324	735.5867	65535	64592.25
833.4773	737.6735	65535	64588.15
833.6222	739.7596	65535	64585.9
833.7672	741.845	65535	64589.5
833.9122	743.9298	65535	64587.1
834.0571	746.014	65535	64592.3
834.2021	748.0974	65535	64584.4
834.347	750.1802	65535	64578.25
834.492	752.2624	65535	64582.7
834.637	754.3439	65535	64585.65
834.782	756.4247	65535	64576.6
834.9269	758.5048	65535	64587.7
835.0719	760.5843	65535	64583.65
835.2169	762.6631	65535	64585.15
835.3619	764.7413	65535	64589.05
835.5069	766.8188	65535	64589.25
835.6519	768.8956	65535	64584.05
835.7969	770.9718	65535	64585
835.9419	773.0473	65535	64589.1
836.0869	775.1221	65535	64586.75
836.232	777.1962	65535	64584.65
836.377	779.2697	65535	64584.35
836.522	781.3426	65535	64563.9
836.667	783.4147	65535	64583.55
836.8121	785.4862	65535	64586
836.9571	787.557	65535	64582.6
837.1021	789.6271	65535	64582.3
837.2472	791.6966	65535	64586.35
837.3922	793.7654	65535	64585.15
837.5373	795.8335	65535	64590.3
837.6823	797.901	65535	64585.65
837.8274	799.9678	65535	64578.7
837.9724	802.0339	65535	64582.3
838.1175	804.0993	65535	64570.2
838.2626	806.1641	65535	64582.55
838.4076	808.2282	65535	64585.25
838.5527	810.2916	65535	64585.95
838.6978	812.3544	65535	64586.05
838.8428	814.4164	65535	64581.4
838.9879	816.4778	65535	64579.5
839.133	818.5385	65535	64579.95
839.2781	820.5986	65535	64581.2
839.4232	822.658	65535	64578.55
839.5682	824.7166	65535	64582.7
839.7133	826.7747	65528.55	64574.85
839.8584	828.832	65529.55	64574.7
840.0035	830.8886	65535	64577
840.1486	832.9446	65535	64580.1
840.2937	834.9999	65522.05	64569.9
840.4388	837.0545	65531.45	64570.4
840.5839	839.1085	65535	64582.35
840.729	841.1618	65534.6	64577.05
840.8741	843.2143	65521.55	64564.85
841.0192	845.2662	65521.35	64570.05
841.1643	847.3175	65526.65	64576.8
841.3095	849.368	65467.1	64513.5
841.4546	851.4179	65524.15	64565.6
841.5997	853.467	65482.35	64527.95
841.7448	855.5155	65509	64553.85
841.8899	857.5633	65430.4	64475.3
842.0351	859.6105	65392.1	64437.25
842.1802	861.6569	65443.2	64487.25
842.3253	863.7027	65329.85	64372.6
842.4704	865.7478	65406.95	64452.05
842.6156	867.7922	65384.45	64427.1
842.7607	869.8359	65424.7	64469.9
842.9058	871.8789	65287.8	64332.7
843.0509	873.9212	65388.45	64401.9
843.1961	875.9629	65408.6	64454.85
843.3412	878.0039	65390.8	64433.55
843.4863	880.0441	65346.65	64391.7
843.6315	882.0837	65338.05	64386.45
843.7766	884.1226	65298.6	64340.95
843.9218	886.1609	65256.95	64301.85
844.0669	888.1984	65142.8	64189.75
844.212	890.2352	65277.25	64320.75
844.3572	892.2714	65083.55	64122.3
844.5023	894.3069	65200.65	64242.05
844.6475	896.3416	65071.45	64114.05
844.7926	898.3757	65035.35	64077.85
844.9377	900.4091	64620.95	63667.1
845.0829	902.4418	65141.7	64179.75
845.228	904.4739	64891.3	63933.6
845.3732	906.5052	64892.65	63933
845.5183	908.5358	64714.7	63760.15
845.6635	910.5658	64599.4	63636.75
845.8086	912.595	64572.5	63613.35
845.9538	914.6236	64011.5	63051.55
846.0989	916.6515	64789.35	63835.3
846.2441	918.6786	63960.45	62999.6
846.3892	920.7051	64222.5	63263.3
846.5344	922.7309	64072.85	63115.7
846.6795	924.756	64261.25	63303.65
846.8246	926.7804	64014.2	63055.4
846.9698	928.8041	63253.75	62295.1
847.1149	930.8272	63824.95	62864.55
847.2601	932.8495	63847.05	62890.85
847.4052	934.8711	63277.15	62321.95
847.5504	936.892	62756.45	61796.1
847.6955	938.9123	63017.6	62059.5
847.8407	940.9318	62550.7	61595.9
847.9858	942.9506	62414	61458.3
848.131	944.9688	62471	61512.8
848.2761	946.9862	61430.35	60475.5
848.4213	949.003	61882.2	60926.45
848.5664	951.019	60977.5	60022.45
848.7115	953.0344	61154.65	60195.4
848.8567	955.0491	61008.5	60051.85
849.0018	957.063	61328.35	60374.45
849.147	959.0763	61418.05	60455.95
849.2921	961.0888	60682.35	59727.45
849.4373	963.1007	61286.45	60333.4
849.5824	965.1119	61244.1	60296.1
849.7275	967.1223	60712.6	59766.25
849.8727	969.1321	61327.75	60382.85
850.0178	971.1412	60479.5	59529.85
850.1629	973.1495	60139.95	59191.35
850.3081	975.1572	60513.65	59502.05
850.4532	977.1641	60182.35	59228.3
850.5983	979.1704	59998.55	59039.3
850.7435	981.1759	60068.05	59107.25
850.8886	983.1808	59630.8	58670.75
851.0337	985.1849	59657.75	58689.95
851.1788	987.1884	59885.65	58927.2
851.324	989.1911	60317.45	59357.55
851.4691	991.1932	59137.8	58184.35
851.6142	993.1945	59445.8	58489.3
851.7593	995.1951	59678.55	58719.1
851.9045	997.1951	59068.45	58105.8
852.0496	999.1943	58806.45	57850.6
852.1947	1001.1928	58488.1	57534.7
852.3398	1003.1906	58630.85	57676.45
852.4849	1005.1877	57826.7	56870.2
852.63	1007.1841	57552.7	56597.25
852.7751	1009.1798	57502.35	56550.55
852.9202	1011.1748	57273.3	56321.55
853.0653	1013.1691	56971.85	56018.05
853.2104	1015.1627	55733.4	54774.8
853.3555	1017.1556	55774.25	54821.15
853.5006	1019.1477	55949.7	54997.5
853.6457	1021.1392	55263.7	54318.85
853.7908	1023.1299	54589.05	53641.2
853.9359	1025.12	54865.2	53924.7
854.081	1027.1093	54415.1	53484.95
854.2261	1029.0979	54417.35	53485.7
854.3712	1031.0859	54314.65	53379.35
854.5163	1033.0731	53724.1	52779.95
854.6613	1035.0596	53706.85	52760.6
854.8064	1037.0454	53482.25	52531.45
854.9515	1039.0304	53017.8	52066.95
855.0965	1041.0148	52521.6	51569.25
855.2416	1042.9985	52422.5	51470.45
855.3867	1044.9814	52540.55	51590.1
855.5317	1046.9636	52093.55	51143.1
855.6768	1048.9452	51874.05	50925.55
855.8219	1050.926	51751.55	50799.8
855.9669	1052.9061	51575.05	50624.6
856.112	1054.8855	51457.3	50506.85
856.257	1056.8642	51121.65	50172.35
856.4021	1058.8421	51113.85	50157.4
856.5471	1060.8194	50996.95	50040.65
856.6921	1062.7959	50877	49923.65
856.8372	1064.7717	50773.85	49822.9
856.9822	1066.7469	50624.15	49671.3
857.1272	1068.7213	50521.15	49569.35
857.2723	1070.695	50276.65	49323.55
857.4173	1072.6679	49832.75	48883.15
857.5623	1074.6402	49808.35	48858.2
857.7073	1076.6117	49673.05	48714.25
857.8523	1078.5826	49626.2	48675.25
857.9973	1080.5527	49483.7	48532
858.1423	1082.5221	49456.05	48506.6
858.2873	1084.4908	49565.95	48613.7
858.4323	1086.4587	49624.3	48673.05
858.5773	1088.426	49677.25	48725.05
858.7223	1090.3925	49492.1	48537
858.8673	1092.3584	49377.9	48430
859.0123	1094.3235	48843.5	47893.3
859.1573	1096.2879	48640.55	47690.85
859.3022	1098.2515	48445.45	47494.1
859.4472	1100.2145	48323.1	47372.2
859.5922	1102.1767	48233.4	47280.8
859.7371	1104.1382	48319.35	47372.8
859.8821	1106.099	48350	47396.25
860.027	1108.0591	48365.4	47414.75
860.172	1110.0185	48265.4	47314.2
860.3169	1111.9771	48274.45	47323.2
860.4619	1113.9351	47851.8	46899.65
860.6068	1115.8923	47319.4	46371.55
860.7517	1117.8488	46843.7	45891.85
860.8967	1119.8045	46247.1	45297.7
861.0416	1121.7596	46047.7	45098.1
861.1865	1123.7139	45805.85	44857.85
861.3314	1125.6675	45678.35	44729.8
861.4763	1127.6204	45729.05	44782.25
861.6212	1129.5726	45570.15	44619.1
861.7661	1131.524	45532.95	44585.75
861.911	1133.4748	45507.15	44554.55
862.0559	1135.4248	45465.45	44515.3
862.2008	1137.3741	45314.3	44367.95
862.3457	1139.3226	45155.95	44206.45
862.4905	1141.2705	45074.2	44126.1
862.6354	1143.2176	44785.15	43832.85
862.7803	1145.164	44658.75	43708.05
862.9251	1147.1097	44578.05	43628.55
863.07	1149.0546	44493.55	43544.45
863.2148	1150.9989	44431.55	43480.5
863.3597	1152.9424	44147.05	43200.4
863.5045	1154.8852	43841.2	42895.1
863.6493	1156.8272	43593.15	42643.65
863.7942	1158.7686	43468.95	42513.35
863.939	1160.7092	43165.1	42215.55
864.0838	1162.6491	43017.95	42067.05
864.2286	1164.5883	43004.85	42056
864.3734	1166.5267	42917.9	41966.95
864.5182	1168.4644	43018.2	42066.2
864.663	1170.4014	43080.85	42130.45
864.8078	1172.3377	43225.05	42281.9
864.9526	1174.2732	43333.05	42387.7
865.0974	1176.2081	43466.9	42519.35
865.2421	1178.1421	43458.5	42504.4
865.3869	1180.0755	43498.3	42550.2
865.5317	1182.0082	43314.55	42369.75
865.6764	1183.9401	43158.65	42215.35
865.8212	1185.8713	42792.65	41852.75
865.9659	1187.8017	42443.75	41506.95
866.1106	1189.7315	42172.9	41242.3
866.2554	1191.6605	41636.75	40708.15
866.4001	1193.5888	41312.1	40377.35
866.5448	1195.5163	41113.8	40173.75
866.6895	1197.4432	40879.05	39932.9
866.8342	1199.3693	40703	39759.45
866.9789	1201.2947	40475.75	39525.35
867.1236	1203.2193	40269.5	39324.85
867.2683	1205.1432	40272.85	39328.45
867.413	1207.0664	40156.65	39211.8
867.5576	1208.9889	40137.3	39188.7
867.7023	1210.9106	40005.2	39061.2
867.847	1212.8316	39955.05	39011.55
867.9916	1214.7519	39962.85	39007.95
868.1363	1216.6715	39760.8	38817.9
868.2809	1218.5903	39620.75	38678.65
868.4255	1220.5084	39503.7	38554.95
868.5701	1222.4257	39427.6	38485
868.7148	1224.3424	39103.95	38162.35
868.8594	1226.2583	39050.85	38105.2
869.004	1228.1735	39100.05	38159.35
869.1486	1230.0879	38997.6	38052.85
869.2932	1232.0016	39042.3	38097.9
869.4377	1233.9146	38926.8	37978.15
869.5823	1235.8269	38679.6	37737.05
869.7269	1237.7384	38514.2	37571.25
869.8715	1239.6492	38173.5	37228.15
870.016	1241.5592	38049.15	37106.5
870.1606	1243.4686	37773.9	36834.2
870.3051	1245.3772	37571.55	36628.65
870.4496	1247.285	37394.45	36446.9
870.5941	1249.1922	37210.95	36268.15
870.7387	1251.0986	37119	36174.95
870.8832	1253.0042	36953.3	36009.8
871.0277	1254.9092	36913.6	35972.05
871.1722	1256.8134	36915.45	35974.9
871.3167	1258.7169	37038.6	36096.6
871.4611	1260.6196	37020.25	36077.75
871.6056	1262.5216	37228.6	36285.95
871.7501	1264.4229	37239.8	36300.75
871.8945	1266.3234	37276.95	36334.45
872.039	1268.2232	37236.35	36291.85
872.1834	1270.1223	37084.1	36140.8
872.3278	1272.0207	36982.1	36039.95
872.4723	1273.9183	36840.75	35892.8
872.6167	1275.8151	36679.95	35740.4
872.7611	1277.7113	36482.3	35541.95
872.9055	1279.6067	36211.85	35272.75
873.0499	1281.5014	35944.55	35002.65
873.1943	1283.3953	35719.95	34776.3
873.3386	1285.2885	35552.5	34611.65
873.483	1287.181	35415.75	34476.8
873.6274	1289.0727	35357.75	34417.85
873.7717	1290.9637	35289.95	34348.1
873.9161	1292.854	35340.2	34398.6
874.0604	1294.7435	35402.9	34461.65
874.2047	1296.6323	35528.6	34586.75
874.349	1298.5204	35723.1	34778.35
874.4933	1300.4077	35955.85	35012.95
874.6376	1302.2943	36078	35139.6
874.7819	1304.1802	36121.3	35182.75
874.9262	1306.0653	35902.85	34959.7
875.0705	1307.9497	35695.8	34756.1
875.2147	1309.8333	35603.55	34665.7
875.359	1311.7162	35478.7	34534.7
875.5032	1313.5984	35535.75	34591.95
875.6475	1315.4798	35615.65	34657.8
875.7917	1317.3605	35674.8	34715.6
875.9359	1319.2405	35798.15	34856.4
876.0801	1321.1197	35789.45	34847.6
876.2243	1322.9982	35629.7	34683.4
876.3685	1324.876	35611.5	34671.2
876.5127	1326.753	35421	34478.4
876.6569	1328.6293	35475.85	34534.2
876.801	1330.5048	35466.45	34523.4
876.9452	1332.3796	35314.6	34371.5
877.0893	1334.2537	35273.95	34309.55
877.2335	1336.127	35149.4	34210.2
877.3776	1337.9996	34980.45	34041.95
877.5217	1339.8714	34805.55	33864.5
877.6658	1341.7426	34700.5	33718.6
877.8099	1343.6129	34589.3	33647.6
877.954	1345.4826	34428.2	33488.1
878.0981	1347.3515	34317.95	33375
878.2422	1349.2196	34190.15	33250
878.3862	1351.087	34155.65	33214
878.5303	1352.9537	34116.9	33176.75
878.6743	1354.8197	34193.6	33253.7
878.8184	1356.6849	34314.6	33373.85
878.9624	1358.5493	34324.15	33382.6
879.1064	1360.4131	34257.8	33318
879.2504	1362.276	34066.05	33127.65
879.3944	1364.1383	33833.65	32894.5
879.5384	1365.9998	33483.35	32539.45
879.6823	1367.8606	33121.1	32180.45
879.8263	1369.7206	32781.2	31838.4
879.9702	1371.5799	32558.8	31615.35
880.1142	1373.4384	32292.3	31349.35
880.2581	1375.2962	32146.95	31207.9
880.402	1377.1533	31786.25	30849.55
880.5459	1379.0096	31361.25	30423.3
880.6898	1380.8652	30992.05	30055.2
880.8337	1382.7201	30717.6	29781.4
880.9776	1384.5742	30429.4	29494.2
881.1215	1386.4275	30193.15	29250.25
881.2653	1388.2802	29937.1	28996.5
881.4092	1390.132	29750.95	28810.6
881.553	1391.9832	29676.75	28735.1
881.6968	1393.8336	29466.05	28527.4
881.8406	1395.6832	29287.1	28348.05
881.9844	1397.5322	29169.9	28230.65
882.1282	1399.3803	29038.6	28094
882.272	1401.2278	28889.3	27951.55
882.4158	1403.0745	28804.35	27870.1
882.5595	1404.9204	28661.1	27726.3
882.7033	1406.7656	28646.3	27709.3
882.847	1408.6101	28511.6	27575.15
882.9908	1410.4538	28402.3	27466.75
883.1345	1412.2968	28387.9	27451.9
883.2782	1414.139	28320.5	27386.3
883.4219	1415.9805	28358.55	27421.15
883.5656	1417.8213	28285.85	27331.55
883.7092	1419.6613	28353.05	27414.15
883.8529	1421.5006	28446.95	27509.85
883.9965	1423.3391	28687.35	27751.75
884.1402	1425.1769	28941.15	28000.6
884.2838	1427.0139	29405.45	28466.15
884.4274	1428.8502	29961.45	29025.4
884.571	1430.6858	30489.6	29554.4
884.7146	1432.5206	30804.4	29869.2
884.8582	1434.3547	31044.85	30112.9
885.0018	1436.188	31083.1	30148.55
885.1453	1438.0206	30959.3	30025.6
885.2889	1439.8524	30663.95	29725.6
885.4324	1441.6835	30548.3	29612.8
885.5759	1443.5139	30322.3	29383.7
885.7194	1445.3435	30215.8	29278.6
885.8629	1447.1724	30131.5	29197.15
886.0064	1449.0005	29996.8	29063.65
886.1499	1450.8279	29802.9	28868.05
886.2933	1452.6545	29694.1	28758.65
886.4368	1454.4804	29697.45	28767.9
886.5802	1456.3056	29656.85	28717.25
886.7237	1458.13	29503.75	28574.1
886.8671	1459.9536	29276.3	28344.9
887.0105	1461.7766	28847	27913.2
887.1539	1463.5987	28404.65	27470.7
887.2972	1465.4202	27929	26993.2
887.4406	1467.2409	27493.4	26558.8
887.584	1469.0608	27189.55	26255.1
887.7273	1470.88	26873.25	25939.55
887.8706	1472.6984	26583.25	25650.4
888.0139	1474.5161	26297.8	25364.45
888.1572	1476.3331	26091.3	25159.75
888.3005	1478.1493	25898.85	24966.3
888.4438	1479.9648	25781.9	24848.55
888.5871	1481.7795	25652.85	24717.95
888.7303	1483.5935	25529.8	24595.9
888.8736	1485.4067	25421.2	24487.05
889.0168	1487.2192	25337.25	24402.2
889.16	1489.031	25283.1	24345.7
889.3032	1490.842	25167.85	24237.95
889.4464	1492.6522	25138.9	24207.35
889.5896	1494.4618	25008.95	24072.05
889.7327	1496.2705	24927.3	23991.85
889.8759	1498.0785	24885.7	23952.95
890.019	1499.8858	24758.7	23826.05
890.1622	1501.6924	24665.1	23730.95
890.3053	1503.4981	24649.8	23717.75
890.4484	1505.3032	24611.5	23679.2
890.5914	1507.1075	24511.65	23578.2
890.7345	1508.911	24422.75	23489.4
890.8776	1510.7138	24344.5	23409.4
891.0206	1512.5159	24250.8	23320.45
891.1637	1514.3172	24120.9	23189.25
891.3067	1516.1178	24012.95	23082.5
891.4497	1517.9176	23998.7	23064.4
891.5927	1519.7166	23866.2	22938
891.7357	1521.515	23792.45	22853.75
891.8786	1523.3126	23710.05	22778.65
892.0216	1525.1094	23606.9	22677.3
892.1645	1526.9055	23531.8	22603.85
892.3074	1528.7008	23470.9	22539.25
892.4503	1530.4954	23306.3	22370.95
892.5932	1532.2893	23263.15	22336.55
892.7361	1534.0824	23124.15	22190.95
892.879	1535.8747	23115.65	22192.15
893.0218	1537.6663	23040.6	22114.05
893.1647	1539.4572	22939.2	22012.2
893.3075	1541.2473	22851.9	21925.75
893.4503	1543.0367	22792.35	21865.65
893.5931	1544.8253	22714.45	21785.1
893.7359	1546.6132	22694	21761.7
893.8787	1548.4003	22606.1	21673.45
894.0214	1550.1867	22562.15	21627.55
894.1642	1551.9723	22515.6	21589.4
894.3069	1553.7572	22460	21534.4
894.4496	1555.5414	22374.85	21452.1
894.5923	1557.3247	22390.5	21469.25
894.735	1559.1074	22386.25	21465
894.8777	1560.8893	22343.45	21421.75
895.0204	1562.6705	22288.8	21368.05
895.163	1564.4509	22331.5	21407.9
895.3056	1566.2305	22334.4	21417.15
895.4482	1568.0094	22445.65	21530.7
895.5908	1569.7876	22470.1	21551.3
895.7334	1571.565	22482.9	21560.3
895.876	1573.3417	22488.05	21569.25
896.0186	1575.1176	22464.75	21545.4
896.1611	1576.8928	22438.05	21520.45
896.3036	1578.6672	22260.45	21349.9
896.4461	1580.4409	22089.55	21178.55
896.5886	1582.2138	21882.15	20968.75
896.7311	1583.986	21714.15	20795.95
896.8736	1585.7575	21570.15	20654.15
897.0161	1587.5282	21424	20511.85
897.1585	1589.2981	21334.05	20423.3
897.3009	1591.0673	21178.05	20266.3
897.4433	1592.8358	21129.4	20216.7
897.5857	1594.6035	21047.9	20132.1
897.7281	1596.3704	20953.8	20038.25
897.8705	1598.1366	20924.85	20007.3
898.0128	1599.9021	20916.55	20004.15
898.1551	1601.6668	20881.65	19964.85
898.2975	1603.4308	20882.6	19965.4
898.4398	1605.194	20903.95	19986.3
898.5821	1606.9564	20916.65	20007
898.7243	1608.7182	20940.8	20035.6
898.8666	1610.4791	20988.5	20086.05
899.0088	1612.2394	21068.55	20166.35
899.1511	1613.9988	21200.1	20298.25
899.2933	1615.7576	21368.55	20460.1
899.4355	1617.5156	21553.9	20637.9
899.5776	1619.2728	21835.55	20918.15
899.7198	1621.0293	21969.5	21054.35
899.862	1622.785	22008.55	21097
900.0041	1624.54	21828.85	20919.8
900.1462	1626.2942	21657.05	20748.5
900.2883	1628.0477	21360.25	20450.2
900.4304	1629.8005	21086.2	20175.4
900.5725	1631.5525	20768.1	19861
900.7145	1633.3037	20484.6	19578.45
900.8566	1635.0542	20297.25	19388.85
900.9986	1636.804	20098.15	19189.05
901.1406	1638.553	20054.6	19098.55
901.2826	1640.3013	19854.15	18946.35
901.4245	1642.0488	19754.25	18843
901.5665	1643.7955	19696.35	18791.7
901.7085	1645.5416	19643.8	18735.4
901.8504	1647.2868	19648.6	18739.1
901.9923	1649.0313	19652.15	18742.4
902.1342	1650.7751	19782	18870
902.2761	1652.5181	19889.2	18983.75
902.4179	1654.2604	20042.15	19135.9
902.5598	1656.0019	20324.1	19419.15
902.7016	1657.7427	20667.4	19760.4
902.8434	1659.4828	20989.8	20081.3
902.9852	1661.222	21207.55	20297
903.127	1662.9606	21189.25	20282.25
903.2687	1664.6984	21023.75	20112.75
903.4105	1666.4354	20711.55	19799.95
903.5522	1668.1717	20233.45	19320.1
903.6939	1669.9072	19726.4	18814.5
903.8356	1671.642	19317.8	18404.15
903.9773	1673.3761	18999.75	18091.95
904.119	1675.1094	18718.6	17810.65
904.2606	1676.8419	18449.65	17541.35
904.4022	1678.5737	18221.5	17310.95
904.5439	1680.3048	18105.35	17194.25
904.6855	1682.0351	17973.8	17065.15
904.827	1683.7646	17844.6	16930.3
904.9686	1685.4934	17759.25	16851.7
905.1101	1687.2215	17657.4	16749.9
905.2517	1688.9488	17512.5	16603.45
905.3932	1690.6754	17434.55	16526.85
905.5347	1692.4012	17416.05	16509.4
905.6761	1694.1263	17352.75	16442.4
905.8176	1695.8506	17273.1	16365.95
905.9591	1697.5742	17212.65	16308.1
906.1005	1699.297	17123.45	16220.05
906.2419	1701.0191	17013.35	16110.15
906.3833	1702.7404	16948.9	16046.95
906.5246	1704.461	16873.2	15968.05
906.666	1706.1808	16792	15885.5
906.8073	1707.8999	16753.25	15849.5
906.9487	1709.6182	16684.05	15782.4
907.09	1711.3358	16643.15	15744.85
907.2313	1713.0527	16585.2	15686.25
907.3725	1714.7688	16518.85	15611.2
907.5138	1716.4841	16405.2	15501.6
907.655	1718.1987	16437.25	15529.7
907.7962	1719.9126	16333.25	15431.85
907.9374	1721.6257	16265.15	15364.3
908.0786	1723.338	16236.65	15338.45
908.2198	1725.0496	16119.55	15217.75
908.3609	1726.7605	16065.1	15160.7
908.502	1728.4706	16022.55	15118.65
908.6431	1730.18	15919	15016.6
908.7842	1731.8886	15891.35	14992.25
908.9253	1733.5964	15851.05	14931.25
909.0664	1735.3036	15810.7	14908.3
909.2074	1737.0099	15821.45	14921.7
909.3484	1738.7156	15748.35	14851.3
909.4894	1740.4204	15654.1	14749.65
909.6304	1742.1246	15608.2	14705.55
909.7714	1743.8279	15641.85	14742.65
909.9123	1745.5306	15594.2	14693.35
910.0532	1747.2325	15503.2	14605.15
910.1941	1748.9336	15429.6	14528.3
910.335	1750.634	15411.85	14510.8
910.4759	1752.3336	15374.85	14476
910.6168	1754.0325	15320.9	14425.75
910.7576	1755.7307	15298.6	14400.95
910.8984	1757.4281	15274.55	14374.9
911.0392	1759.1247	15236.85	14327.1
911.18	1760.8206	15199.25	14292.45
911.3208	1762.5158	15172.3	14265.85
911.4615	1764.2102	15119.9	14219.2
911.6022	1765.9039	15073.1	14174.65
911.7429	1767.5968	15024.15	14129.8
911.8836	1769.289	14954.05	14057.05
912.0243	1770.9804	14936.8	14036.45
912.1649	1772.6711	14915.5	14011.9
912.3056	1774.361	14857.95	13956.6
912.4462	1776.0502	14824.9	13924.2
912.5868	1777.7386	14812.75	13908.65
912.7274	1779.4263	14746.9	13847.8
912.8679	1781.1132	14726.55	13831.75
913.0084	1782.7994	14682.25	13784.25
913.149	1784.4849	14633.8	13738.7
913.2895	1786.1696	14594.3	13679.25
913.4299	1787.8535	14521.15	13627.85
913.5704	1789.5367	14495.55	13601.8
913.7108	1791.2192	14494.85	13598.9
913.8513	1792.9009	14439.45	13515.9
913.9917	1794.5818	14423.35	13525.15
914.132	1796.2621	14332.7	13435.75
914.2724	1797.9415	14329.3	13431.15
914.4128	1799.6202	14262.95	13362.25
914.5531	1801.2982	14242.95	13342.1
914.6934	1802.9755	14195.6	13297.05
914.8337	1804.6519	14212.7	13313.2
914.9739	1806.3277	14123.3	13225.55
915.1142	1808.0027	14047.05	13153.65
915.2544	1809.6769	14045.45	13150.65
915.3946	1811.3504	13990.9	13098.55
915.5348	1813.0231	13989.65	13094.25
915.675	1814.6951	13964.8	13068.3
915.8151	1816.3664	13966.05	13066.75
915.9553	1818.0369	13905.6	13007.7
916.0954	1819.7067	13850.35	12952.7
916.2355	1821.3757	13838.4	12939.1
916.3755	1823.044	13796.7	12898.1
916.5156	1824.7115	13766.85	12868.55
916.6556	1826.3783	13707.55	12809.65
916.7956	1828.0443	13681.75	12784.9
916.9356	1829.7096	13611.45	12713.05
917.0756	1831.3741	13631.45	12730
917.2155	1833.0379	13557.35	12661.35
917.3555	1834.701	13510.9	12615.15
917.4954	1836.3633	13517.8	12624.35
917.6353	1838.0248	13462.45	12566.2
917.7751	1839.6856	13449.75	12555.1
917.915	1841.3457	13455.45	12558.2
918.0548	1843.005	13384.2	12487
918.1946	1844.6636	13391.8	12495
918.3344	1846.3214	13338	12440.9
918.4742	1847.9785	13344.8	12449.35
918.6139	1849.6349	13299.65	12402.7
918.7537	1851.2904	13238.25	12329.65
918.8934	1852.9453	13219.35	12318.15
919.0331	1854.5994	13165.15	12265.1
919.1727	1856.2528	13191.75	12287.95
919.3124	1857.9054	13117.85	12220.95
919.452	1859.5572	13123.05	12228.45
919.5916	1861.2083	13084.45	12184.65
919.7312	1862.8587	13060.6	12163.7
919.8708	1864.5084	13037.5	12138.95
920.0103	1866.1572	12970.45	12072.1
920.1498	1867.8054	12922.55	12021.7
920.2893	1869.4528	12897.7	11998
920.4288	1871.0994	12864.15	11965.3
920.5683	1872.7453	12871.6	11974.5
920.7077	1874.3905	12831	11917.9
920.8471	1876.0349	12745.25	11847.9
920.9865	1877.6786	12775.05	11877.95
921.1259	1879.3215	12753.35	11856.3
921.2653	1880.9637	12712.05	11812.55
921.4046	1882.6051	12678.9	11782.5
921.5439	1884.2458	12636.75	11739.35
921.6832	1885.8858	12587.25	11690
921.8225	1887.525	12568.15	11670
921.9617	1889.1634	12524.15	11626.1
922.101	1890.8011	12487.65	11589.05
922.2402	1892.4381	12452.15	11554.45
922.3794	1894.0743	12454.3	11557.2
922.5185	1895.7098	12433.5	11536.15
922.6577	1897.3446	12386.75	11490.85
922.7968	1898.9786	12358.35	11456.2
922.9359	1900.6118	12313.05	11418.1
923.075	1902.2443	12238.15	11338.5
923.214	1903.8761	12203.55	11306
923.3531	1905.5071	12147.8	11251.7
923.4921	1907.1374	12112.1	11214.4
923.6311	1908.7669	12115.85	11217.7
923.77	1910.3957	12089.75	11197.05
923.909	1912.0237	12011.45	11118.05
924.0479	1913.651	11993.55	11097.7
924.1868	1915.2776	11939.95	11045.9
924.3257	1916.9034	11893.75	10997.35
924.4646	1918.5285	11836.65	10943.15
924.6034	1920.1528	11789.7	10893.55
924.7422	1921.7764	11770.35	10873.65
924.881	1923.3992	11746.6	10850.85
925.0198	1925.0213	11684.65	10788.75
925.1586	1926.6427	11631	10738
925.2973	1928.2633	11688.55	10723.1
925.436	1929.8832	11591.55	10693.45
925.5747	1931.5023	11526	10625.95
925.7134	1933.1207	11500.4	10603.95
925.852	1934.7383	11500.25	10604.4
925.9906	1936.3552	11438.95	10546.25
926.1292	1937.9714	11398.85	10502.05
926.2678	1939.5868	11355.95	10459.25
926.4064	1941.2015	11286.2	10389.9
926.5449	1942.8154	11295.3	10398.25
926.6834	1944.4286	11213.1	10317.45
926.8219	1946.041	11209.15	10288.55
926.9604	1947.6528	11132.6	10228.95
927.0988	1949.2637	11094.85	10199.8
927.2372	1950.8739	11043.55	10148.2
927.3756	1952.4834	11036.1	10141.05
927.514	1954.0921	11005.9	10111.8
927.6523	1955.7001	10952.15	10055.4
927.7907	1957.3074	10938.05	10043.55
927.929	1958.9139	10880	9988.2
928.0673	1960.5197	10862.15	9967.8
928.2055	1962.1247	10802.75	9910.4
928.3438	1963.729	10765.8	9874.3
928.482	1965.3325	10745.35	9831.45
928.6202	1966.9353	10708.3	9818.15
928.7584	1968.5374	10677.75	9786.65
928.8965	1970.1387	10650.6	9759.4
929.0346	1971.7393	10614.65	9721
929.1727	1973.3392	10566.2	9673.7
929.3108	1974.9383	10516.7	9627.95
929.4489	1976.5366	10449.65	9558.45
929.5869	1978.1342	10447	9554.35
929.7249	1979.7311	10437.45	9546.15
929.8629	1981.3273	10386.65	9495.5
930.0009	1982.9227	10362.35	9471.6
930.1388	1984.5173	10360.05	9467.7
930.2767	1986.1112	10303.2	9411.85
930.4146	1987.7044	10249.35	9360.1
930.5525	1989.2968	10234.05	9342.4
930.6904	1990.8885	10205.9	9311.75
930.8282	1992.4795	10189.05	9298.85
930.966	1994.0697	10122.5	9235.25
931.1038	1995.6592	10088.7	9198.45
931.2415	1997.2479	10061.05	9170.05
931.3793	1998.8359	10038.35	9148.25
931.517	2000.4232	10002.3	9117.5
931.6547	2002.0097	9978	9093.4
931.7923	2003.5955	9947.1	9060.6
931.93	2005.1805	9928.7	9042.15
932.0676	2006.7648	9917.8	9027.9
932.2052	2008.3484	9866.6	8979.55
932.3427	2009.9312	9879.05	8990.75
932.4803	2011.5133	9823.4	8938.1
932.6178	2013.0946	9820	8933.85
932.7553	2014.6752	9787.3	8901.85
932.8928	2016.2551	9738.7	8850
933.0302	2017.8342	9690.85	8802.75
933.1676	2019.4126	9676.6	8789.15
933.305	2020.9902	9626.7	8742.8
933.4424	2022.5672	9613.05	8726.35
933.5798	2024.1433	9581.3	8690.35
933.7171	2025.7188	9546.25	8662.45
933.8544	2027.2935	9523.2	8638.95
933.9917	2028.8674	9496.6	8610.35
934.129	2030.4406	9475.45	8592.85
934.2662	2032.0131	9418.8	8535
934.4034	2033.5849	9393.65	8500.85
934.5406	2035.1559	9396.05	8511.1
934.6778	2036.7261	9362.75	8475.25
934.8149	2038.2957	9330.4	8439.8
934.952	2039.8645	9324.45	8432.85
935.0891	2041.4325	9327.35	8431.75
935.2262	2042.9998	9254	8364.9
935.3632	2044.5664	9267.3	8378.7
935.5002	2046.1323	9238.5	8354
935.6372	2047.6974	9184.3	8300.5
935.7742	2049.2617	9174	8290.35
935.9111	2050.8254	9153.2	8262.65
936.048	2052.3883	9141.4	8250.9
936.1849	2053.9504	9113.15	8223
936.3218	2055.5118	9091.95	8203.15
936.4586	2057.0725	9039.55	8147.25
936.5955	2058.6325	8987.95	8100.85
936.7323	2060.1917	8977.85	8093
936.869	2061.7502	8963.2	8077.3
937.0058	2063.3079	8930.7	8047.75
937.1425	2064.8649	8891.05	8001.8
937.2792	2066.4212	8889.55	8001.5
937.4159	2067.9767	8852.8	7965.95
937.5525	2069.5315	8814.35	7929.45
937.6891	2071.0856	8766.2	7880.1
937.8257	2072.6389	8725.7	7838.95
937.9623	2074.1915	8696.4	7812.45
938.0989	2075.7433	8665.4	7776.45
938.2354	2077.2945	8665.3	7781.1
938.3719	2078.8448	8629.9	7742.45
938.5084	2080.3945	8590.15	7702.6
938.6448	2081.9434	8587.75	7698.65
938.7812	2083.4916	8586.6	7695.7
938.9176	2085.039	8546.85	7652.4
939.054	2086.5857	8520.9	7626.3
939.1903	2088.1317	8512.7	7623
939.3267	2089.677	8486.95	7593.85
939.463	2091.2215	8465.65	7572.6
939.5992	2092.7652	8431.4	7535.35
939.7355	2094.3083	8372.4	7477.6
939.8717	2095.8506	8391.65	7502.85
940.0079	2097.3921	8380.7	7492.8
940.1441	2098.933	8365.65	7476.25
940.2802	2100.4731	8338.2	7448.4
940.4163	2102.0124	8316.85	7420
940.5524	2103.5511	8289.55	7397.6
940.6885	2105.089	8279.55	7388.55
940.8245	2106.6261	8272.7	7381.45
940.9606	2108.1626	8247.7	7357.9
941.0965	2109.6983	8224.7	7305.15
941.2325	2111.2332	8225.85	7334.45
941.3684	2112.7675	8188	7295.75
941.5044	2114.301	8161.25	7270.2
941.6403	2115.8337	8155.5	7262.55
941.7761	2117.3657	8110.45	7217.7
941.912	2118.897	8113.25	7222.35
942.0478	2120.4276	8070.5	7174
942.1835	2121.9575	8021.35	7128.65
942.3193	2123.4866	8042.05	7139.5
942.455	2125.0149	8027.85	7135.4
942.5907	2126.5426	7958.65	7070.8
942.7264	2128.0695	7948.45	7057.95
942.8621	2129.5956	7924.95	7040.25
942.9977	2131.1211	7910.85	7019.65
943.1333	2132.6458	7891.3	7002.1
943.2689	2134.1698	7868.65	6975.6
943.4044	2135.693	7859.15	6963.6
943.54	2137.2155	7838	6940.8
943.6755	2138.7373	7823.5	6934.85
943.8109	2140.2584	7786.6	6899.6
943.9464	2141.7787	7777.2	6885.4
944.0818	2143.2983	7734.45	6850.15
944.2172	2144.8171	7717.5	6831.9
944.3526	2146.3353	7692.2	6800.35
944.4879	2147.8527	7652.5	6764.8
944.6232	2149.3693	7655.05	6762.6
944.7585	2150.8853	7622.65	6730.9
944.8938	2152.4005	7580.8	6690.6
945.029	2153.9149	7588.55	6695.55
945.1642	2155.4287	7664.4	6657.85
945.2994	2156.9417	7553.4	6659.05
945.4346	2158.454	7535.2	6645.55
945.5697	2159.9655	7494.95	6607.15
945.7048	2161.4764	7486.2	6597.2
945.8399	2162.9865	7467.8	6581.55
945.9749	2164.4958	7452.05	6562.65
946.1099	2166.0045	7408.7	6518.4
946.2449	2167.5124	7395.25	6504.6
946.3799	2169.0195	7378.65	6488.25
946.5148	2170.526	7370.45	6479.75
946.6498	2172.0317	7359.35	6469.05
946.7846	2173.5367	7336.05	6446.35
946.9195	2175.0409	7307.35	6419.75
947.0543	2176.5445	7300.55	6410.4
947.1891	2178.0473	7264.35	6373.55
947.3239	2179.5494	7239.1	6343.7
947.4587	2181.0507	7206.35	6314.3
947.5934	2182.5513	7198.95	6308
947.7281	2184.0512	7178.6	6288.8
947.8628	2185.5504	7173.7	6284.7
947.9974	2187.0488	7147	6258.8
948.132	2188.5465	7118.95	6230.8
948.2666	2190.0435	7085.8	6195.1
948.4012	2191.5397	7059	6168.45
948.5357	2193.0353	7024.05	6131.75
948.6702	2194.5301	6995.8	6101.55
948.8047	2196.0241	6984.3	6088.85
948.9392	2197.5175	6975.35	6080.95
949.0736	2199.0101	6943.05	6042.95
949.208	2200.502	6908.65	6019.35
949.3424	2201.9931	6886.35	5997.75
949.4767	2203.4835	6864	5976.4
949.611	2204.9733	6839.05	5944.05
949.7453	2206.4622	6838.65	5951.75
949.8796	2207.9505	6807.65	5920.15
950.0138	2209.438	6770.25	5885.5
950.148	2210.9248	6769.4	5881.25
950.2822	2212.4109	6743.7	5854.75
950.4164	2213.8962	6717.3	5820.7
950.5505	2215.3809	6714.2	5818.25
950.6846	2216.8648	6696.15	5800.65
950.8186	2218.3479	6680.4	5779.15
950.9527	2219.8304	6656	5757.35
951.0867	2221.3121	6604.6	5706.8
951.2207	2222.7931	6591	5698.15
951.3546	2224.2733	6591	5698
951.4886	2225.7529	6559.15	5666.5
951.6225	2227.2317	6541.95	5648.7
951.7563	2228.7098	6524.5	5637.7
951.8902	2230.1872	6493.05	5604.95
952.024	2231.6638	6474.4	5586.25
952.1578	2233.1397	6464.95	5573.45
952.2916	2234.6149	6458.35	5570.25
952.4253	2236.0894	6437.05	5545.4
952.559	2237.5632	6412.6	5522.85
952.6927	2239.0362	6364.9	5476.05
952.8263	2240.5085	6361.4	5471.1
952.9599	2241.9801	6371.4	5481.4
953.0935	2243.4509	6341.6	5447.55
953.2271	2244.921	6323.35	5428.5
953.3606	2246.3904	6288.45	5393
953.4941	2247.8591	6265.25	5371.25
953.6276	2249.3271	6266.85	5374.35
953.7611	2250.7943	6236.4	5342.3
953.8945	2252.2608	6214.6	5321.75
954.0279	2253.7266	6228.05	5335.7
954.1612	2255.1917	6187.55	5297.8
954.2946	2256.656	6148.55	5258.95
954.4279	2258.1197	6138.05	5250.35
954.5612	2259.5826	6120.15	5230.15
954.6944	2261.0447	6097.5	5203.9
954.8276	2262.5062	6066.5	5172.4
954.9608	2263.9669	6070.25	5176.4
955.094	2265.4269	6054.65	5162.5
955.2271	2266.8862	6024.25	5134.2
955.3602	2268.3448	6022.4	5133.5
955.4933	2269.8026	6006.1	5115.65
955.6264	2271.2598	5985.65	5098.2
955.7594	2272.7162	5945.25	5055.9
955.8924	2274.1719	5962.5	5069.2
956.0253	2275.6268	5943.5	5048.5
956.1583	2277.0811	5940.5	5045.8
956.2912	2278.5346	5925.4	5036.6
956.4241	2279.9874	5887.95	4999.5
956.5569	2281.4395	5870.05	4981.7
956.6897	2282.8908	5866.35	4970.3
956.8225	2284.3414	5865.7	4971.15
956.9553	2285.7914	5846.1	4957.25
957.088	2287.2406	5830.35	4936.2
957.2207	2288.689	5815.7	4922.5
957.3534	2290.1368	5810.75	4915.4
957.486	2291.5838	5791.4	4892.9
957.6186	2293.0302	5769.85	4873.7
957.7512	2294.4758	5744.6	4850.95
957.8838	2295.9206	5728.1	4834.95
958.0163	2297.3648	5714.15	4823.1
958.1488	2298.8082	5702.8	4809.75
958.2813	2300.251	5692.4	4798.1
958.4137	2301.693	5655.75	4758.6
958.5461	2303.1343	5655	4759.8
958.6785	2304.5748	5635.2	4745.2
958.8108	2306.0147	5603.3	4714.65
958.9432	2307.4538	5606.65	4716.5
959.0754	2308.8922	5574.8	4688.5
959.2077	2310.3299	5563.05	4675.5
959.3399	2311.7669	5544.3	4654.15
959.4721	2313.2031	5537.2	4645.1
959.6043	2314.6387	5493.15	4601.15
959.7365	2316.0735	5508.2	4615
959.8686	2317.5076	5481.15	4588.9
960.0006	2318.941	5468.15	4575.45
960.1327	2320.3737	5470.2	4574.5
960.2647	2321.8056	5458.1	4561.85
960.3967	2323.2369	5430.9	4539.75
960.5287	2324.6674	5410.9	4517.35
960.6606	2326.0972	5394.1	4501.05
960.7925	2327.5263	5386.85	4495.75
960.9244	2328.9547	5373.5	4480.15
961.0562	2330.3823	5367.1	4473.35
961.1881	2331.8092	5361.25	4463.6
961.3198	2333.2355	5314.25	4419.35
961.4516	2334.661	5312.45	4417.8
961.5833	2336.0858	5297.7	4403.15
961.715	2337.5098	5282.25	4390.95
961.8467	2338.9332	5273.85	4381.3
961.9783	2340.3558	5252.45	4357.65
962.1099	2341.7778	5225.5	4335.3
962.2415	2343.199	5205.55	4312.3
962.373	2344.6195	5219.95	4328.55
962.5045	2346.0393	5204.3	4315.15
962.636	2347.4583	5183.25	4291.95
962.7675	2348.8767	5168.5	4275
962.8989	2350.2943	5168.25	4272.2
963.0303	2351.7113	5147.45	4251.9
963.1617	2353.1275	5146.05	4249.75
963.293	2354.543	5121.55	4219.2
963.4243	2355.9578	5105.85	4211.55
963.5556	2357.3718	5094.35	4204.35
963.6868	2358.7852	5066.2	4175.5
963.818	2360.1978	5031.65	4140
963.9492	2361.6098	5044.2	4154.35
964.0803	2363.021	5019.15	4122.3
964.2114	2364.4315	5014.3	4124.2
964.3425	2365.8413	5006.65	4115.2
964.4736	2367.2504	4976.6	4086.75
964.6046	2368.6587	4951.5	4061.5
964.7356	2370.0664	4932.45	4042.9
964.8666	2371.4733	4921.9	4031.5
964.9975	2372.8795	4911	4020.15
965.1284	2374.285	4898.65	4007.6
965.2593	2375.6899	4855.05	3965.7
965.3901	2377.0939	4847.8	3957.35
965.5209	2378.4973	4839.15	3948.65
965.6517	2379.9	4831.55	3941.65
965.7825	2381.3019	4808.35	3919.05
965.9132	2382.7032	4803.7	3914.7
966.0439	2384.1037	4778.3	3890.55
966.1745	2385.5035	4755.75	3867.85
966.3051	2386.9027	4739.35	3851.7
966.4357	2388.3011	4723.05	3830.95
966.5663	2389.6987	4727.6	3837.9
966.6968	2391.0957	4707.35	3818.85
966.8273	2392.492	4688.2	3799.05
966.9578	2393.8876	4657.45	3768.75
967.0882	2395.2824	4651.45	3760.5
967.2186	2396.6765	4633.6	3745.05
967.349	2398.07	4611.9	3721.9
967.4793	2399.4627	4606.75	3714.95
967.6097	2400.8547	4609.05	3718.95
967.7399	2402.246	4592.8	3694.5
967.8702	2403.6366	4571.85	3681.6
968.0004	2405.0265	4541.15	3651.05
968.1306	2406.4156	4526.4	3631.35
968.2607	2407.8041	4517.5	3623.05
968.3909	2409.1918	4512.25	3619.2
968.521	2410.5789	4488.4	3597.8
968.651	2411.9652	4497.8	3604.3
968.781	2413.3508	4465.8	3573.45
968.911	2414.7358	4454.4	3563.3
969.041	2416.12	4431.8	3542.15
969.1709	2417.5035	4420.35	3529.15
969.3008	2418.8863	4407.55	3515.8
969.4307	2420.2684	4386.9	3494.65
969.5606	2421.6497	4375.8	3483.8
969.6904	2423.0304	4352.4	3463.05
969.8201	2424.4104	4353.45	3463.1
969.9499	2425.7896	4354.7	3463.85
970.0796	2427.1682	4323.95	3433.2
970.2093	2428.546	4315	3424.2
970.3389	2429.9232	4306.25	3415.35
970.4685	2431.2996	4302.9	3413.15
970.5981	2432.6753	4274.75	3382.6
970.7277	2434.0503	4290.8	3397.35
970.8572	2435.4246	4262.65	3372.4
970.9867	2436.7982	4237.75	3344.6
971.1161	2438.1711	4231.15	3341.55
971.2456	2439.5433	4248	3354.65
971.375	2440.9148	4211.5	3316.7
971.5043	2442.2856	4201.7	3313.35
971.6336	2443.6557	4188.25	3297.45
971.7629	2445.025	4161.9	3270.95
971.8922	2446.3937	4167.7	3276.2
972.0214	2447.7617	4146.85	3256.4
972.1506	2449.1289	4150.85	3259.6
972.2798	2450.4955	4137.55	3242.9
972.4089	2451.8613	4146.4	3255.65
972.538	2453.2265	4118.85	3228.8
972.6671	2454.5909	4117.15	3226
972.7961	2455.9546	4100.5	3211.5
972.9251	2457.3177	4067.4	3177.75
973.0541	2458.68	4072.45	3180.55
973.1831	2460.0416	4075.7	3185.75
973.312	2461.4025	4059.9	3164.85
973.4408	2462.7627	4056.55	3155.95
973.5697	2464.1222	4042	3154.75
973.6985	2465.4811	4023.15	3133.45
973.8273	2466.8392	4004.8	3114.6
973.956	2468.1966	4011.6	3118.55
974.0847	2469.5533	3997.9	3106.55
974.2134	2470.9093	3985.45	3093.65
974.3421	2472.2645	3976.15	3082.65
974.4707	2473.6191	3962	3070.7
974.5993	2474.973	3960.85	3070.55
974.7278	2476.3262	3949.85	3057.5
974.8563	2477.6787	3943.3	3053.1
974.9848	2479.0305	3918.1	3028.85
975.1132	2480.3816	3904.7	3011.35
975.2417	2481.7319	3896.25	3006.05
975.37	2483.0816	3880	2987.85
975.4984	2484.4306	3883.3	2993.55
975.6267	2485.7789	3864.9	2973.85
975.755	2487.1264	3856.85	2967.1
975.8833	2488.4733	3833.95	2943.5
976.0115	2489.8195	3850.05	2942.1
976.1397	2491.165	3822.55	2928.4
976.2678	2492.5097	3805.05	2914.15
976.3959	2493.8538	3790.75	2901.7
976.524	2495.1972	3774.7	2884.85
976.6521	2496.5398	3763.45	2872.6
976.7801	2497.8818	3761.9	2867.25
976.9081	2499.2231	3752.3	2860.05
977.036	2500.5637	3732.35	2837.75
977.164	2501.9035	3722.15	2830.4
977.2918	2503.2427	3714.55	2818.95
977.4197	2504.5812	3688.9	2799
977.5475	2505.919	3694.35	2802.85
977.6753	2507.256	3702.55	2810.6
977.8031	2508.5924	3673.1	2783.95
977.9308	2509.9281	3658.05	2762.7
978.0585	2511.2631	3656.2	2765.55
978.1861	2512.5974	3645.8	2752
978.3137	2513.9309	3636.4	2744.65
978.4413	2515.2638	3644.05	2725.25
978.5689	2516.596	3628.45	2737.5
978.6964	2517.9275	3593.1	2702.9
978.8239	2519.2583	3594.25	2702
978.9513	2520.5884	3579	2687.55
979.0788	2521.9178	3560.45	2670.35
979.2062	2523.2465	3556.8	2668.15
979.3335	2524.5745	3548.65	2658.75
979.4608	2525.9018	3541.15	2649.1
979.5881	2527.2284	3555.9	2666.25
979.7154	2528.5543	3531.15	2642.25
979.8426	2529.8796	3513	2622.65
979.9698	2531.2041	3518.65	2627.95
980.0969	2532.5279	3498.05	2609.6
980.224	2533.851	3488.4	2595.95
980.3511	2535.1735	3494.85	2607.3
980.4781	2536.4952	3488.2	2596.1
980.6052	2537.8163	3484.15	2592.7
980.7321	2539.1366	3472.85	2583.35
980.8591	2540.4562	3462.8	2569.05
980.986	2541.7752	3455.2	2564.5
981.1129	2543.0935	3444.5	2549.95
981.2397	2544.411	3447.65	2555.1
981.3665	2545.7279	3436.55	2546.15
981.4933	2547.0441	3431.6	2541.15
981.62	2548.3596	3421.55	2526.8
981.7467	2549.6744	3410.25	2518.2
981.8734	2550.9885	3412.75	2518
982.0001	2552.3019	3404.8	2513.65
982.1267	2553.6146	3382.3	2490.1
982.2532	2554.9266	3387.65	2497
982.3798	2556.2379	3355.35	2463.7
982.5063	2557.5485	3364.2	2473.05
982.6327	2558.8585	3365.25	2467.2
982.7592	2560.1677	3357.5	2461.35
982.8856	2561.4762	3350.35	2459.15
983.0119	2562.7841	3348.75	2457.5
983.1383	2564.0913	3331.8	2442.25
983.2646	2565.3977	3327.2	2435.9
983.3908	2566.7035	3322.1	2430.55
983.517	2568.0086	3311.05	2416.75
983.6432	2569.313	3313.55	2420
983.7694	2570.6167	3306.65	2411.6
983.8955	2571.9197	3287	2396.3
984.0216	2573.222	3299.45	2404.6
984.1476	2574.5236	3279.7	2387.15
984.2737	2575.8246	3269.55	2373.75
984.3996	2577.1248	3276.5	2381.75
984.5256	2578.4244	3261.55	2372.05
984.6515	2579.7232	3265.65	2373.7
984.7774	2581.0214	3279.75	2358
984.9032	2582.3189	3267.6	2377.75
985.029	2583.6157	3249.2	2352.9
985.1548	2584.9118	3243.15	2351.75
985.2806	2586.2072	3237	2343.3
985.4063	2587.5019	3235.85	2344.05
985.5319	2588.7959	3236.95	2345.3
985.6576	2590.0893	3242.75	2348.5
985.7832	2591.3819	3210.05	2319.75
985.9087	2592.6739	3207.55	2317.65
986.0343	2593.9652	3209.4	2316.3
986.1597	2595.2557	3202.95	2310.7
986.2852	2596.5456	3200.7	2306.15
986.4106	2597.8348	3181.4	2291.35
986.536	2599.1234	3169.7	2277.65
986.6614	2600.4112	3166.75	2275.35
986.7867	2601.6983	3168.25	2275.55
986.912	2602.9848	3149.7	2254.9
987.0372	2604.2705	3154.5	2258
987.1624	2605.5556	3158.75	2266.8
987.2876	2606.84	3139	2246.05
987.4128	2608.1237	3129.5	2237.65
987.5379	2609.4067	3122.2	2229
987.6629	2610.689	3125.2	2226.55
987.788	2611.9707	3110.6	2214.25
987.913	2613.2516	3101.25	2204.7
988.0379	2614.5319	3080.4	2189.1
988.1629	2615.8115	3064.45	2172.75
988.2878	2617.0903	3075.25	2181.9
988.4126	2618.3685	3066.6	2173.6
988.5375	2619.6461	3048.3	2157.15
988.6622	2620.9229	3043.35	2152.95
988.787	2622.199	3035.35	2142.55
988.9117	2623.4745	3023.75	2130.5
989.0364	2624.7493	3025.95	2134.5
989.161	2626.0234	3009.6	2117.85
989.2857	2627.2968	3009.6	2118.25
989.4102	2628.5695	3007.7	2114.95
989.5348	2629.8415	2995.5	2104.75
989.6593	2631.1128	2975.6	2083.75
989.7837	2632.3835	2978	2085.75
989.9082	2633.6535	2971.45	2081
990.0326	2634.9228	2970.35	2078.4
990.1569	2636.1914	2957.65	2068.35
990.2812	2637.4593	2958.9	2061
990.4055	2638.7265	2944.65	2052.55
990.5298	2639.9931	2942	2050
990.654	2641.259	2927.85	2035
990.7782	2642.5242	2922.15	2030.35
990.9023	2643.7887	2908.8	2018.95
991.0264	2645.0525	2895.55	2002.95
991.1505	2646.3156	2898.65	2005.15
991.2745	2647.5781	2893.95	2002.45
991.3985	2648.8398	2887.1	1993.65
991.5225	2650.1009	2878	1981.3
991.6464	2651.3613	2866.95	1975.85
991.7703	2652.6211	2869.35	1977.85
991.8942	2653.8801	2855.8	1966.35
992.018	2655.1385	2845.55	1951.1
992.1418	2656.3961	2856.4	1964.3
992.2655	2657.6531	2845.85	1952.6
992.3892	2658.9094	2829.15	1937
992.5129	2660.1651	2831.65	1940.7
992.6366	2661.42	2830.15	1940.1
992.7602	2662.6743	2826.45	1934.45
992.8837	2663.9279	2825	1936.3
993.0073	2665.1808	2820.9	1928.15
993.1307	2666.433	2816.5	1926.05
993.2542	2667.6846	2812.3	1919.9
993.3776	2668.9354	2806.85	1914.7
993.501	2670.1856	2800.55	1907.6
993.6244	2671.4351	2801.9	1911.65
993.7477	2672.6839	2808.9	1920.1
993.8709	2673.9321	2787.4	1895.8
993.9942	2675.1795	2781.3	1888.75
994.1174	2676.4263	2785.45	1894.2
994.2405	2677.6724	2782.9	1893.25
994.3637	2678.9179	2781.05	1889.25
994.4868	2680.1626	2791.25	1901.6
994.6098	2681.4067	2780.75	1890.15
994.7328	2682.6501	2769.4	1877.95
994.8558	2683.8928	2750.3	1858.9
994.9788	2685.1348	2739.1	1848.05
995.1017	2686.3761	2736.55	1846.75
995.2245	2687.6168	2729.75	1839.35
995.3474	2688.8568	2733.45	1843.9
995.4702	2690.0961	2713.4	1823.65
995.5929	2691.3348	2719.3	1830.5
995.7156	2692.5727	2708.7	1819.4
995.8383	2693.81	2700.25	1810.8
995.961	2695.0466	2689	1798.15
996.0836	2696.2826	2687	1794.45
996.2062	2697.5178	2677.35	1784.2
996.3287	2698.7524	2671.95	1779
996.4512	2699.9863	2681.75	1789.55
996.5737	2701.2195	2668.35	1779.75
996.6961	2702.452	2673.45	1781.6
996.8185	2703.6839	2664.15	1773.9
996.9408	2704.9151	2660.3	1769.05
997.0631	2706.1456	2663.7	1772.75
997.1854	2707.3755	2668.25	1777.15
997.3077	2708.6046	2659.3	1764.95
997.4299	2709.8331	2664.45	1774.55
997.552	2711.0609	2660.55	1771.55
997.6742	2712.2881	2662.85	1771.85
997.7963	2713.5145	2677.6	1785.05
997.9183	2714.7403	2682.7	1792.05
998.0403	2715.9654	2684.55	1794.85
998.1623	2717.1899	2701	1796.8
998.2842	2718.4136	2693.2	1803.65
998.4062	2719.6367	2705.15	1814.05
998.528	2720.8591	2712.3	1816.7
998.6498	2722.0809	2709.95	1820.9
998.7716	2723.3019	2719.6	1824.95
998.8934	2724.5223	2712.35	1822.6
999.0151	2725.7421	2718.7	1828.05
999.1368	2726.9611	2719.65	1827.7
999.2584	2728.1795	2702.65	1809.85
999.38	2729.3972	2697.4	1807.45
999.5016	2730.6142	2675	1780.6
999.6231	2731.8306	2657	1765.5
999.7446	2733.0462	2639	1746.2
999.8661	2734.2612	2629.7	1734.4
999.9875	2735.4756	2606.85	1715.6
1000.1089	2736.6892	2592.15	1703.4
1000.2302	2737.9022	2553.95	1667.05
1000.3515	2739.1145	2533.2	1644.2
1000.4728	2740.3262	2530.8	1636.05
1000.594	2741.5372	2504.1	1613.85
1000.7152	2742.7475	2495.35	1605.35
1000.8363	2743.9571	2483.65	1594.5
1000.9575	2745.1661	2468.2	1572.7
1001.0785	2746.3744	2451.3	1560.4
1001.1996	2747.582	2438.15	1548.8
1001.3206	2748.7889	2427.4	1535.55
1001.4415	2749.9952	2421.9	1531.45
1001.5625	2751.2008	2411.2	1520.85
1001.6833	2752.4057	2413.75	1521.9
1001.8042	2753.61	2397.25	1505.65
1001.925	2754.8136	2393.9	1504.5
1002.0458	2756.0165	2387.25	1499.75
1002.1665	2757.2188	2369	1481.3
1002.2872	2758.4204	2367.1	1479.7
1002.4078	2759.6213	2372.75	1482.55
1002.5285	2760.8215	2369.5	1476
1002.649	2762.0211	2352	1459.3
1002.7696	2763.22	2353.45	1463.25
1002.8901	2764.4182	2337.75	1444.4
1003.0106	2765.6158	2347.25	1456.3
1003.131	2766.8127	2332.3	1442.45
1003.2514	2768.009	2319.85	1434.75
1003.3717	2769.2045	2333.05	1442.75
1003.492	2770.3994	2326.85	1437.35
1003.6123	2771.5936	2315.7	1425.1
1003.7325	2772.7872	2306.95	1418.95
1003.8527	2773.9801	2296.85	1408.2
1003.9729	2775.1723	2307.05	1401.25
1004.093	2776.3639	2280.6	1393
1004.2131	2777.5548	2276.85	1388.5
1004.3331	2778.745	2281	1391.45
1004.4531	2779.9346	2276.75	1390.25
1004.5731	2781.1235	2276.95	1387.35
1004.693	2782.3117	2283.75	1394.6
1004.8129	2783.4992	2283.3	1396.5
1004.9328	2784.6861	2269.35	1380.55
1005.0526	2785.8723	2285.1	1395.9
1005.1723	2787.0579	2290.45	1400.8
1005.2921	2788.2428	2295.55	1407.2
1005.4118	2789.427	2290.75	1403.8
1005.5314	2790.6106	2302.3	1413.25
1005.651	2791.7935	2295.75	1408.15
1005.7706	2792.9757	2314.7	1427.05
1005.8902	2794.1573	2312.15	1422.55
1006.0097	2795.3382	2327.55	1439.4
1006.1291	2796.5184	2335.55	1447.6
1006.2485	2797.698	2341.3	1453.1
1006.3679	2798.8769	2351.7	1465.75
1006.4873	2800.0551	2372.1	1483.1
1006.6066	2801.2327	2402.9	1512.25
1006.7258	2802.4096	2413.85	1524.95
1006.8451	2803.5859	2424.35	1535.45
1006.9642	2804.7615	2431.15	1543.4
1007.0834	2805.9364	2475.25	1588.5
1007.2025	2807.1106	2493.95	1606.6
1007.3216	2808.2842	2521.6	1633.65
1007.4406	2809.4572	2547.15	1658.05
1007.5596	2810.6294	2585	1696.25
1007.6785	2811.801	2623.25	1734.9
1007.7975	2812.972	2663.4	1776.65
1007.9163	2814.1423	2714.3	1824.9
1008.0352	2815.3119	2754.3	1866.6
1008.154	2816.4808	2787.6	1899.95
1008.2727	2817.6491	2839.05	1950.95
1008.3914	2818.8167	2882.8	1995.3
1008.5101	2819.9837	2941.95	2048.15
1008.6288	2821.15	2971.5	2083.7
1008.7474	2822.3157	3005.95	2120.75
1008.8659	2823.4807	3059.75	2170.75
1008.9844	2824.645	3093.95	2205.55
1009.1029	2825.8086	3144.3	2256.5
1009.2214	2826.9716	3177.2	2292.25
1009.3398	2828.134	3219.1	2330.7
1009.4581	2829.2957	3243	2356.8
1009.5764	2830.4567	3276.05	2389.55
1009.6947	2831.617	3290.7	2400.25
1009.813	2832.7767	3305.45	2419.35
1009.9312	2833.9358	3297.9	2413.3
1010.0493	2835.0941	3296.5	2406.8
1010.1675	2836.2519	3279.95	2394.3
1010.2855	2837.4089	3267.2	2378.9
1010.4036	2838.5653	3254.75	2368
1010.5216	2839.7211	3240.75	2353.05
1010.6396	2840.8761	3259.25	2371.7
1010.7575	2842.0306	3280.8	2395
1010.8754	2843.1843	3314.1	2428
1010.9932	2844.3374	3357.05	2468.65
1011.111	2845.4899	3428.85	2542.8
1011.2288	2846.6417	3499.7	2610
1011.3465	2847.7928	3571.75	2685.95
1011.4642	2848.9433	3649.75	2763.6
1011.5818	2850.0931	3734.25	2846.55
1011.6995	2851.2422	3807.4	2918.7
1011.817	2852.3907	3903	3016
1011.9345	2853.5385	3948.15	3059.85
1012.052	2854.6857	4010.4	3114.2
1012.1695	2855.8323	4042.85	3156.75
1012.2869	2856.9781	4097.85	3211.55
1012.4042	2858.1233	4144.2	3257.25
1012.5216	2859.2679	4191.1	3303.8
1012.6389	2860.4118	4240.5	3354.05
1012.7561	2861.555	4285.15	3394.1
1012.8733	2862.6976	4314.4	3425.45
1012.9905	2863.8395	4330.25	3442
1013.1076	2864.9808	4354.05	3468.85
1013.2247	2866.1214	4374.05	3489.3
1013.3417	2867.2614	4378.8	3488.75
1013.4587	2868.4007	4399.35	3510.65
1013.5757	2869.5393	4396.95	3506.9
1013.6926	2870.6773	4418.8	3530.5
1013.8095	2871.8146	4416.8	3527.95
1013.9263	2872.9513	4414.05	3523.4
1014.0431	2874.0874	4401.8	3517.05
1014.1599	2875.2227	4392.2	3507.25
1014.2766	2876.3574	4372.75	3486.65
1014.3933	2877.4915	4346.65	3462.75
1014.51	2878.6249	4311.55	3423.2
1014.6266	2879.7577	4297.8	3408.4
1014.7431	2880.8898	4273.05	3374.55
1014.8596	2882.0212	4245.8	3358.5
1014.9761	2883.152	4255.1	3367.2
1015.0925	2884.2821	4228.8	3342
1015.2089	2885.4116	4216.6	3331.55
1015.3253	2886.5405	4220.85	3335.35
1015.4416	2887.6686	4212.2	3322.35
1015.5579	2888.7962	4220.3	3334.4
1015.6741	2889.923	4204.95	3318.6
1015.7903	2891.0493	4222.95	3338.7
1015.9065	2892.1748	4239.6	3351.85
1016.0226	2893.2997	4247.2	3359.8
1016.1387	2894.424	4249.9	3366.35
1016.2547	2895.5476	4275.35	3388.3
1016.3707	2896.6706	4284.4	3401.4
1016.4866	2897.7929	4306.05	3416.45
1016.6025	2898.9145	4341	3452.3
1016.7184	2900.0355	4374.8	3487.4
1016.8342	2901.1559	4407.05	3518.85
1016.95	2902.2756	4438.8	3551.25
1017.0658	2903.3946	4465.2	3580.65
1017.1815	2904.513	4485.4	3596.05
1017.2971	2905.6308	4521.15	3635.55
1017.4127	2906.7479	4530.95	3644.05
1017.5283	2907.8643	4565.75	3681.15
1017.6439	2908.9801	4567.95	3682.7
1017.7594	2910.0953	4566.1	3681.2
1017.8748	2911.2098	4579.65	3690.05
1017.9902	2912.3236	4558.6	3663.25
1018.1056	2913.4368	4552.6	3662
1018.2209	2914.5494	4519.15	3634.05
1018.3362	2915.6613	4493.9	3602.75
1018.4515	2916.7725	4474.2	3585.85
1018.5667	2917.8831	4451.5	3563.3
1018.6819	2918.9931	4419.45	3531.2
1018.797	2920.1024	4369	3482.7
1018.9121	2921.211	4352.3	3466.4
1019.0271	2922.319	4325.5	3441.45
1019.1421	2923.4264	4308.2	3422.95
1019.2571	2924.5331	4283.75	3397.95
1019.372	2925.6391	4272	3387.15
1019.4869	2926.7445	4268.15	3382.95
1019.6017	2927.8493	4259.6	3375.25
1019.7165	2928.9534	4242.95	3356.15
1019.8313	2930.0569	4244.5	3355.35
1019.946	2931.1597	4232.3	3345.55
1020.0606	2932.2619	4211.75	3325.9
1020.1753	2933.3634	4187.45	3302.05
1020.2899	2934.4643	4194.8	3304.1
1020.4044	2935.5645	4169	3278.6
1020.5189	2936.6641	4134.3	3246.05
1020.6334	2937.763	4076.9	3190.2
1020.7478	2938.8613	4039.2	3153
1020.8622	2939.959	3962.25	3071.3
1020.9765	2941.056	3893.7	3008.25
1021.0908	2942.1523	3800.75	2913.5
1021.2051	2943.248	3729.5	2841.95
1021.3193	2944.3431	3617.7	2731.45
1021.4334	2945.4375	3520.45	2636.55
1021.5476	2946.5313	3410	2526.75
1021.6617	2947.6244	3295.85	2410.05
1021.7757	2948.7169	3207.05	2319.4
1021.8897	2949.8087	3109.5	2224.05
1022.0037	2950.8999	3018.5	2133.8
1022.1176	2951.9904	2936.95	2050.25
1022.2315	2953.0803	2845.95	1959.3
1022.3453	2954.1696	2779.6	1894.45
1022.4591	2955.2582	2724.15	1839.25
1022.5728	2956.3462	2666.45	1782.25
1022.6865	2957.4335	2631.05	1744.6
1022.8002	2958.5202	2595	1708.55
1022.9138	2959.6062	2564.05	1680.4
1023.0274	2960.6916	2524.2	1637.7
1023.141	2961.7764	2512.85	1628.2
1023.2545	2962.8605	2489.3	1604.5
1023.3679	2963.9439	2485.95	1602.4
1023.4813	2965.0267	2472.15	1586.3
1023.5947	2966.1089	2483.35	1575.25
1023.708	2967.1905	2449.75	1562.9
1023.8213	2968.2714	2442.55	1559.25
1023.9346	2969.3516	2443.25	1559.05
1024.0478	2970.4312	2445.75	1554.6
1024.1609	2971.5102	2447.6	1561.95
1024.274	2972.5885	2436.9	1555.4
1024.3871	2973.6662	2434	1543.05
1024.5002	2974.7432	2428.3	1544.5
1024.6132	2975.8196	2413.85	1529.3
1024.7261	2976.8954	2410.15	1525.15
1024.839	2977.9705	2401.95	1515.55
1024.9519	2979.045	2384.7	1500.75
1025.0647	2980.1188	2357.4	1472.45
1025.1775	2981.192	2335.4	1452.9
1025.2902	2982.2645	2323.45	1438
1025.4029	2983.3364	2286.85	1402.1
1025.5156	2984.4077	2261.7	1377.65
1025.6282	2985.4783	2238	1347.75
1025.7407	2986.5483	2200.4	1318.3
1025.8532	2987.6177	2161.9	1277.45
1025.9657	2988.6864	2128	1244.45
1026.0782	2989.7545	2091.8	1204.65
1026.1906	2990.8219	2052.15	1167.95
1026.3029	2991.8887	2013.45	1125.6
1026.4152	2992.9548	1979.8	1093.45
1026.5275	2994.0204	1947.5	1062.65
1026.6397	2995.0852	1916.3	1033
1026.7519	2996.1495	1902.65	1015.25
1026.864	2997.2131	1874.1	988.35
1026.9761	2998.276	1848.7	963.65
1027.0882	2999.3383	1834.45	950.4
1027.2002	3000.4	1799.2	914.05
1027.3122	3001.4611	1790.55	905.95
1027.4241	3002.5215	1772.8	888.25
1027.536	3003.5812	1749.15	866.2
1027.6478	3004.6404	1752.3	866.7
1027.7596	3005.6989	1738.5	850.85
1027.8714	3006.7567	1725.6	838.55
1027.9831	3007.8139	1732.8	827.9
1028.0947	3008.8705	1702.4	818.15
1028.2064	3009.9264	1713.35	813.6
1028.3179	3010.9818	1697	814.4
1028.4295	3012.0364	1699.55	813.4
1028.541	3013.0905	1686.6	803.15
1028.6524	3014.1439	1685.05	798.9
1028.7638	3015.1966	1677.1	794.1
1028.8752	3016.2487	1677.7	791.9
1028.9865	3017.3002	1687.45	798
1029.0978	3018.3511	1669.15	784.9
1029.209	3019.4013	1669.05	784.25
1029.3202	3020.4509	1660.5	777.25
1029.4314	3021.4998	1666.8	784
1029.5425	3022.5481	1665.45	781.7
1029.6535	3023.5958	1665.45	782.1
1029.7645	3024.6428	1676.45	792.45
1029.8755	3025.6892	1668.85	783.45
1029.9864	3026.735	1669.55	783
1030.0973	3027.7802	1671.25	784.35
1030.2082	3028.8247	1673.5	792.15
1030.319	3029.8685	1670.75	783.75
1030.4297	3030.9118	1683.95	800.5
1030.5404	3031.9544	1676.85	794.1
1030.6511	3032.9963	1684.2	798.95
1030.7617	3034.0376	1689.6	806.55
1030.8723	3035.0783	1687.85	799.95
1030.9829	3036.1184	1685.55	801.15
1031.0934	3037.1578	1693.75	811.85
1031.2038	3038.1966	1690.9	804.8
1031.3142	3039.2348	1690.15	806.7
1031.4246	3040.2723	1702.3	811.3
1031.5349	3041.3092	1691.8	807
1031.6452	3042.3455	1687.9	803.9
1031.7554	3043.3811	1682.6	797.35
1031.8656	3044.4161	1673.05	790.8
1031.9758	3045.4505	1667.25	784.55
1032.0859	3046.4842	1663.1	777.1
1032.1959	3047.5173	1655.8	773.75
1032.3059	3048.5498	1644.6	761.05
1032.4159	3049.5816	1634.7	752.05
1032.5258	3050.6128	1635.5	750.35
1032.6357	3051.6434	1631.5	746.75
1032.7455	3052.6734	1615.5	729.1
1032.8553	3053.7027	1617.45	732.8
1032.9651	3054.7314	1601.75	718.95
1033.0748	3055.7594	1599.1	715.95
1033.1845	3056.7868	1583	696.75
1033.2941	3057.8136	1587.65	704.05
1033.4037	3058.8398	1577.7	694.8
1033.5132	3059.8653	1568.45	684.35
1033.6227	3060.8902	1556.85	673.05
1033.7321	3061.9145	1559.6	677.25
1033.8415	3062.9381	1555.9	672.7
1033.9509	3063.9612	1563.25	663.95
1034.0602	3064.9835	1539.2	653.35
1034.1694	3066.0053	1531.35	646.1
1034.2787	3067.0264	1514.5	631.8
1034.3878	3068.0469	1516.8	634.1
1034.497	3069.0668	1504.85	618.5
1034.6061	3070.086	1491.4	608.8
1034.7151	3071.1046	1483.05	596.65
1034.8241	3072.1226	1473.6	588
1034.9331	3073.1399	1464.25	582.05
1035.042	3074.1567	1445.55	562.35
1035.1508	3075.1727	1440.75	555
1035.2597	3076.1882	1430.55	546.6
1035.3684	3077.203	1419.8	538.05
1035.4772	3078.2173	1407.5	522.7
1035.5859	3079.2308	1406.55	520.05
1035.6945	3080.2438	1395.15	508.65
1035.8031	3081.2561	1383.35	500.95
1035.9117	3082.2678	1378	495.25
1036.0202	3083.2789	1366.7	483.7
1036.1286	3084.2893	1366.5	484.6
1036.2371	3085.2991	1352.1	469.35
1036.3454	3086.3083	1356.4	469
1036.4538	3087.3169	1341.3	454.2
1036.562	3088.3248	1341.5	456.15
1036.6703	3089.3321	1338.1	452.75
1036.7785	3090.3388	1324.1	442.1
1036.8866	3091.3449	1322.55	439.3
1036.9948	3092.3503	1322.05	438.9
1037.1028	3093.3551	1308.35	426.25
1037.2108	3094.3593	1308.35	427.65
1037.3188	3095.3629	1296.75	414.7
1037.4267	3096.3658	1296.35	411
1037.5346	3097.3681	1290.9	407.95
1037.6425	3098.3698	1292.3	407.15
1037.7503	3099.3708	1293.6	402.2
1037.858	3100.3713	1282.9	399.65
1037.9657	3101.3711	1276.05	391.9
1038.0734	3102.3702	1410	391.35
1038.181	3103.3688	1278.6	393.45
1038.2886	3104.3667	1267.85	385.75
1038.3961	3105.364	1267.05	385.6
1038.5036	3106.3607	1267.6	380.85
1038.611	3107.3568	1264.35	379.85
1038.7184	3108.3522	1253.45	373.3
1038.8257	3109.347	1258.75	376.55
1038.933	3110.3412	1257.25	371.5
1039.0403	3111.3348	1242.55	357.05
1039.1475	3112.3277	1243.85	360.25
1039.2547	3113.32	1237.65	356.2
1039.3618	3114.3117	1242.4	357.9
1039.4689	3115.3028	1238.25	354.65
1039.5759	3116.2932	1236.9	352.95
1039.6829	3117.2831	1239.85	351.7
1039.7898	3118.2723	1229.9	345.3
1039.8967	3119.2608	1226.25	342.9
1040.0035	3120.2488	1233.65	349.7
1040.1103	3121.2361	1222.75	339.25
1040.2171	3122.2229	1222.45	338.25
1040.3238	3123.209	1224.55	339.8
1040.4305	3124.1944	1219.75	335.95
1040.5371	3125.1793	1222.05	337.25
1040.6437	3126.1635	1216.15	334
1040.7502	3127.1471	1213.65	329.6
1040.8567	3128.1301	1214.2	331.4
1040.9631	3129.1125	1210.5	327.4
1041.0695	3130.0942	1210.7	326.75
1041.1759	3131.0753	1218.75	329
1041.2822	3132.0558	1210.45	324.65
1041.3884	3133.0357	1199.2	315.45
1041.4946	3134.015	1199.15	315.4
1041.6008	3134.9936	1199.85	313.65
1041.7069	3135.9716	1217.9	314.75
1041.813	3136.949	1194.45	309.55
1041.919	3137.9258	1210.65	309.65
1042.025	3138.902	1192.8	304.05
1042.1309	3139.8775	1190.1	306.95
1042.2368	3140.8524	1186.2	303.4
1042.3427	3141.8267	1188.85	306
1042.4485	3142.8004	1180.85	296.3
1042.5542	3143.7735	1187.55	298.8
1042.6599	3144.7459	1184.85	300.3
1042.7656	3145.7178	1183.25	299.1
1042.8712	3146.689	1172.5	291.4
1042.9768	3147.6596	1173.5	289.45
1043.0823	3148.6295	1175.35	290.8
1043.1878	3149.5989	1170.2	287
1043.2932	3150.5676	1169.5	288.9
1043.3986	3151.5357	1165.95	283.65
1043.5039	3152.5032	1162.05	279.25
1043.6092	3153.4701	1160.25	277.6
1043.7145	3154.4364	1162.7	277.8
1043.8197	3155.402	1156.7	274
1043.9248	3156.367	1157.1	273.5
1044.03	3157.3315	1191.75	274.25
1044.135	3158.2952	1154.55	272.4
1044.24	3159.2584	1149.45	267.2
1044.345	3160.221	1153.45	270.25
1044.4499	3161.1829	1147.25	265.05
1044.5548	3162.1442	1144.55	262.45
1044.6596	3163.105	1140.95	257.75
1044.7644	3164.065	1137.85	254.85
1044.8692	3165.0245	1146.95	261.7
1044.9739	3165.9834	1135.1	255.65
1045.0785	3166.9416	1140.5	257.4
1045.1831	3167.8993	1143.15	259.05
1045.2877	3168.8563	1134.75	250.7
1045.3922	3169.8127	1133.5	250.35
1045.4966	3170.7684	1131.8	249.6
1045.6011	3171.7236	1129.4	243.45
1045.7054	3172.6782	1132.4	250.1
1045.8098	3173.6321	1126.75	243
1045.914	3174.5854	1129.55	245.8
1046.0183	3175.5381	1121.45	237.65
1046.1224	3176.4902	1130.8	250.55
1046.2266	3177.4417	1127.55	246.65
1046.3307	3178.3926	1117.05	234.65
1046.4347	3179.3428	1122.3	239.55
1046.5387	3180.2924	1116.35	234.45
1046.6427	3181.2415	1115.9	232.85
1046.7466	3182.1899	1114.6	229.35
1046.8504	3183.1377	1116.9	235
1046.9542	3184.0848	1119.3	233.9
1047.058	3185.0314	1111.9	227.6
1047.1617	3185.9773	1115.3	230.2
1047.2654	3186.9227	1112.15	227.4
1047.369	3187.8674	1110.6	226.3
1047.4726	3188.8115	1112.7	227.8
1047.5761	3189.755	1102.8	221.05
1047.6796	3190.6979	1102.85	219.8
1047.783	3191.6402	1100.75	217.7
1047.8864	3192.5818	1100.85	217.8
1047.9898	3193.5229	1106.9	217.75
1048.0931	3194.4633	1099.4	217.05
1048.1963	3195.4031	1100.6	217.1
1048.2995	3196.3423	1100.35	218.15
1048.4027	3197.2809	1098.35	214.75
1048.5058	3198.2189	1092.7	209.1
1048.6089	3199.1563	1101.15	212.85
1048.7119	3200.0931	1095.7	214.9
1048.8148	3201.0292	1096.6	215.35
1048.9178	3201.9648	1095.55	213.3
1049.0206	3202.8997	1092.35	206.45
1049.1235	3203.834	1086.15	204.35
1049.2262	3204.7677	1084.25	203.05
1049.329	3205.7008	1087.65	204.25
1049.4317	3206.6333	1083.1	201.25
1049.5343	3207.5652	1081.5	198.5
1049.6369	3208.4964	1080.7	197.2
1049.7394	3209.4271	1081.1	197.6
1049.8419	3210.3571	1081.2	199.45
1049.9444	3211.2865	1080.45	197.75
1050.0468	3212.2154	1084.2	203.35
1050.1491	3213.1436	1081.95	197.15
1050.2514	3214.0712	1084.2	193.3
1050.3537	3214.9982	1074.85	193.55
1050.4559	3215.9246	1072.7	188.6
1050.5581	3216.8503	1075.95	195.85
1050.6602	3217.7755	1075.1	195.15
1050.7623	3218.7001	1070.15	188.9
1050.8643	3219.624	1073.95	191.15
1050.9663	3220.5473	1067.8	185.55
1051.0682	3221.4701	1069.45	185.5
1051.1701	3222.3922	1072.3	189.1
1051.2719	3223.3137	1064.45	184.45
1051.3737	3224.2346	1068.35	185.45
1051.4754	3225.1549	1064.2	184.3
1051.5771	3226.0746	1064.65	184.05
1051.6788	3226.9937	1064.95	179.35
1051.7804	3227.9121	1058.4	177
1051.8819	3228.83	1062.7	181.6
1051.9834	3229.7473	1059.65	175.6
1052.0849	3230.6639	1060	178.25
1052.1863	3231.5799	1059.15	175.5
1052.2876	3232.4954	1060	177.4
1052.3889	3233.4102	1054.25	170.95
1052.4902	3234.3244	1059	176.1
1052.5914	3235.238	1053.5	172.3
1052.6926	3236.151	1080.5	174.8
1052.7937	3237.0634	1053.9	174.95
1052.8948	3237.9752	1051.55	171
1052.9958	3238.8864	1054.2	172.1
1053.0968	3239.797	1050.4	168.95
1053.1977	3240.7069	1049.45	165.75
1053.2986	3241.6163	1049.5	165.95
1053.3994	3242.5251	1046.25	165.75
1053.5002	3243.4332	1049.7	168.9
1053.6009	3244.3408	1045.3	161.7
1053.7016	3245.2477	1038.95	158.15
1053.8022	3246.154	1045.85	163.7
1053.9028	3247.0598	1041.5	157.85
1054.0034	3247.9649	1040.7	159.6
1054.1039	3248.8694	1040	157.9
1054.2043	3249.7733	1035.95	154.55
1054.3047	3250.6766	1037.3	155.85
1054.4051	3251.5793	1035.75	154.3
1054.5054	3252.4814	1036.4	154.65
1054.6056	3253.3829	1034.65	152.6
1054.7058	3254.2838	1033.6	153.05
1054.806	3255.1841	1028.95	146.85
1054.9061	3256.0838	1032.8	151.4
1055.0061	3256.9829	1031.75	151.9
1055.1062	3257.8814	1030.95	145.95
1055.2061	3258.7792	1033.45	152.35
1055.306	3259.6765	1024.75	143.25
1055.4059	3260.5731	1023.5	142.4
1055.5057	3261.4692	1022.15	140.95
1055.6055	3262.3647	1018.7	137.5
1055.7052	3263.2595	1018.7	135
1055.8049	3264.1538	1015.35	134.65
1055.9045	3265.0474	1019.35	138.05
1056.0041	3265.9404	1010.3	128.9
1056.1036	3266.8329	1011.25	129.7
1056.2031	3267.7247	1016.75	126.3
1056.3025	3268.616	1004.8	124.25
1056.4019	3269.5066	1000.05	118.4
1056.5013	3270.3966	1002.05	119.95
1056.6005	3271.286	994.25	114.25
