Software Version:	3.9.2.0
Unit SN:	10000200
Spectrometer SN:	6960
Date:	3/26/2024 1:09:17 PM
Data Line Index:	25
Spectral Points:	2048
Integration time (ms):	125
Averages:	20
Delay (ms):	30000
Sequence Number:	1
Processing:	dark subtract
Laser Power (mW):	300
Laser Current (mA):	818
Laser Diode Temp (C):	25
Laser Case Temp (C):	26.1
System Temp (C):	26.1
Spectrometer Temp (C):	23.9
CCD Temp (C):	0.007
Secondary Temp (C):	20
Heatsink Temp (C):	21.704
CCDPCB Temp (C):	36.107
SecondaryPCB Temp (C):	31.338

Wavelength	RamanShift	Raw Counts	Dark Subtracted
787.061	30.1047	425.3	15.1
787.2016	32.3739	422.45	12.4
787.3422	34.6426	424.6	13.3
787.4828	36.9109	429.05	14.4
787.6235	39.1787	434	17
787.7642	41.4461	438.9	17.3
787.9049	43.7131	442.8	18.1
788.0456	45.9796	448.05	19.7
788.1863	48.2456	453.15	22.85
788.3271	50.5112	456.65	20.95
788.4679	52.7764	461	23.35
788.6087	55.0411	465.7	23.45
788.7496	57.3054	471.95	26.35
788.8904	59.5692	475.25	27.35
789.0313	61.8326	482.85	29.9
789.1722	64.0955	487.25	32.25
789.3132	66.3579	499.95	39.8
789.4541	68.6199	504.85	41.55
789.5951	70.8815	517.85	53.5
789.7361	73.1426	537.8	68.1
789.8771	75.4032	588.7	114.7
790.0181	77.6634	696.5	216.75
790.1592	79.9231	968.45	485.9
790.3003	82.1824	1532.7	1044.65
790.4414	84.4412	2483.7	1990.6
790.5825	86.6995	3778.6	3275.7
790.7237	88.9574	5091.55	4582.7
790.8648	91.2148	6028.25	5516.45
791.006	93.4717	6522.1	6005.85
791.1472	95.7282	6726.85	6207.05
791.2885	97.9842	6787.45	6263.55
791.4297	100.2398	6791.1	6265.4
791.571	102.4949	6779.1	6251.5
791.7123	104.7495	6740.8	6206.3
791.8536	107.0036	6723.45	6188.4
791.9949	109.2573	6668.3	6139
792.1363	111.5105	6621.75	6090.15
792.2777	113.7632	6556.9	6020.3
792.4191	116.0154	6501.65	5953.85
792.5605	118.2672	6462.25	5922.7
792.7019	120.5185	6376.5	5834.8
792.8434	122.7693	6344.15	5800.95
792.9849	125.0197	6281.1	5733
793.1264	127.2696	6217.25	5666.55
793.2679	129.519	6186.6	5633
793.4094	131.7679	6181.4	5627
793.551	134.0163	6165.35	5605.6
793.6926	136.2642	6165.75	5602.55
793.8342	138.5117	6151.5	5577.1
793.9758	140.7587	6131.4	5563.75
794.1175	143.0052	6115.75	5542.65
794.2591	145.2512	6058.2	5489.1
794.4008	147.4967	6019.2	5447.05
794.5425	149.7417	5988.8	5414.95
794.6842	151.9863	5964.2	5385.15
794.826	154.2304	5931.25	5348.6
794.9677	156.4739	5908.6	5321.55
795.1095	158.717	5903.7	5315.2
795.2513	160.9596	5922.1	5332.45
795.3931	163.2017	5920	5326.05
795.535	165.4433	5934.4	5339.45
795.6768	167.6844	5929.2	5331.1
795.8187	169.925	5904.85	5303.4
795.9606	172.1651	5845.6	5240.65
796.1025	174.4047	5815.85	5205.45
796.2445	176.6439	5783.65	5174
796.3864	178.8825	5743.75	5129.65
796.5284	181.1206	5737.1	5119.8
796.6704	183.3582	5728.9	5109.5
796.8124	185.5954	5710.9	5090
796.9544	187.832	5698.15	5074.15
797.0965	190.0681	5725.5	5099.6
797.2386	192.3037	5715.4	5084.75
797.3806	194.5388	5713.3	5080.15
797.5228	196.7734	5721.55	5085.35
797.6649	199.0075	5736.1	5096.15
797.807	201.2411	5766.5	5124.8
797.9492	203.4742	5778	5135.4
798.0914	205.7068	5788.35	5144.7
798.2336	207.9389	5792.45	5147.05
798.3758	210.1704	5800.35	5153.15
798.518	212.4015	5794.7	5144.3
798.6603	214.632	5799.5	5151.2
798.8025	216.862	5786	5144.2
798.9448	219.0915	5770.8	5136.7
799.0871	221.3205	5793.55	5158.6
799.2294	223.549	5798.35	5168.7
799.3718	225.777	5792.65	5164.75
799.5141	228.0044	5767.45	5134.5
799.6565	230.2314	5770.65	5138.95
799.7989	232.4578	5760.15	5123.9
799.9413	234.6837	5747.8	5106.7
800.0837	236.909	5733.25	5090.15
800.2262	239.1339	5737.4	5071.7
800.3687	241.3582	5728	5076.15
800.5111	243.582	5730.6	5047.15
800.6536	245.8053	5733.2	5062.2
800.7961	248.0281	5697	5030.75
800.9387	250.2503	5716.45	5041
801.0812	252.472	5729.15	5052.5
801.2238	254.6932	5721.9	5042.75
801.3664	256.9139	5701.2	5023.1
801.509	259.134	5712	5030.6
801.6516	261.3536	5719.35	5039.45
801.7942	263.5727	5755.6	5072.8
801.9369	265.7912	5758.3	5075.05
802.0795	268.0092	5785.35	5101.3
802.2222	270.2267	5820.1	5136.55
802.3649	272.4436	5829.5	5143.35
802.5076	274.6601	5875.85	5179.1
802.6504	276.8759	5879.4	5191.55
802.7931	279.0913	5898.9	5206.7
802.9359	281.3061	5901.1	5207.8
803.0787	283.5204	5925.6	5226.55
803.2215	285.7341	5938.9	5238.2
803.3643	287.9473	5951.4	5240.05
803.5071	290.16	5962.5	5257.7
803.6499	292.3721	5920.25	5221.4
803.7928	294.5837	5878.55	5176.3
803.9357	296.7947	5837.85	5135.55
804.0786	299.0052	5806.2	5105.35
804.2215	301.2152	5785.45	5080.2
804.3644	303.4246	5761.65	5059.55
804.5074	305.6334	5745.6	5041.1
804.6503	307.8418	5751.55	5044.95
804.7933	310.0495	5725.9	5020.9
804.9363	312.2568	5708.3	5001.1
805.0793	314.4635	5647.35	4939.7
805.2223	316.6696	5612.85	4901.55
805.3653	318.8752	5577.2	4857.6
805.5084	321.0802	5534.9	4820.7
805.6514	323.2847	5517.1	4804.15
805.7945	325.4887	5510.3	4795.95
805.9376	327.692	5502.6	4786.05
806.0807	329.8949	5552.55	4834.85
806.2238	332.0972	5567.7	4847.8
806.367	334.2989	5594.45	4871.95
806.5101	336.5001	5601.25	4878.9
806.6533	338.7007	5555.25	4830.65
806.7965	340.9008	5540.8	4817.6
806.9397	343.1003	5491.65	4766.15
807.0829	345.2992	5441	4714.5
807.2261	347.4976	5411.9	4682.45
807.3693	349.6955	5388.45	4655.15
807.5126	351.8927	5380.55	4646.8
807.6559	354.0895	5360.25	4616.3
807.7991	356.2856	5343.65	4606.75
807.9424	358.4812	5326	4590.05
808.0857	360.6763	5345.45	4609.15
808.2291	362.8707	5321.35	4583.8
808.3724	365.0646	5317.7	4578.95
808.5158	367.258	5302.4	4560.65
808.6591	369.4508	5311.05	4565.6
808.8025	371.643	5315	4570.45
808.9459	373.8346	5336.15	4585.65
809.0893	376.0257	5364.2	4610.6
809.2327	378.2162	5400.7	4647.4
809.3762	380.4062	5402.7	4646.7
809.5196	382.5956	5372.2	4616.35
809.6631	384.7844	5320.45	4564.9
809.8066	386.9726	5281.1	4524.25
809.9501	389.1603	5256.55	4501.55
810.0936	391.3474	5241	4453.85
810.2371	393.5339	5205.95	4449.8
810.3806	395.7199	5200.75	4448.3
810.5241	397.9052	5211.85	4460.15
810.6677	400.09	5222.05	4473
810.8113	402.2743	5253.8	4503.35
810.9548	404.4579	5280.75	4529.05
811.0984	406.641	5308.2	4557.25
811.2421	408.8235	5354.9	4602.6
811.3857	411.0054	5387	4634.7
811.5293	413.1868	5488.3	4733.3
811.673	415.3675	5599.9	4841.4
811.8166	417.5477	5652.55	4892.65
811.9603	419.7273	5546.2	4785.2
812.104	421.9064	5410.95	4641
812.2477	424.0848	5316.95	4550.05
812.3914	426.2627	5231.25	4463.15
812.5351	428.4399	5212.8	4444.55
812.6788	430.6166	5175.2	4403.25
812.8226	432.7928	5119.7	4346.6
812.9663	434.9683	5075.55	4302.25
813.1101	437.1432	5023.75	4247.35
813.2539	439.3176	5016.9	4241.1
813.3977	441.4914	5002.9	4224.45
813.5415	443.6645	4982.55	4202.25
813.6853	445.8371	4978.45	4200.1
813.8291	448.0091	4981.95	4204.9
813.973	450.1806	4959	4178.5
814.1168	452.3514	4930.75	4148.2
814.2607	454.5216	4932.1	4143.55
814.4046	456.6913	4915.65	4131.05
814.5485	458.8603	4920.25	4138.2
814.6924	461.0288	4930.75	4149.45
814.8363	463.1967	4905.4	4123.05
814.9802	465.3639	4923.4	4140.2
815.1241	467.5306	4906.1	4123.3
815.2681	469.6967	4899.95	4115.7
815.412	471.8622	4861.65	4076.8
815.556	474.0271	4870.9	4087.35
815.7	476.1914	4879.75	4091.9
815.844	478.3551	4856.6	4070.4
815.988	480.5182	4871.2	4080.15
816.132	482.6807	4872.85	4084.25
816.276	484.8426	4882.15	4093.4
816.4201	487.0039	4917.9	4127.6
816.5641	489.1647	4958.95	4167.1
816.7082	491.3248	4995.25	4205.3
816.8522	493.4843	4987.5	4195.5
816.9963	495.6432	4974.85	4184.6
817.1404	497.8015	4949.1	4153
817.2845	499.9592	4925.45	4133.35
817.4286	502.1163	4897.2	4104.55
817.5727	504.2728	4836.2	4039.15
817.7168	506.4287	4835.4	4040.75
817.861	508.5839	4826.35	4031.5
818.0051	510.7386	4801.85	4008.45
818.1493	512.8927	4819.1	4014.85
818.2935	515.0461	4832.8	4035.1
818.4377	517.199	4824.6	4026.15
818.5818	519.3512	4862.1	4063.7
818.726	521.5029	4910.6	4103.3
818.8703	523.6539	4938.45	4136.8
819.0145	525.8043	4954.85	4154.15
819.1587	527.9541	4916.3	4112.15
819.303	530.1033	4859.45	4057.85
819.4472	532.2519	4830.2	4027.55
819.5915	534.3999	4812.15	4006.9
819.7357	536.5472	4798.3	3991.7
819.88	538.694	4790.4	3985.9
820.0243	540.8401	4804.75	3997.25
820.1686	542.9856	4825.65	4017.9
820.3129	545.1305	4834.95	4025.85
820.4572	547.2748	4847.1	4038.15
820.6016	549.4185	4843.25	4031.55
820.7459	551.5615	4845.25	4037
820.8902	553.704	4844.3	4035.3
821.0346	555.8458	4847.8	4039.3
821.1789	557.987	4879.9	4071.55
821.3233	560.1276	4898.55	4087.05
821.4677	562.2675	4946.3	4137.5
821.6121	564.4069	4986.05	4174.8
821.7565	566.5456	4987.1	4178.15
821.9009	568.6837	4994.6	4184.4
822.0453	570.8212	4940.5	4128.7
822.1897	572.958	4895.9	4081.4
822.3342	575.0942	4858.9	4046.2
822.4786	577.2299	4826.7	4015.3
822.6231	579.3648	4783.75	3972.75
822.7675	581.4992	4750.7	3940.2
822.912	583.6329	4752.7	3939.9
823.0565	585.766	4750.25	3936.55
823.201	587.8985	4777.6	3964.6
823.3454	590.0304	4813.35	3986.05
823.4899	592.1616	4826.95	4008.1
823.6345	594.2922	4817.8	3999.9
823.779	596.4222	4795.25	3977.75
823.9235	598.5515	4756.35	3938.25
824.068	600.6802	4704.35	3887.45
824.2126	602.8083	4660.8	3842.1
824.3571	604.9358	4647.5	3826.1
824.5017	607.0626	4637.7	3815.65
824.6462	609.1888	4644.2	3822.25
824.7908	611.3144	4664.55	3841.25
824.9354	613.4393	4666.75	3844.55
825.08	615.5636	4712.6	3889.6
825.2246	617.6873	4744.85	3925.05
825.3692	619.8103	4767.75	3942.1
825.5138	621.9327	4787.8	3965.6
825.6584	624.0544	4754	3931.4
825.803	626.1756	4709.8	3886.65
825.9477	628.2961	4680.85	3857.35
826.0923	630.4159	4623.45	3797.75
826.237	632.5351	4632.15	3806.9
826.3816	634.6537	4628.65	3802.3
826.5263	636.7716	4614.3	3787.05
826.6709	638.8889	4627.9	3800.2
826.8156	641.0056	4628.5	3801.55
826.9603	643.1216	4630.95	3802.5
827.105	645.237	4653.65	3821.8
827.2497	647.3518	4633.7	3803.8
827.3944	649.4659	4606.85	3778.9
827.5391	651.5793	4570.35	3739.9
827.6838	653.6922	4572.2	3744.3
827.8285	655.8043	4564.6	3737.45
827.9733	657.9159	4540.7	3709.8
828.118	660.0268	4531.5	3700.35
828.2627	662.137	4547	3715.7
828.4075	664.2466	4534.9	3701.85
828.5522	666.3556	4529.7	3696.95
828.697	668.4639	4506.2	3670.3
828.8418	670.5716	4505.5	3674
828.9865	672.6786	4508.75	3673.4
829.1313	674.785	4504.45	3667.45
829.2761	676.8907	4487.4	3652.45
829.4209	678.9958	4488.4	3655.05
829.5657	681.1002	4497.3	3663.2
829.7105	683.204	4486.4	3646.25
829.8553	685.3072	4472.1	3634.65
830.0001	687.4097	4457.9	3622.35
830.1449	689.5115	4488.65	3647.9
830.2898	691.6127	4472.95	3636.7
830.4346	693.7132	4461	3621.15
830.5794	695.8131	4481.5	3635.7
830.7243	697.9123	4448.8	3611.3
830.8691	700.0109	4446.75	3607.15
831.014	702.1089	4451.8	3614.15
831.1588	704.2061	4475.5	3635.7
831.3037	706.3028	4496.6	3656.85
831.4486	708.3987	4504.95	3665.35
831.5935	710.4941	4496.95	3658.3
831.7383	712.5887	4520.15	3679.1
831.8832	714.6827	4519.25	3676.9
832.0281	716.7761	4516.6	3674.6
832.173	718.8688	4509.05	3667.95
832.3179	720.9608	4501.9	3658.25
832.4628	723.0522	4510.8	3666.65
832.6077	725.1429	4507.8	3665.45
832.7527	727.233	4537.35	3695.1
832.8976	729.3224	4589.5	3746.85
833.0425	731.4112	4617.1	3771.55
833.1874	733.4993	4640.5	3796.15
833.3324	735.5867	4608.85	3762.15
833.4773	737.6735	4559.35	3712.75
833.6222	739.7596	4523.65	3676.6
833.7672	741.845	4486.45	3638.9
833.9122	743.9298	4472.6	3627.95
834.0571	746.014	4503.2	3658.1
834.2021	748.0974	4512.15	3665.3
834.347	750.1802	4514.1	3666.45
834.492	752.2624	4503.85	3657.3
834.637	754.3439	4470.15	3620.2
834.782	756.4247	4431.85	3576.05
834.9269	758.5048	4415.7	3568.95
835.0719	760.5843	4419.25	3569.5
835.2169	762.6631	4436.3	3587.95
835.3619	764.7413	4448.45	3600.65
835.5069	766.8188	4511.9	3662.1
835.6519	768.8956	4546.15	3695
835.7969	770.9718	4601.4	3753.8
835.9419	773.0473	4567.6	3720.4
836.0869	775.1221	4543.3	3693.6
836.232	777.1962	4512.2	3663.1
836.377	779.2697	4554.2	3701.7
836.522	781.3426	4627.95	3758.4
836.667	783.4147	4690.2	3835.95
836.8121	785.4862	4683.65	3833.75
836.9571	787.557	4615.4	3762.8
837.1021	789.6271	4529.1	3678
837.2472	791.6966	4432.45	3580.35
837.3922	793.7654	4342.9	3490.35
837.5373	795.8335	4291.75	3437.85
837.6823	797.901	4245.75	3393.85
837.8274	799.9678	4234.15	3376.55
837.9724	802.0339	4240.3	3387.5
838.1175	804.0993	4253.4	3389.65
838.2626	806.1641	4233.2	3377.45
838.4076	808.2282	4210.3	3356.15
838.5527	810.2916	4214.4	3357.45
838.6978	812.3544	4185.1	3333.75
838.8428	814.4164	4170.5	3318
838.9879	816.4778	4187.65	3331.4
839.133	818.5385	4168.05	3313.85
839.2781	820.5986	4171.55	3317.2
839.4232	822.658	4227.2	3370.3
839.5682	824.7166	4266.15	3412.3
839.7133	826.7747	4320.1	3465.4
839.8584	828.832	4376.2	3521.4
840.0035	830.8886	4423.25	3566.15
840.1486	832.9446	4421.45	3564
840.2937	834.9999	4413.3	3557.85
840.4388	837.0545	4370.65	3512.5
840.5839	839.1085	4298.95	3441.15
840.729	841.1618	4250.6	3390.3
840.8741	843.2143	4184.05	3328.35
841.0192	845.2662	4139.05	3282.35
841.1643	847.3175	4124.65	3265.9
841.3095	849.368	4112.95	3255.4
841.4546	851.4179	4111.65	3253.4
841.5997	853.467	4092.85	3235.6
841.7448	855.5155	4091	3232.65
841.8899	857.5633	4100.15	3243.05
842.0351	859.6105	4076.2	3219.3
842.1802	861.6569	4066	3204.4
842.3253	863.7027	4048.55	3190.35
842.4704	865.7478	4046.7	3187.45
842.6156	867.7922	4022.75	3163.3
842.7607	869.8359	4010.95	3153.05
842.9058	871.8789	4014.75	3153.8
843.0509	873.9212	4029.85	3137.7
843.1961	875.9629	3996.55	3137.5
843.3412	878.0039	4008.3	3146.15
843.4863	880.0441	4011.5	3151.45
843.6315	882.0837	4019.05	3157.9
843.7766	884.1226	4033.95	3171.75
843.9218	886.1609	4045.35	3186.1
844.0669	888.1984	4069.6	3208.85
844.212	890.2352	4124.4	3264.2
844.3572	892.2714	4118.95	3254.95
844.5023	894.3069	4106.75	3244.4
844.6475	896.3416	4052.75	3189.8
844.7926	898.3757	4021.55	3159.15
844.9377	900.4091	3992.3	3131.15
845.0829	902.4418	4001.15	3133.5
845.228	904.4739	4007.1	3142.1
845.3732	906.5052	4007.35	3144.55
845.5183	908.5358	4000.65	3137.9
845.6635	910.5658	3986.2	3122
845.8086	912.595	3956.2	3094.4
845.9538	914.6236	3919.3	3054.5
846.0989	916.6515	3895.4	3030.6
846.2441	918.6786	3862.95	2998.35
846.3892	920.7051	3843.2	2979.05
846.5344	922.7309	3861.1	2995.9
846.6795	924.756	3838.95	2976.15
846.8246	926.7804	3842.95	2976.5
846.9698	928.8041	3820.75	2953.6
847.1149	930.8272	3844.45	2977.85
847.2601	932.8495	3826.35	2958.85
847.4052	934.8711	3840.05	2972.4
847.5504	936.892	3830.35	2964.35
847.6955	938.9123	3843.9	2975.4
847.8407	940.9318	3861.25	2996.3
847.9858	942.9506	3861.35	2995.5
848.131	944.9688	3839.05	2972.15
848.2761	946.9862	3818.55	2952.15
848.4213	949.003	3780.05	2911.9
848.5664	951.019	3759.05	2892.75
848.7115	953.0344	3730	2864.35
848.8567	955.0491	3724.35	2857.45
849.0018	957.063	3723.8	2857
849.147	959.0763	3711.15	2838.1
849.2921	961.0888	3698.55	2828.75
849.4373	963.1007	3693.85	2827.8
849.5824	965.1119	3687.2	2819.35
849.7275	967.1223	3671.3	2804.8
849.8727	969.1321	3658.4	2790.4
850.0178	971.1412	3649.1	2781.8
850.1629	973.1495	3649.6	2781.5
850.3081	975.1572	3659.6	2774
850.4532	977.1641	3640.45	2774.4
850.5983	979.1704	3624.3	2754.55
850.7435	981.1759	3617.8	2745.9
850.8886	983.1808	3600.75	2730.05
851.0337	985.1849	3600.05	2721.05
851.1788	987.1884	3587.75	2717.4
851.324	989.1911	3595.5	2724
851.4691	991.1932	3592.4	2721.8
851.6142	993.1945	3578.8	2709.4
851.7593	995.1951	3567.05	2698
851.9045	997.1951	3547.3	2671.7
852.0496	999.1943	3527.25	2657.95
852.1947	1001.1928	3537.2	2666.6
852.3398	1003.1906	3515.75	2645.85
852.4849	1005.1877	3535.4	2666.65
852.63	1007.1841	3546.8	2673.9
852.7751	1009.1798	3543.65	2673.5
852.9202	1011.1748	3539.5	2670.15
853.0653	1013.1691	3499.1	2628.2
853.2104	1015.1627	3477.9	2603.65
853.3555	1017.1556	3438.3	2565.5
853.5006	1019.1477	3402.7	2530.8
853.6457	1021.1392	3395.05	2525.9
853.7908	1023.1299	3377.35	2505.9
853.9359	1025.12	3367.15	2496.25
854.081	1027.1093	3355	2487.75
854.2261	1029.0979	3370.65	2502.1
854.3712	1031.0859	3364.35	2494.65
854.5163	1033.0731	3364.1	2494.35
854.6613	1035.0596	3355.55	2486.6
854.8064	1037.0454	3355.45	2483.3
854.9515	1039.0304	3336.6	2463.7
855.0965	1041.0148	3305.4	2434.35
855.2416	1042.9985	3283.9	2409.75
855.3867	1044.9814	3281	2411.55
855.5317	1046.9636	3245.95	2372.65
855.6768	1048.9452	3247.05	2374.95
855.8219	1050.926	3256.15	2384.25
855.9669	1052.9061	3269.2	2396.8
856.112	1054.8855	3276.75	2404.4
856.257	1056.8642	3255.75	2382.6
856.4021	1058.8421	3257	2379.95
856.5471	1060.8194	3246.15	2372.7
856.6921	1062.7959	3229.85	2356.6
856.8372	1064.7717	3218.05	2345.2
856.9822	1066.7469	3208.5	2334.55
857.1272	1068.7213	3209.5	2333.55
857.2723	1070.695	3216.85	2343.25
857.4173	1072.6679	3215	2339.7
857.5623	1074.6402	3246.8	2373.25
857.7073	1076.6117	3242.95	2363.15
857.8523	1078.5826	3242	2367.05
857.9973	1080.5527	3201.05	2324.1
858.1423	1082.5221	3158.15	2284.1
858.2873	1084.4908	3128.65	2252
858.4323	1086.4587	3118.75	2243.2
858.5773	1088.426	3091.95	2216.55
858.7223	1090.3925	3077.6	2198.7
858.8673	1092.3584	3086.85	2215.1
859.0123	1094.3235	3101.3	2225.75
859.1573	1096.2879	3078.4	2201.45
859.3022	1098.2515	3103.15	2228.9
859.4472	1100.2145	3114.35	2240.6
859.5922	1102.1767	3123.9	2246.7
859.7371	1104.1382	3143.15	2267.9
859.8821	1106.099	3186.45	2309.8
860.027	1108.0591	3204.15	2329.9
860.172	1110.0185	3248.8	2372.65
860.3169	1111.9771	3260.75	2385.25
860.4619	1113.9351	3293.8	2419.3
860.6068	1115.8923	3325.2	2447.05
860.7517	1117.8488	3366.4	2489.4
860.8967	1119.8045	3327.45	2452.2
861.0416	1121.7596	3241	2362.5
861.1865	1123.7139	3151.65	2277.55
861.3314	1125.6675	3111.65	2235.6
861.4763	1127.6204	3100.75	2224.1
861.6212	1129.5726	3105.8	2227.25
861.7661	1131.524	3093.15	2216.15
861.911	1133.4748	3076.25	2198.65
862.0559	1135.4248	3036.55	2160.25
862.2008	1137.3741	2980.15	2103.2
862.3457	1139.3226	2954.95	2075.85
862.4905	1141.2705	2957.1	2080.2
862.6354	1143.2176	2933.65	2052.3
862.7803	1145.164	2933.85	2055.8
862.9251	1147.1097	2939.8	2062.3
863.07	1149.0546	2931.55	2052.65
863.2148	1150.9989	2906.5	2028.85
863.3597	1152.9424	2881.7	2003.65
863.5045	1154.8852	2866.45	1989.45
863.6493	1156.8272	2852.7	1976.8
863.7942	1158.7686	2857.1	1972.55
863.939	1160.7092	2841.95	1965.6
864.0838	1162.6491	2838.15	1958.3
864.2286	1164.5883	2847.3	1970.75
864.3734	1166.5267	2847.9	1968.3
864.5182	1168.4644	2855.9	1979.5
864.663	1170.4014	2882.75	1999
864.8078	1172.3377	2892.55	2015.05
864.9526	1174.2732	2929.55	2051.2
865.0974	1176.2081	2988.15	2110.7
865.2421	1178.1421	3070.45	2186.3
865.3869	1180.0755	3175.7	2298.55
865.5317	1182.0082	3215.3	2337.45
865.6764	1183.9401	3231.5	2351.45
865.8212	1185.8713	3157.35	2281.65
865.9659	1187.8017	3058.6	2179.6
866.1106	1189.7315	2973.9	2098.5
866.2554	1191.6605	2882.2	2004.9
866.4001	1193.5888	2842.35	1964.85
866.5448	1195.5163	2802.2	1924.1
866.6895	1197.4432	2779.15	1897.7
866.8342	1199.3693	2769.55	1890.95
866.9789	1201.2947	2739.35	1858.9
867.1236	1203.2193	2727.9	1848.45
867.2683	1205.1432	2730.4	1851.25
867.413	1207.0664	2724.95	1845.55
867.5576	1208.9889	2717.85	1834.45
867.7023	1210.9106	2697.85	1819.6
867.847	1212.8316	2691.55	1814.7
867.9916	1214.7519	2709.6	1821.4
868.1363	1216.6715	2698.95	1819.5
868.2809	1218.5903	2701.8	1822.95
868.4255	1220.5084	2710.95	1832.7
868.5701	1222.4257	2724.35	1842.2
868.7148	1224.3424	2716.25	1836.85
868.8594	1226.2583	2723.5	1837.25
869.004	1228.1735	2749.7	1867.8
869.1486	1230.0879	2758.45	1879.3
869.2932	1232.0016	2773.2	1892.9
869.4377	1233.9146	2807.1	1926.15
869.5823	1235.8269	2813.5	1934.5
869.7269	1237.7384	2818.45	1938.1
869.8715	1239.6492	2810.15	1932.1
870.016	1241.5592	2818.05	1936.25
870.1606	1243.4686	2842.6	1963.15
870.3051	1245.3772	2892.45	2013.3
870.4496	1247.285	2954	2072.75
870.5941	1249.1922	3004.65	2123.6
870.7387	1251.0986	3062	2182.65
870.8832	1253.0042	3107.85	2225.5
871.0277	1254.9092	3186.05	2306.4
871.1722	1256.8134	3242.95	2364.05
871.3167	1258.7169	3298.6	2416.4
871.4611	1260.6196	3342.3	2463.2
871.6056	1262.5216	3384.6	2502.55
871.7501	1264.4229	3373.25	2495.2
871.8945	1266.3234	3348.35	2466.65
872.039	1268.2232	3296.95	2414.25
872.1834	1270.1223	3255.9	2374.1
872.3278	1272.0207	3208.75	2329
872.4723	1273.9183	3183.9	2297.8
872.6167	1275.8151	3183.15	2302.5
872.7611	1277.7113	3200	2318.55
872.9055	1279.6067	3268.8	2388.9
873.0499	1281.5014	3357.15	2473.1
873.1943	1283.3953	3516.75	2634.1
873.3386	1285.2885	3654.6	2774.4
873.483	1287.181	3783.55	2901.7
873.6274	1289.0727	3843.35	2963.85
873.7717	1290.9637	3801.55	2920.25
873.9161	1292.854	3722.95	2840.7
874.0604	1294.7435	3615.55	2732.8
874.2047	1296.6323	3515.65	2633.35
874.349	1298.5204	3422.6	2534.25
874.4933	1300.4077	3334.2	2450.5
874.6376	1302.2943	3300.65	2418.55
874.7819	1304.1802	3263	2383.15
874.9262	1306.0653	3231.25	2347.5
875.0705	1307.9497	3210.15	2329.8
875.2147	1309.8333	3181.7	2301.65
875.359	1311.7162	3146.8	2266.25
875.5032	1313.5984	3131.5	2247.4
875.6475	1315.4798	3118.5	2233.65
875.7917	1317.3605	3116.5	2226.5
875.9359	1319.2405	3125.5	2241
876.0801	1321.1197	3119.85	2235.6
876.2243	1322.9982	3092.1	2204.25
876.3685	1324.876	3050.9	2167.8
876.5127	1326.753	2974.75	2091.65
876.6569	1328.6293	2906.65	2022.8
876.801	1330.5048	2832.75	1947.15
876.9452	1332.3796	2753.05	1869.9
877.0893	1334.2537	2718.1	1816.8
877.2335	1336.127	2661.6	1779.95
877.3776	1337.9996	2622.4	1739.4
877.5217	1339.8714	2604.85	1721.3
877.6658	1341.7426	2622.65	1697.2
877.8099	1343.6129	2581.25	1698.35
877.954	1345.4826	2557.75	1674.7
878.0981	1347.3515	2545.25	1658.9
878.2422	1349.2196	2526.5	1641.6
878.3862	1351.087	2519.7	1637.25
878.5303	1352.9537	2514.4	1630.45
878.6743	1354.8197	2511.45	1630.5
878.8184	1356.6849	2512.05	1628.2
878.9624	1358.5493	2517.6	1634.25
879.1064	1360.4131	2542.7	1661.15
879.2504	1362.276	2562.15	1679.65
879.3944	1364.1383	2584.35	1702.65
879.5384	1365.9998	2595.65	1706.35
879.6823	1367.8606	2595.15	1712.2
879.8263	1369.7206	2577.95	1695.1
879.9702	1371.5799	2572.5	1687.45
880.1142	1373.4384	2584.7	1701.8
880.2581	1375.2962	2543	1656.7
880.402	1377.1533	2499.3	1615.3
880.5459	1379.0096	2456.5	1571.6
880.6898	1380.8652	2433.55	1550.25
880.8337	1382.7201	2415.9	1533.4
880.9776	1384.5742	2387.35	1504.5
881.1215	1386.4275	2357.55	1473.05
881.2653	1388.2802	2349.8	1469.25
881.4092	1390.132	2320.45	1435.85
881.553	1391.9832	2321.95	1440
881.6968	1393.8336	2306.55	1422.85
881.8406	1395.6832	2294.2	1408.7
881.9844	1397.5322	2277.2	1392.1
882.1282	1399.3803	2282.15	1393.85
882.272	1401.2278	2274.9	1388.35
882.4158	1403.0745	2258.55	1373.3
882.5595	1404.9204	2243.5	1359.05
882.7033	1406.7656	2238.95	1354.1
882.847	1408.6101	2225.8	1342.2
882.9908	1410.4538	2222.3	1339.1
883.1345	1412.2968	2221.65	1337.65
883.2782	1414.139	2213.35	1333.05
883.4219	1415.9805	2226	1343.6
883.5656	1417.8213	2229.75	1325.1
883.7092	1419.6613	2229.25	1346.75
883.8529	1421.5006	2249.7	1364.2
883.9965	1423.3391	2267.4	1383.65
884.1402	1425.1769	2318.5	1433.05
884.2838	1427.0139	2359.65	1475
884.4274	1428.8502	2428.5	1543.2
884.571	1430.6858	2478.05	1593.5
884.7146	1432.5206	2496.4	1611.8
884.8582	1434.3547	2482.05	1597.7
885.0018	1436.188	2467	1582.65
885.1453	1438.0206	2452.4	1566.15
885.2889	1439.8524	2441.3	1555.75
885.4324	1441.6835	2444.1	1558.65
885.5759	1443.5139	2446	1558.75
885.7194	1445.3435	2438.05	1554.35
885.8629	1447.1724	2437.3	1554.4
886.0064	1449.0005	2439.05	1556.1
886.1499	1450.8279	2427.45	1541.05
886.2933	1452.6545	2424.3	1538
886.4368	1454.4804	2421.65	1538.9
886.5802	1456.3056	2411.2	1521.45
886.7237	1458.13	2392.45	1509.1
886.8671	1459.9536	2370.4	1485.75
887.0105	1461.7766	2342.75	1458.6
887.1539	1463.5987	2313.1	1426.9
887.2972	1465.4202	2284.15	1401
887.4406	1467.2409	2248.4	1365.6
887.584	1469.0608	2216.4	1332.65
887.7273	1470.88	2187.95	1302.55
887.8706	1472.6984	2171.9	1286.75
888.0139	1474.5161	2152.65	1265.95
888.1572	1476.3331	2140.1	1256
888.3005	1478.1493	2126.6	1241.2
888.4438	1479.9648	2126.95	1243
888.5871	1481.7795	2120.15	1236.7
888.7303	1483.5935	2112.55	1230.35
888.8736	1485.4067	2114.1	1229.65
889.0168	1487.2192	2122.4	1238.7
889.16	1489.031	2110.8	1222.95
889.3032	1490.842	2116.7	1232.65
889.4464	1492.6522	2102.85	1218.55
889.5896	1494.4618	2102.85	1219.15
889.7327	1496.2705	2101.1	1215.85
889.8759	1498.0785	2100.45	1215.7
890.019	1499.8858	2092.95	1209.4
890.1622	1501.6924	2083.5	1201.7
890.3053	1503.4981	2066	1179.45
890.4484	1505.3032	2061.7	1177.75
890.5914	1507.1075	2063.45	1177.6
890.7345	1508.911	2052.5	1168.8
890.8776	1510.7138	2041.9	1156
891.0206	1512.5159	2034.8	1148.8
891.1637	1514.3172	2035.45	1150.25
891.3067	1516.1178	2018.95	1134.95
891.4497	1517.9176	2010.75	1121.65
891.5927	1519.7166	1997.95	1116.2
891.7357	1521.515	1995.8	1102.45
891.8786	1523.3126	1995.65	1110.85
892.0216	1525.1094	2001.55	1115.2
892.1645	1526.9055	1982.4	1097.85
892.3074	1528.7008	1978.25	1093.6
892.4503	1530.4954	1964.55	1077.5
892.5932	1532.2893	1959.55	1076.55
892.7361	1534.0824	1962.3	1072.75
892.879	1535.8747	1953.85	1069.75
893.0218	1537.6663	1952.4	1067.2
893.1647	1539.4572	1940.8	1055.85
893.3075	1541.2473	1937.6	1052.45
893.4503	1543.0367	1935.65	1051.4
893.5931	1544.8253	1933.25	1043.3
893.7359	1546.6132	1933.95	1048.4
893.8787	1548.4003	1942.5	1049.05
894.0214	1550.1867	1948.4	1054
894.1642	1551.9723	1949.65	1058
894.3069	1553.7572	1953.75	1065.85
894.4496	1555.5414	1964.1	1078.4
894.5923	1557.3247	1978.55	1094.5
894.735	1559.1074	2008.95	1126.7
894.8777	1560.8893	2032.7	1149.25
895.0204	1562.6705	2048.05	1161.85
895.163	1564.4509	2084.05	1200.85
895.3056	1566.2305	2088.4	1205.9
895.4482	1568.0094	2092.65	1210.25
895.5908	1569.7876	2101.65	1216
895.7334	1571.565	2084	1199.5
895.876	1573.3417	2079.35	1195.65
896.0186	1575.1176	2088.45	1204.65
896.1611	1576.8928	2082.1	1196.45
896.3036	1578.6672	2103.9	1222.1
896.4461	1580.4409	2127.25	1244.3
896.5886	1582.2138	2147.35	1261.1
896.7311	1583.986	2176.1	1290.7
896.8736	1585.7575	2222.25	1337.35
897.0161	1587.5282	2242.8	1360.8
897.1585	1589.2981	2270.7	1386.5
897.3009	1591.0673	2278.85	1394.4
897.4433	1592.8358	2260.25	1376.2
897.5857	1594.6035	2278.15	1392.3
897.7281	1596.3704	2260.7	1375.65
897.8705	1598.1366	2257.95	1374.05
898.0128	1599.9021	2219.85	1335.9
898.1551	1601.6668	2200.55	1314.3
898.2975	1603.4308	2176.05	1288.8
898.4398	1605.194	2177.65	1286.55
898.5821	1606.9564	2187.45	1303.4
898.7243	1608.7182	2234	1345
898.8666	1610.4791	2287.65	1402.65
899.0088	1612.2394	2364.2	1481.45
899.1511	1613.9988	2451.65	1565.4
899.2933	1615.7576	2528.85	1646.1
899.4355	1617.5156	2582.35	1692.2
899.5776	1619.2728	2558.15	1672.95
899.7198	1621.0293	2489.75	1607.85
899.862	1622.785	2394.5	1508.35
900.0041	1624.54	2296.7	1412.75
900.1462	1626.2942	2188.9	1302.65
900.2883	1628.0477	2081.05	1193.3
900.4304	1629.8005	2014.1	1126.1
900.5725	1631.5525	1950.6	1066.15
900.7145	1633.3037	1916.75	1033.45
900.8566	1635.0542	1867.35	983.8
900.9986	1636.804	1833.3	950.85
901.1406	1638.553	1864.55	927.9
901.2826	1640.3013	1796	911.8
901.4245	1642.0488	1785.05	900.85
901.5665	1643.7955	1768	884.5
901.7085	1645.5416	1753.75	869.8
901.8504	1647.2868	1737.6	853.5
901.9923	1649.0313	1731.1	846.95
902.1342	1650.7751	1719.65	831.05
902.2761	1652.5181	1715.15	829.9
902.4179	1654.2604	1725.25	841.35
902.5598	1656.0019	1714.9	829.55
902.7016	1657.7427	1722.75	839.7
902.8434	1659.4828	1739	855.4
902.9852	1661.222	1753.05	867.15
903.127	1662.9606	1780.3	895.9
903.2687	1664.6984	1813.65	929.1
903.4105	1666.4354	1831.35	945.6
903.5522	1668.1717	1811.8	928.2
903.6939	1669.9072	1772.9	888.3
903.8356	1671.642	1736.65	850.55
903.9773	1673.3761	1696.9	812.75
904.119	1675.1094	1671.15	786.65
904.2606	1676.8419	1649.1	764.5
904.4022	1678.5737	1639.6	753.65
904.5439	1680.3048	1624.95	740.35
904.6855	1682.0351	1618	734.75
904.827	1683.7646	1609.85	722.05
904.9686	1685.4934	1604.65	721.35
905.1101	1687.2215	1590.2	703.45
905.2517	1688.9488	1582.55	696.05
905.3932	1690.6754	1583.9	699.45
905.5347	1692.4012	1580.75	697.05
905.6761	1694.1263	1581.45	699.05
905.8176	1695.8506	1578.8	691.7
905.9591	1697.5742	1565.95	681.55
906.1005	1699.297	1557.65	674.2
906.2419	1701.0191	1561.3	675.5
906.3833	1702.7404	1546.85	661.55
906.5246	1704.461	1553.6	668.75
906.666	1706.1808	1541.25	656.55
906.8073	1707.8999	1537.65	652.8
906.9487	1709.6182	1541.95	657.8
907.09	1711.3358	1538.75	654.55
907.2313	1713.0527	1535.2	652.1
907.3725	1714.7688	1529.7	641.4
907.5138	1716.4841	1534.85	648.85
907.655	1718.1987	1528.3	639.9
907.7962	1719.9126	1521.7	637.6
907.9374	1721.6257	1528.1	640.45
908.0786	1723.338	1518.9	634.05
908.2198	1725.0496	1516.05	631.05
908.3609	1726.7605	1510.5	624.6
908.502	1728.4706	1514.4	630.2
908.6431	1730.18	1508.75	622.6
908.7842	1731.8886	1502.05	618.4
908.9253	1733.5964	1517.25	627.45
909.0664	1735.3036	1509.25	621.45
909.2074	1737.0099	1501.05	616.2
909.3484	1738.7156	1498.4	613.95
909.4894	1740.4204	1505.9	618.85
909.6304	1742.1246	1500.15	612.65
909.7714	1743.8279	1501.5	618.05
909.9123	1745.5306	1492.45	606
910.0532	1747.2325	1490	606.55
910.1941	1748.9336	1492.4	607.8
910.335	1750.634	1489.4	602.95
910.4759	1752.3336	1485.35	602.55
910.6168	1754.0325	1489.45	606.7
910.7576	1755.7307	1486.65	601.4
910.8984	1757.4281	1489.3	604.7
911.0392	1759.1247	1484.05	590.35
911.18	1760.8206	1482.6	595.85
911.3208	1762.5158	1487.85	599.5
911.4615	1764.2102	1482.85	598.05
911.6022	1765.9039	1480.35	594.8
911.7429	1767.5968	1478.6	595.1
911.8836	1769.289	1474.9	589.1
912.0243	1770.9804	1475.95	588.75
912.1649	1772.6711	1474.15	587.65
912.3056	1774.361	1468	581.75
912.4462	1776.0502	1473.05	585.7
912.5868	1777.7386	1458	570.5
912.7274	1779.4263	1473.05	587.05
912.8679	1781.1132	1466.6	580.75
913.0084	1782.7994	1459.35	576.15
913.149	1784.4849	1450.2	567.2
913.2895	1786.1696	1458.1	565.85
913.4299	1787.8535	1463.65	579.05
913.5704	1789.5367	1458.9	575.05
913.7108	1791.2192	1452.35	567.2
913.8513	1792.9009	1479.7	567.95
913.9917	1794.5818	1446.85	559.75
914.132	1796.2621	1443	556.25
914.2724	1797.9415	1440.9	557.85
914.4128	1799.6202	1441.35	556.8
914.5531	1801.2982	1443.9	559.15
914.6934	1802.9755	1437.9	549.95
914.8337	1804.6519	1438.25	552.3
914.9739	1806.3277	1429.45	544.1
915.1142	1808.0027	1430.4	546.2
915.2544	1809.6769	1437.9	553.3
915.3946	1811.3504	1425.6	537.85
915.5348	1813.0231	1432.5	547.6
915.675	1814.6951	1429.05	545.3
915.8151	1816.3664	1428.15	541.3
915.9553	1818.0369	1426.65	542.5
916.0954	1819.7067	1421.05	534.5
916.2355	1821.3757	1431.6	544.75
916.3755	1823.044	1425.35	541.4
916.5156	1824.7115	1426.4	540.7
916.6556	1826.3783	1424	540.35
916.7956	1828.0443	1417.75	533.65
916.9356	1829.7096	1423.25	537.6
917.0756	1831.3741	1420.5	534.85
917.2155	1833.0379	1410.2	525.05
917.3555	1834.701	1411.3	523.85
917.4954	1836.3633	1409.75	523.7
917.6353	1838.0248	1406.85	519.8
917.7751	1839.6856	1403.05	516.6
917.915	1841.3457	1405.1	519.7
918.0548	1843.005	1404.4	520.4
918.1946	1844.6636	1398.7	512.75
918.3344	1846.3214	1405.7	522.1
918.4742	1847.9785	1409.25	525.75
918.6139	1849.6349	1398.6	512.9
918.7537	1851.2904	1408.55	514.95
918.8934	1852.9453	1398.35	515.4
919.0331	1854.5994	1397.35	511.15
919.1727	1856.2528	1406.25	516.8
919.3124	1857.9054	1390.55	505.85
919.452	1859.5572	1392.35	507.85
919.5916	1861.2083	1392.35	507.1
919.7312	1862.8587	1389.4	505.05
919.8708	1864.5084	1396.1	510.45
920.0103	1866.1572	1385.3	501.65
920.1498	1867.8054	1389.5	504.15
920.2893	1869.4528	1386.25	503.45
920.4288	1871.0994	1381.65	497.85
920.5683	1872.7453	1381.7	497.4
920.7077	1874.3905	1392.5	501.15
920.8471	1876.0349	1385.75	500.25
920.9865	1877.6786	1381.15	494.2
921.1259	1879.3215	1376.2	490.95
921.2653	1880.9637	1377.9	492
921.4046	1882.6051	1367.2	483.45
921.5439	1884.2458	1374.15	489.7
921.6832	1885.8858	1375.6	489.05
921.8225	1887.525	1377.75	490.65
921.9617	1889.1634	1367.25	482.7
922.101	1890.8011	1361	477
922.2402	1892.4381	1368.85	485.45
922.3794	1894.0743	1367.2	484.15
922.5185	1895.7098	1358.25	474
922.6577	1897.3446	1371.9	485.9
922.7968	1898.9786	1369.65	480.25
922.9359	1900.6118	1360.85	477.15
923.075	1902.2443	1360.45	474.25
923.214	1903.8761	1353.2	466.6
923.3531	1905.5071	1354.7	467.75
923.4921	1907.1374	1357.55	471.75
923.6311	1908.7669	1359.35	475.4
923.77	1910.3957	1353.05	467.5
923.909	1912.0237	1353.65	466.85
924.0479	1913.651	1349.7	465.15
924.1868	1915.2776	1343.4	459.95
924.3257	1916.9034	1346.1	464.1
924.4646	1918.5285	1344.15	459.85
924.6034	1920.1528	1343	457
924.7422	1921.7764	1341.7	459.3
924.881	1923.3992	1339.25	454.95
925.0198	1925.0213	1338.15	451.95
925.1586	1926.6427	1336.35	449.35
925.2973	1928.2633	1407.75	454.4
925.436	1929.8832	1336.5	450.3
925.5747	1931.5023	1331.2	445.3
925.7134	1933.1207	1328.25	443.2
925.852	1934.7383	1332.8	447.3
925.9906	1936.3552	1330.45	444
926.1292	1937.9714	1328	443
926.2678	1939.5868	1330.6	444.15
926.4064	1941.2015	1324.45	439.25
926.5449	1942.8154	1322.75	437.85
926.6834	1944.4286	1324.1	437.35
926.8219	1946.041	1340.15	433.05
926.9604	1947.6528	1319.8	429.1
927.0988	1949.2637	1317.45	432.5
927.2372	1950.8739	1318.5	433.15
927.3756	1952.4834	1316.8	433.4
927.514	1954.0921	1317.85	433
927.6523	1955.7001	1313.55	424.2
927.7907	1957.3074	1315.5	432.7
927.929	1958.9139	1306.05	422.95
928.0673	1960.5197	1304.95	418.1
928.2055	1962.1247	1305.45	421.7
928.3438	1963.729	1303.25	420.15
928.482	1965.3325	1325.05	419.8
928.6202	1966.9353	1303.9	421.3
928.7584	1968.5374	1303.45	417.6
928.8965	1970.1387	1301	418.35
929.0346	1971.7393	1301.4	416.4
929.1727	1973.3392	1292.9	408.45
929.3108	1974.9383	1291.9	407.8
929.4489	1976.5366	1295.75	411.3
929.5869	1978.1342	1298.1	412.9
929.7249	1979.7311	1291.7	406.5
929.8629	1981.3273	1291.9	406.5
930.0009	1982.9227	1297.25	411.25
930.1388	1984.5173	1289.75	404.95
930.2767	1986.1112	1289.7	406.95
930.4146	1987.7044	1278.5	394.75
930.5525	1989.2968	1286.75	400.8
930.6904	1990.8885	1295.55	407.45
930.8282	1992.4795	1288.7	402.15
930.966	1994.0697	1282.1	397.1
931.1038	1995.6592	1283.8	399.25
931.2415	1997.2479	1280.15	394.9
931.3793	1998.8359	1279.55	395.2
931.517	2000.4232	1272.6	387.65
931.6547	2002.0097	1276.45	394.2
931.7923	2003.5955	1274.15	387.1
931.93	2005.1805	1277	390
932.0676	2006.7648	1276.3	391.8
932.2052	2008.3484	1277.1	392.25
932.3427	2009.9312	1276.9	393.45
932.4803	2011.5133	1273.35	391.85
932.6178	2013.0946	1271.7	388.15
932.7553	2014.6752	1267.9	385.45
932.8928	2016.2551	1268.45	384.35
933.0302	2017.8342	1266.5	382.55
933.1676	2019.4126	1265.8	382.45
933.305	2020.9902	1270.9	386.4
933.4424	2022.5672	1263.4	378.8
933.5798	2024.1433	1272.85	381.15
933.7171	2025.7188	1257.5	373.35
933.8544	2027.2935	1265.25	381.25
933.9917	2028.8674	1260.95	379.1
934.129	2030.4406	1259	378.2
934.2662	2032.0131	1257.45	374.5
934.4034	2033.5849	1259.05	369.35
934.5406	2035.1559	1260	376.6
934.6778	2036.7261	1254.2	368.75
934.8149	2038.2957	1253.6	369.15
934.952	2039.8645	1259.55	374.5
935.0891	2041.4325	1260.35	374.8
935.2262	2042.9998	1254.25	372
935.3632	2044.5664	1258.8	372.85
935.5002	2046.1323	1247.05	364
935.6372	2047.6974	1256.05	372.95
935.7742	2049.2617	1257.75	373.6
935.9111	2050.8254	1257.9	369.45
936.048	2052.3883	1249.65	364.65
936.1849	2053.9504	1249.05	366.35
936.3218	2055.5118	1250.35	366.85
936.4586	2057.0725	1253	363
936.5955	2058.6325	1247.8	364.6
936.7323	2060.1917	1245.1	360.65
936.869	2061.7502	1246.8	359.35
937.0058	2063.3079	1244.3	361.35
937.1425	2064.8649	1249.75	363.45
937.2792	2066.4212	1242.65	358.8
937.4159	2067.9767	1244	361.45
937.5525	2069.5315	1237.65	355.1
937.6891	2071.0856	1243.15	360.7
937.8257	2072.6389	1242.3	355.3
937.9623	2074.1915	1242.65	359.25
938.0989	2075.7433	1242.65	357.6
938.2354	2077.2945	1233.4	350.4
938.3719	2078.8448	1238.45	356.85
938.5084	2080.3945	1235.2	351.2
938.6448	2081.9434	1231.7	347.9
938.7812	2083.4916	1229.2	344.25
938.9176	2085.039	1230.1	343.35
939.054	2086.5857	1237.8	353
939.1903	2088.1317	1234.55	350.45
939.3267	2089.677	1238.25	355.1
939.463	2091.2215	1232.25	347.75
939.5992	2092.7652	1233.5	347.25
939.7355	2094.3083	1218.7	333.25
939.8717	2095.8506	1227.9	342.95
940.0079	2097.3921	1231	349.05
940.1441	2098.933	1232.2	348.1
940.2802	2100.4731	1229.9	346.15
940.4163	2102.0124	1241.6	340.6
940.5524	2103.5511	1227.6	343.1
940.6885	2105.089	1226.1	341.1
940.8245	2106.6261	1228.85	345.25
940.9606	2108.1626	1225.3	339.15
941.0965	2109.6983	1253.65	342.55
941.2325	2111.2332	1228.6	342.5
941.3684	2112.7675	1229.65	343.95
941.5044	2114.301	1227.3	342.45
941.6403	2115.8337	1228.15	341.75
941.7761	2117.3657	1225.6	343.6
941.912	2118.897	1222.95	337.05
942.0478	2120.4276	1230	338.75
942.1835	2121.9575	1220.75	335.6
942.3193	2123.4866	1238.1	338.55
942.455	2125.0149	1219	333.7
942.5907	2126.5426	1220.85	337.45
942.7264	2128.0695	1219.6	331.1
942.8621	2129.5956	1218.9	336.3
942.9977	2131.1211	1221.75	334.95
943.1333	2132.6458	1213.3	329.8
943.2689	2134.1698	1220.25	336.15
943.4044	2135.693	1217.75	331.05
943.54	2137.2155	1211.95	328.4
943.6755	2138.7373	1215.8	330.9
943.8109	2140.2584	1203.1	318.85
943.9464	2141.7787	1218.25	331.5
944.0818	2143.2983	1210.35	326.6
944.2172	2144.8171	1204.8	323.65
944.3526	2146.3353	1218.4	332.25
944.4879	2147.8527	1210.85	328
944.6232	2149.3693	1208	325.55
944.7585	2150.8853	1208.75	323.25
944.8938	2152.4005	1208.45	323.25
945.029	2153.9149	1207.75	323
945.1642	2155.4287	1305.1	320.7
945.2994	2156.9417	1208.15	321.75
945.4346	2158.454	1202.35	316.5
945.5697	2159.9655	1201.7	318.05
945.7048	2161.4764	1198.45	314.5
945.8399	2162.9865	1207.9	323.15
945.9749	2164.4958	1197.75	312.6
946.1099	2166.0045	1198.8	308.6
946.2449	2167.5124	1202	315.6
946.3799	2169.0195	1197.55	314.6
946.5148	2170.526	1197.75	311.7
946.6498	2172.0317	1200.8	317
946.7846	2173.5367	1201.15	315.95
946.9195	2175.0409	1198.15	313.65
947.0543	2176.5445	1196.3	314.4
947.1891	2178.0473	1187.2	302.4
947.3239	2179.5494	1195.25	307.8
947.4587	2181.0507	1193.6	309.15
947.5934	2182.5513	1191.45	308.65
947.7281	2184.0512	1194.4	310.1
947.8628	2185.5504	1187.5	302
947.9974	2187.0488	1186.05	302.25
948.132	2188.5465	1179.6	296.8
948.2666	2190.0435	1183.1	298.1
948.4012	2191.5397	1190.8	308.05
948.5357	2193.0353	1185.05	302.25
948.6702	2194.5301	1188.7	304.7
948.8047	2196.0241	1184.25	300.2
948.9392	2197.5175	1189.6	307.25
949.0736	2199.0101	1180.7	293.3
949.208	2200.502	1181.9	297.75
949.3424	2201.9931	1181.95	300
949.4767	2203.4835	1182.9	297.5
949.611	2204.9733	1196.6	295.3
949.7453	2206.4622	1174.45	289.85
949.8796	2207.9505	1182.25	296.5
950.0138	2209.438	1173.25	290.1
950.148	2210.9248	1174.65	291
950.2822	2212.4109	1175.2	292.4
950.4164	2213.8962	1171.6	286.25
950.5505	2215.3809	1177.7	292.2
950.6846	2216.8648	1169.6	286.6
950.8186	2218.3479	1177.8	289.75
950.9527	2219.8304	1172.55	284.75
951.0867	2221.3121	1174.15	287.4
951.2207	2222.7931	1166.4	282.05
951.3546	2224.2733	1170.35	285.55
951.4886	2225.7529	1166.8	282.4
951.6225	2227.2317	1168.05	284.25
951.7563	2228.7098	1164.5	281.25
951.8902	2230.1872	1162.65	278.8
952.024	2231.6638	1163.35	280.3
952.1578	2233.1397	1167.95	280
952.2916	2234.6149	1164.7	280.9
952.4253	2236.0894	1160.4	277.1
952.559	2237.5632	1158.6	272.8
952.6927	2239.0362	1160.55	275.25
952.8263	2240.5085	1156.95	273.45
952.9599	2241.9801	1158.8	275.15
953.0935	2243.4509	1154.55	270.15
953.2271	2244.921	1153.55	269.15
953.3606	2246.3904	1156.15	269.8
953.4941	2247.8591	1150.1	266.55
953.6276	2249.3271	1146.1	262.9
953.7611	2250.7943	1149.2	265.7
953.8945	2252.2608	1145.05	263.55
954.0279	2253.7266	1148.8	263.3
954.1612	2255.1917	1147.6	263.9
954.2946	2256.656	1148.2	263.5
954.4279	2258.1197	1147.05	263.6
954.5612	2259.5826	1146.75	262
954.6944	2261.0447	1145.65	261.4
954.8276	2262.5062	1145.9	259.35
954.9608	2263.9669	1149.5	263.2
955.094	2265.4269	1141.95	259.85
955.2271	2266.8862	1144.45	261.25
955.3602	2268.3448	1148.15	262.95
955.4933	2269.8026	1142.6	257.35
955.6264	2271.2598	1140.9	257.7
955.7594	2272.7162	1146.55	264.55
955.8924	2274.1719	1142.3	257.9
956.0253	2275.6268	1137.35	253.75
956.1583	2277.0811	1134.8	251.1
956.2912	2278.5346	1138.6	255.55
956.4241	2279.9874	1136.25	252.1
956.5569	2281.4395	1133.2	250.25
956.6897	2282.8908	1146.05	256.4
956.8225	2284.3414	1138.5	252.65
956.9553	2285.7914	1138.55	256.7
957.088	2287.2406	1131.45	244.3
957.2207	2288.689	1136.35	253.65
957.3534	2290.1368	1138.5	254.7
957.486	2291.5838	1140.3	251.95
957.6186	2293.0302	1134.8	249.1
957.7512	2294.4758	1129.05	244.4
957.8838	2295.9206	1129.9	245.7
958.0163	2297.3648	1124.2	238.85
958.1488	2298.8082	1128.2	242.75
958.2813	2300.251	1122.75	239.8
958.4137	2301.693	1135.85	249.2
958.5461	2303.1343	1127.8	243.9
958.6785	2304.5748	1125.7	240.35
958.8108	2306.0147	1128.4	243.35
958.9432	2307.4538	1124.75	237.65
959.0754	2308.8922	1122.65	241.1
959.2077	2310.3299	1122.55	237.05
959.3399	2311.7669	1123.2	239.6
959.4721	2313.2031	1123.8	241.1
959.6043	2314.6387	1122.05	238.9
959.7365	2316.0735	1119.65	238
959.8686	2317.5076	1118.65	233.85
960.0006	2318.941	1117.7	234.6
960.1327	2320.3737	1122.2	235.95
960.2647	2321.8056	1116.6	228.4
960.3967	2323.2369	1119.3	233.75
960.5287	2324.6674	1118.6	233.05
960.6606	2326.0972	1118.4	233.55
960.7925	2327.5263	1115.65	232.25
960.9244	2328.9547	1123.4	236.9
961.0562	2330.3823	1121.4	237.25
961.1881	2331.8092	1116.05	229.95
961.3198	2333.2355	1117.8	233
961.4516	2334.661	1112.45	229.7
961.5833	2336.0858	1113.9	226.95
961.715	2337.5098	1110.2	225.85
961.8467	2338.9332	1111.95	225.05
961.9783	2340.3558	1107.5	219.2
962.1099	2341.7778	1104.9	222.4
962.2415	2343.199	1110.25	223.55
962.373	2344.6195	1108.9	223.2
962.5045	2346.0393	1110.75	227.05
962.636	2347.4583	1105.7	220.9
962.7675	2348.8767	1106.65	222.55
962.8989	2350.2943	1103	218.35
963.0303	2351.7113	1103.8	218.7
963.1617	2353.1275	1107.7	223.75
963.293	2354.543	1127.5	219.6
963.4243	2355.9578	1103.25	217.7
963.5556	2357.3718	1105.65	221.55
963.6868	2358.7852	1098.6	210.4
963.818	2360.1978	1104.8	219.35
963.9492	2361.6098	1102.45	218.5
964.0803	2363.021	1104.45	216.85
964.2114	2364.4315	1099.55	215.85
964.3425	2365.8413	1103.55	212
964.4736	2367.2504	1093.45	211.3
964.6046	2368.6587	1095.9	210.65
964.7356	2370.0664	1095.3	210
964.8666	2371.4733	1095.1	208.2
964.9975	2372.8795	1097.75	214.9
965.1284	2374.285	1097.95	213.1
965.2593	2375.6899	1091	207.9
965.3901	2377.0939	1092.4	206.95
965.5209	2378.4973	1094.8	211.45
965.6517	2379.9	1091.25	206.9
965.7825	2381.3019	1090	205.45
965.9132	2382.7032	1088.65	204.95
966.0439	2384.1037	1091.1	209.45
966.1745	2385.5035	1088.5	206.05
966.3051	2386.9027	1081.4	197.05
966.4357	2388.3011	1091.9	204.7
966.5663	2389.6987	1093.1	208.55
966.6968	2391.0957	1084.15	200.05
966.8273	2392.492	1091.8	206.8
966.9578	2393.8876	1082.85	198.8
967.0882	2395.2824	1082.5	197.25
967.2186	2396.6765	1082.4	198
967.349	2398.07	1077.75	195.4
967.4793	2399.4627	1081.1	194.55
967.6097	2400.8547	1081.35	194.85
967.7399	2402.246	1082.45	192.05
967.8702	2403.6366	1082.95	196.8
968.0004	2405.0265	1075.7	193.15
968.1306	2406.4156	1078.8	188.25
968.2607	2407.8041	1078.95	191.05
968.3909	2409.1918	1077.05	191.65
968.521	2410.5789	1071.55	185.5
968.651	2411.9652	1072.8	184.75
968.781	2413.3508	1075.05	190.3
968.911	2414.7358	1078.3	192.7
969.041	2416.12	1070.15	185.25
969.1709	2417.5035	1073.2	187.9
969.3008	2418.8863	1073.7	187.5
969.4307	2420.2684	1069.55	185.3
969.5606	2421.6497	1069.25	182.75
969.6904	2423.0304	1067.95	185.7
969.8201	2424.4104	1068.5	184.65
969.9499	2425.7896	1068.45	180.75
970.0796	2427.1682	1071.55	186
970.2093	2428.546	1072.75	184.6
970.3389	2429.9232	1064.85	178.7
970.4685	2431.2996	1063.7	178.3
970.5981	2432.6753	1061.7	177.55
970.7277	2434.0503	1065.95	179.85
970.8572	2435.4246	1062.3	176.25
970.9867	2436.7982	1066.2	179.35
971.1161	2438.1711	1063.25	181.3
971.2456	2439.5433	1061.65	177.4
971.375	2440.9148	1065.45	174.5
971.5043	2442.2856	1063.5	178.85
971.6336	2443.6557	1061.05	177.55
971.7629	2445.025	1056.3	170.95
971.8922	2446.3937	1057.2	171.4
972.0214	2447.7617	1061.35	174.5
972.1506	2449.1289	1059.6	175.95
972.2798	2450.4955	1064	176.2
972.4089	2451.8613	1054.2	170.3
972.538	2453.2265	1058.95	173.8
972.6671	2454.5909	1053.75	167.75
972.7961	2455.9546	1058.25	175.55
972.9251	2457.3177	1048.55	164.35
973.0541	2458.68	1057.2	170.45
973.1831	2460.0416	1050.95	167.25
973.312	2461.4025	1053.4	167.45
973.4408	2462.7627	1063.7	169.45
973.5697	2464.1222	1048.9	164.8
973.6985	2465.4811	1047.8	161.15
973.8273	2466.8392	1051.6	166.45
973.956	2468.1966	1052.95	167
974.0847	2469.5533	1054.9	169.35
974.2134	2470.9093	1052.15	166.5
974.3421	2472.2645	1049.15	164.05
974.4707	2473.6191	1040.3	156.8
974.5993	2474.973	1050.75	166.3
974.7278	2476.3262	1051.95	165
974.8563	2477.6787	1048.05	165.1
974.9848	2479.0305	1042.7	158.4
975.1132	2480.3816	1048.75	163.6
975.2417	2481.7319	1048.95	164.7
975.37	2483.0816	1048	161.05
975.4984	2484.4306	1043.65	156.65
975.6267	2485.7789	1044.8	159.6
975.755	2487.1264	1043.25	159.25
975.8833	2488.4733	1042.3	158.65
976.0115	2489.8195	1049.9	156.4
976.1397	2491.165	1045.85	157.25
976.2678	2492.5097	1042.5	155.75
976.3959	2493.8538	1042.4	156.6
976.524	2495.1972	1038.45	155.2
976.6521	2496.5398	1043.95	158.8
976.7801	2497.8818	1041.65	154.55
976.9081	2499.2231	1040.55	155.7
977.036	2500.5637	1038.4	150.7
977.164	2501.9035	1037.3	153.05
977.2918	2503.2427	1041.2	153.55
977.4197	2504.5812	1038.1	154.5
977.5475	2505.919	1036.8	149.35
977.6753	2507.256	1037.4	154.05
977.8031	2508.5924	1036.95	152.9
977.9308	2509.9281	1038.3	146.45
978.0585	2511.2631	1032.35	145.25
978.1861	2512.5974	1033.55	149.65
978.3137	2513.9309	1034.45	150.6
978.4413	2515.2638	1053.1	143.55
978.5689	2516.596	1029.9	145.85
978.6964	2517.9275	1029.9	144.5
978.8239	2519.2583	1033.65	148.15
978.9513	2520.5884	1032.15	144.5
979.0788	2521.9178	1031.7	145.3
979.2062	2523.2465	1026.55	139.8
979.3335	2524.5745	1026.95	142.15
979.4608	2525.9018	1029.25	145
979.5881	2527.2284	1026.95	143.3
979.7154	2528.5543	1024.4	141.65
979.8426	2529.8796	1028.1	144.65
979.9698	2531.2041	1029.45	142.25
980.0969	2532.5279	1024.75	141.95
980.224	2533.851	1030.1	145.1
980.3511	2535.1735	1025.05	140.65
980.4781	2536.4952	1024.4	142.15
980.6052	2537.8163	1023.9	139.5
980.7321	2539.1366	1021.85	138.7
980.8591	2540.4562	1022.7	136.95
980.986	2541.7752	1022.5	138.2
981.1129	2543.0935	1025.5	140.6
981.2397	2544.411	1020.85	134.3
981.3665	2545.7279	1024.5	140.45
981.4933	2547.0441	1022.2	138.3
981.62	2548.3596	1023	136.05
981.7467	2549.6744	1023.5	138.7
981.8734	2550.9885	1031.15	139.2
982.0001	2552.3019	1021.1	137.7
982.1267	2553.6146	1021.8	137.2
982.2532	2554.9266	1017.4	131.25
982.3798	2556.2379	1016.1	130.6
982.5063	2557.5485	1019	136.6
982.6327	2558.8585	1023.9	132.4
982.7592	2560.1677	1024.65	137.95
982.8856	2561.4762	1019.05	133.5
983.0119	2562.7841	1020.4	133.2
983.1383	2564.0913	1013.65	128.3
983.2646	2565.3977	1018.35	134.15
983.3908	2566.7035	1013.75	128.2
983.517	2568.0086	1014.5	127.85
983.6432	2569.313	1014.25	129.45
983.7694	2570.6167	1017.2	129.9
983.8955	2571.9197	1019.8	135.3
984.0216	2573.222	1018.55	130.65
984.1476	2574.5236	1016.2	130.95
984.2737	2575.8246	1015.8	128.35
984.3996	2577.1248	1019.5	130.25
984.5256	2578.4244	1017.1	132.1
984.6515	2579.7232	1014.05	131.15
984.7774	2581.0214	1048.7	135.85
984.9032	2582.3189	1016.55	132.1
985.029	2583.6157	1024.9	126.55
985.1548	2584.9118	1008.3	123.55
985.2806	2586.2072	1011.2	127
985.4063	2587.5019	1012.85	127.25
985.5319	2588.7959	1013.5	127.05
985.6576	2590.0893	1019.25	133.45
985.7832	2591.3819	1011.7	128.15
985.9087	2592.6739	1014.15	130.2
986.0343	2593.9652	1013.9	126.7
986.1597	2595.2557	1009.55	125.3
986.2852	2596.5456	1012.6	127.15
986.4106	2597.8348	1009.5	126
986.536	2599.1234	1010.35	125.8
986.6614	2600.4112	1005.95	121.55
986.7867	2601.6983	1008	121.05
986.912	2602.9848	1010.55	124.6
987.0372	2604.2705	1017.6	124.7
987.1624	2605.5556	1006.85	121.75
987.2876	2606.84	1007.35	123.55
987.4128	2608.1237	1003.45	119.75
987.5379	2609.4067	1007.6	121.7
987.6629	2610.689	1012.3	118.1
987.788	2611.9707	1009.3	122
987.913	2613.2516	1010	121.35
988.0379	2614.5319	1001.7	116.5
988.1629	2615.8115	1006.1	122.35
988.2878	2617.0903	1005.55	117.4
988.4126	2618.3685	1002.1	117.85
988.5375	2619.6461	1000.35	111.9
988.6622	2620.9229	1001	117.25
988.787	2622.199	1005.25	120.8
988.9117	2623.4745	1001.9	117.65
989.0364	2624.7493	997.15	114.55
989.161	2626.0234	999.3	113.1
989.2857	2627.2968	998.4	113.85
989.4102	2628.5695	1000	113.6
989.5348	2629.8415	995.65	109.45
989.6593	2631.1128	999.7	114.9
989.7837	2632.3835	999.2	114.25
989.9082	2633.6535	996.2	112.25
990.0326	2634.9228	998.25	114.3
990.1569	2636.1914	998.5	114.05
990.2812	2637.4593	1000.95	111
990.4055	2638.7265	996.15	112.1
990.5298	2639.9931	995.4	110.05
990.654	2641.259	995.05	111.1
990.7782	2642.5242	998.6	114.25
990.9023	2643.7887	994.45	109.65
991.0264	2645.0525	994.25	109.85
991.1505	2646.3156	1006.7	106.5
991.2745	2647.5781	992.45	108.35
991.3985	2648.8398	990.55	107.3
991.5225	2650.1009	999.15	106.75
991.6464	2651.3613	993.7	109.1
991.7703	2652.6211	988.95	102.45
991.8942	2653.8801	987.75	104.6
992.018	2655.1385	993.55	107.25
992.1418	2656.3961	989.05	106.5
992.2655	2657.6531	988.7	103.25
992.3892	2658.9094	990.7	104.85
992.5129	2660.1651	984.9	101.75
992.6366	2661.42	987.6	102.75
992.7602	2662.6743	984.25	98.45
992.8837	2663.9279	989.5	105.55
993.0073	2665.1808	989.25	104.2
993.1307	2666.433	987.8	102.35
993.2542	2667.6846	987.85	102.95
993.3776	2668.9354	991.1	103
993.501	2670.1856	991.6	107.2
993.6244	2671.4351	989.25	104.6
993.7477	2672.6839	990.75	103.65
993.8709	2673.9321	987.15	103.5
993.9942	2675.1795	991.5	105.8
994.1174	2676.4263	990.8	107.2
994.2405	2677.6724	986.55	103.25
994.3637	2678.9179	988.75	104.35
994.4868	2680.1626	987.85	104.55
994.6098	2681.4067	987.35	103.3
994.7328	2682.6501	986.75	101.1
994.8558	2683.8928	986.4	102.85
994.9788	2685.1348	985.05	102.05
995.1017	2686.3761	981.1	97.3
995.2245	2687.6168	981	96.75
995.3474	2688.8568	983.3	99.7
995.4702	2690.0961	981.7	98.9
995.5929	2691.3348	980.3	94.95
995.7156	2692.5727	983.7	97
995.8383	2693.81	981.75	95.5
995.961	2695.0466	979.2	97
996.0836	2696.2826	982.9	96.8
996.2062	2697.5178	982.95	96.4
996.3287	2698.7524	978.45	97.05
996.4512	2699.9863	980.45	94.55
996.5737	2701.2195	974.35	91.1
996.6961	2702.452	983.3	99.7
996.8185	2703.6839	979.2	92.5
996.9408	2704.9151	977.35	94.05
997.0631	2706.1456	976.1	90.35
997.1854	2707.3755	978.1	92.35
997.3077	2708.6046	979.55	96
997.4299	2709.8331	980.55	94.1
997.552	2711.0609	980.6	96.45
997.6742	2712.2881	978.05	92.75
997.7963	2713.5145	981.2	94.75
997.9183	2714.7403	978.15	94.75
998.0403	2715.9654	981.75	97.45
998.1623	2717.1899	995.4	95.25
998.2842	2718.4136	981.7	96.5
998.4062	2719.6367	981.9	98.85
998.528	2720.8591	989.7	98.15
998.6498	2722.0809	981.65	96.75
998.7716	2723.3019	988.55	100.4
998.8934	2724.5223	981.05	95.95
999.0151	2725.7421	986.45	101.25
999.1368	2726.9611	986.85	99.6
999.2584	2728.1795	985.2	96.35
999.38	2729.3972	980.5	97.65
999.5016	2730.6142	984.55	92.35
999.6231	2731.8306	979.2	92.35
999.7446	2733.0462	978.05	91.35
999.8661	2734.2612	979.5	91
999.9875	2735.4756	978.35	92.1
1000.1089	2736.6892	971.65	86.8
1000.2302	2737.9022	974.4	92.4
1000.3515	2739.1145	970.8	83.7
1000.4728	2740.3262	980.3	88.95
1000.594	2741.5372	967.15	82.95
1000.7152	2742.7475	970	85.9
1000.8363	2743.9571	969.8	83.8
1000.9575	2745.1661	970.2	82.15
1001.0785	2746.3744	964.6	79.55
1001.1996	2747.582	965	82.65
1001.3206	2748.7889	968.5	82.85
1001.4415	2749.9952	964.95	82.1
1001.5625	2751.2008	966.9	82.25
1001.6833	2752.4057	966.75	78.7
1001.8042	2753.61	970.75	85.05
1001.925	2754.8136	967.8	81.95
1002.0458	2756.0165	958.85	73.1
1002.1665	2757.2188	959.5	75.2
1002.2872	2758.4204	961.65	76.45
1002.4078	2759.6213	967.1	80.3
1002.5285	2760.8215	967.6	79.35
1002.649	2762.0211	962.8	75.5
1002.7696	2763.22	964.2	77.15
1002.8901	2764.4182	964.75	78.15
1003.0106	2765.6158	961.25	76.25
1003.131	2766.8127	962	78.05
1003.2514	2768.009	960	74.95
1003.3717	2769.2045	957.65	72.2
1003.492	2770.3994	960.9	73.4
1003.6123	2771.5936	959.35	73.6
1003.7325	2772.7872	959.1	76.25
1003.8527	2773.9801	959.75	73.35
1003.9729	2775.1723	974.85	71.9
1004.093	2776.3639	956.5	72.65
1004.2131	2777.5548	959.45	73.25
1004.3331	2778.745	957.85	72.7
1004.4531	2779.9346	957.35	74.05
1004.5731	2781.1235	959.1	72.8
1004.693	2782.3117	952.95	68.95
1004.8129	2783.4992	956.1	71.9
1004.9328	2784.6861	955.35	71.7
1005.0526	2785.8723	960.6	75.3
1005.1723	2787.0579	959.4	75.15
1005.2921	2788.2428	953.95	70.25
1005.4118	2789.427	955.3	70.9
1005.5314	2790.6106	960	75.9
1005.651	2791.7935	959.55	74.85
1005.7706	2792.9757	957.4	74.3
1005.8902	2794.1573	956.9	69.6
1006.0097	2795.3382	954.2	70.15
1006.1291	2796.5184	952.15	69.2
1006.2485	2797.698	955.1	69.25
1006.3679	2798.8769	960.1	76.2
1006.4873	2800.0551	959.35	75.4
1006.6066	2801.2327	959	73.65
1006.7258	2802.4096	955.5	71.25
1006.8451	2803.5859	955.15	70.55
1006.9642	2804.7615	954.85	70.25
1007.0834	2805.9364	958.65	75.3
1007.2025	2807.1106	953.6	68.75
1007.3216	2808.2842	958.05	73.7
1007.4406	2809.4572	959.75	76.4
1007.5596	2810.6294	957.7	72
1007.6785	2811.801	961.1	77.3
1007.7975	2812.972	960.95	77
1007.9163	2814.1423	964.7	80.5
1008.0352	2815.3119	962.05	78.95
1008.154	2816.4808	965.85	83.55
1008.2727	2817.6491	970	83.05
1008.3914	2818.8167	972.5	89.8
1008.5101	2819.9837	977.15	89.2
1008.6288	2821.15	977.85	92.55
1008.7474	2822.3157	982.85	100.15
1008.8659	2823.4807	989.95	106.95
1008.9844	2824.645	994.35	108.75
1009.1029	2825.8086	1002.1	117.35
1009.2214	2826.9716	1007.05	124.9
1009.3398	2828.134	1011.3	126.25
1009.4581	2829.2957	1017.9	135.35
1009.5764	2830.4567	1021.8	137.4
1009.6947	2831.617	1025.7	142.5
1009.813	2832.7767	1026.35	144.7
1009.9312	2833.9358	1026.35	143.5
1010.0493	2835.0941	1028.25	142.05
1010.1675	2836.2519	1025	139.95
1010.2855	2837.4089	1021.2	136.4
1010.4036	2838.5653	1019.7	136.9
1010.5216	2839.7211	1010.3	129.2
1010.6396	2840.8761	1011.5	124.8
1010.7575	2842.0306	1012.9	129.85
1010.8754	2843.1843	1013.05	129.2
1010.9932	2844.3374	1014.1	130.85
1011.111	2845.4899	1014.4	130.75
1011.2288	2846.6417	1017.65	136.3
1011.3465	2847.7928	1015.4	132.85
1011.4642	2848.9433	1014.35	130.05
1011.5818	2850.0931	1020.5	136.05
1011.6995	2851.2422	1022.15	135.35
1011.817	2852.3907	1021.9	139.05
1011.9345	2853.5385	1021.65	136
1012.052	2854.6857	1030.6	139.7
1012.1695	2855.8323	1019.95	138.1
1012.2869	2856.9781	1021.3	137.45
1012.4042	2858.1233	1026.95	142.9
1012.5216	2859.2679	1027.9	144.55
1012.6389	2860.4118	1032.75	149.15
1012.7561	2861.555	1038.85	150.15
1012.8733	2862.6976	1039.9	152.25
1012.9905	2863.8395	1036.9	152.1
1013.1076	2864.9808	1039.1	155.85
1013.2247	2866.1214	1041.05	159.45
1013.3417	2867.2614	1046.7	162.25
1013.4587	2868.4007	1045.7	158.4
1013.5757	2869.5393	1046.8	160.45
1013.6926	2870.6773	1052.5	165
1013.8095	2871.8146	1053.15	166.25
1013.9263	2872.9513	1053.1	167.35
1014.0431	2874.0874	1050.95	166
1014.1599	2875.2227	1056.4	172.2
1014.2766	2876.3574	1057.45	174.75
1014.3933	2877.4915	1055.8	173
1014.51	2878.6249	1056.65	173.85
1014.6266	2879.7577	1060.6	176.4
1014.7431	2880.8898	1072.2	176.7
1014.8596	2882.0212	1067	182.65
1014.9761	2883.152	1065.45	180.55
1015.0925	2884.2821	1071.45	187.75
1015.2089	2885.4116	1068.25	182.05
1015.3253	2886.5405	1073.5	189.95
1015.4416	2887.6686	1074.35	187.35
1015.5579	2888.7962	1067.75	186.75
1015.6741	2889.923	1068.65	184.75
1015.7903	2891.0493	1073.4	191.8
1015.9065	2892.1748	1073.5	190.2
1016.0226	2893.2997	1069.9	184.5
1016.1387	2894.424	1070.25	187.9
1016.2547	2895.5476	1067.85	184.65
1016.3707	2896.6706	1073.1	188.85
1016.4866	2897.7929	1070.2	186.05
1016.6025	2898.9145	1072.55	187.05
1016.7184	2900.0355	1073.65	190.5
1016.8342	2901.1559	1074.2	189.35
1016.95	2902.2756	1067.15	180.3
1017.0658	2903.3946	1068.1	183.6
1017.1815	2904.513	1069.05	182.6
1017.2971	2905.6308	1069.6	186.15
1017.4127	2906.7479	1070.25	186
1017.5283	2907.8643	1065.85	183.2
1017.6439	2908.9801	1069	186.75
1017.7594	2910.0953	1064.45	182.25
1017.8748	2911.2098	1069.55	182.85
1017.9902	2912.3236	1073.9	181.65
1018.1056	2913.4368	1070.05	183.2
1018.2209	2914.5494	1063.75	180
1018.3362	2915.6613	1061.95	172.05
1018.4515	2916.7725	1064.05	176.8
1018.5667	2917.8831	1059.75	176.1
1018.6819	2918.9931	1062.5	177.35
1018.797	2920.1024	1054.15	168.45
1018.9121	2921.211	1049.25	166.15
1019.0271	2922.319	1045.5	160.7
1019.1421	2923.4264	1048.15	164.75
1019.2571	2924.5331	1042.35	159.9
1019.372	2925.6391	1046.4	162.7
1019.4869	2926.7445	1042.1	159.6
1019.6017	2927.8493	1046.8	163.95
1019.7165	2928.9534	1050.65	167.2
1019.8313	2930.0569	1050.5	164.1
1019.946	2931.1597	1046.8	162.15
1020.0606	2932.2619	1049.6	167.65
1020.1753	2933.3634	1047.15	163.4
1020.2899	2934.4643	1057.9	166.5
1020.4044	2935.5645	1057.2	165.9
1020.5189	2936.6641	1058.9	172.9
1020.6334	2937.763	1050.95	167.9
1020.7478	2938.8613	1055.1	170.1
1020.8622	2939.959	1056.15	166.45
1020.9765	2941.056	1047.3	165.55
1021.0908	2942.1523	1043.45	156.9
1021.2051	2943.248	1038.65	154.3
1021.3193	2944.3431	1028	145.05
1021.4334	2945.4375	1027.55	146.15
1021.5476	2946.5313	1016.05	133.7
1021.6617	2947.6244	1013.4	129.25
1021.7757	2948.7169	1007.25	124.2
1021.8897	2949.8087	1002.2	118.25
1022.0037	2950.8999	994.95	110.1
1022.1176	2951.9904	990.35	106
1022.2315	2953.0803	987.25	102.3
1022.3453	2954.1696	983.25	98.95
1022.4591	2955.2582	980.2	97
1022.5728	2956.3462	979.05	95.2
1022.6865	2957.4335	978.25	94.85
1022.8002	2958.5202	976.7	91.3
1022.9138	2959.6062	979.2	97.05
1023.0274	2960.6916	977.3	94.1
1023.141	2961.7764	977.55	92.35
1023.2545	2962.8605	978.35	94.55
1023.3679	2963.9439	976	91
1023.4813	2965.0267	975.35	90.9
1023.5947	2966.1089	995.7	88.05
1023.708	2967.1905	975.65	90.95
1023.8213	2968.2714	973.65	92.2
1023.9346	2969.3516	972.55	87.9
1024.0478	2970.4312	981.1	90.5
1024.1609	2971.5102	973.25	90.05
1024.274	2972.5885	971.2	89.6
1024.3871	2973.6662	975.15	86.3
1024.5002	2974.7432	967.75	83.15
1024.6132	2975.8196	969.25	84.15
1024.7261	2976.8954	972.5	91.05
1024.839	2977.9705	968.2	84.1
1024.9519	2979.045	971.5	88.3
1025.0647	2980.1188	970.65	86.55
1025.1775	2981.192	973.35	89.5
1025.2902	2982.2645	972.1	85.85
1025.4029	2983.3364	966.35	82.4
1025.5156	2984.4077	962.8	80.6
1025.6282	2985.4783	973.4	83.8
1025.7407	2986.5483	960.25	77.15
1025.8532	2987.6177	959.7	77.3
1025.9657	2988.6864	958	73.8
1026.0782	2989.7545	957.85	75.55
1026.1906	2990.8219	954.15	68.55
1026.3029	2991.8887	954.8	68.95
1026.4152	2992.9548	952.95	68.65
1026.5275	2994.0204	947.75	65
1026.6397	2995.0852	942.2	60.55
1026.7519	2996.1495	945.55	59.9
1026.864	2997.2131	942.65	59.4
1026.9761	2998.276	937.4	52.05
1027.0882	2999.3383	937.85	54.35
1027.2002	3000.4	933.4	49.45
1027.3122	3001.4611	935	52.35
1027.4241	3002.5215	932.25	48.85
1027.536	3003.5812	930.25	47.85
1027.6478	3004.6404	930.25	46.45
1027.7596	3005.6989	931.5	47.55
1027.8714	3006.7567	925.55	42.15
1027.9831	3007.8139	948.35	44.35
1028.0947	3008.8705	924.5	41.15
1028.2064	3009.9264	929.85	43.1
1028.3179	3010.9818	928.5	44.5
1028.4295	3012.0364	925.25	41.7
1028.541	3013.0905	923.55	40.1
1028.6524	3014.1439	923.2	40.95
1028.7638	3015.1966	924.45	42.3
1028.8752	3016.2487	921.4	38.15
1028.9865	3017.3002	925.4	36.6
1029.0978	3018.3511	921.1	36.25
1029.209	3019.4013	923.3	40.65
1029.3202	3020.4509	920.5	37.05
1029.4314	3021.4998	923.1	41
1029.5425	3022.5481	922.25	40.9
1029.6535	3023.5958	920.25	35.7
1029.7645	3024.6428	921.7	34.65
1029.8755	3025.6892	919.25	37.25
1029.9864	3026.735	920.9	35.3
1030.0973	3027.7802	920.75	38.55
1030.2082	3028.8247	919.35	35.45
1030.319	3029.8685	919.4	36.85
1030.4297	3030.9118	918.45	35.3
1030.5404	3031.9544	920.25	38.4
1030.6511	3032.9963	917.3	35.05
1030.7617	3034.0376	921.4	36.75
1030.8723	3035.0783	921.45	36.4
1030.9829	3036.1184	920.15	33.15
1031.0934	3037.1578	921.2	38.9
1031.2038	3038.1966	920.35	34.6
1031.3142	3039.2348	918.95	35.95
1031.4246	3040.2723	928.95	38.85
1031.5349	3041.3092	916.7	34.95
1031.6452	3042.3455	919.25	36.55
1031.7554	3043.3811	920.4	38.7
1031.8656	3044.4161	919.25	35
1031.9758	3045.4505	916.05	32.9
1032.0859	3046.4842	921.8	36.9
1032.1959	3047.5173	919.85	38.05
1032.3059	3048.5498	919.2	38.6
1032.4159	3049.5816	920.3	38.4
1032.5258	3050.6128	924.3	39.3
1032.6357	3051.6434	918.6	35.25
1032.7455	3052.6734	920	35.7
1032.8553	3053.7027	919.2	34.95
1032.9651	3054.7314	919.55	34.35
1033.0748	3055.7594	918.65	35.75
1033.1845	3056.7868	920.5	37.25
1033.2941	3057.8136	918	33.6
1033.4037	3058.8398	918.45	35.5
1033.5132	3059.8653	919.15	35.35
1033.6227	3060.8902	920.6	37.95
1033.7321	3061.9145	922.55	36.1
1033.8415	3062.9381	922	38.1
1033.9509	3063.9612	937.85	37.45
1034.0602	3064.9835	920.85	37.25
1034.1694	3066.0053	921.6	34.8
1034.2787	3067.0264	921.35	38.1
1034.3878	3068.0469	923.75	38.05
1034.497	3069.0668	921.25	35.6
1034.6061	3070.086	920.35	37.35
1034.7151	3071.1046	920.1	33.65
1034.8241	3072.1226	922.15	38.7
1034.9331	3073.1399	918.3	34.5
1035.042	3074.1567	920.35	35.9
1035.1508	3075.1727	920.8	35.4
1035.2597	3076.1882	919.15	36.7
1035.3684	3077.203	918	36.15
1035.4772	3078.2173	917.25	30.35
1035.5859	3079.2308	920.6	33.3
1035.6945	3080.2438	917.85	32.45
1035.8031	3081.2561	917.3	34.05
1035.9117	3082.2678	913.5	31.25
1036.0202	3083.2789	913	29
1036.1286	3084.2893	911.55	29.2
1036.2371	3085.2991	913.95	30.55
1036.3454	3086.3083	913.7	25.7
1036.4538	3087.3169	912.25	27.35
1036.562	3088.3248	914.1	29.3
1036.6703	3089.3321	913.25	27
1036.7785	3090.3388	911.45	29.6
1036.8866	3091.3449	912	29.85
1036.9948	3092.3503	914.45	28.45
1037.1028	3093.3551	908.65	28.2
1037.2108	3094.3593	910.95	27.9
1037.3188	3095.3629	911.35	28.95
1037.4267	3096.3658	910.5	25.25
1037.5346	3097.3681	909.85	26
1037.6425	3098.3698	910.85	24.75
1037.7503	3099.3708	917.65	26.95
1037.858	3100.3713	908.9	28.2
1037.9657	3101.3711	910.15	27
1038.0734	3102.3702	1041.4	27.45
1038.181	3103.3688	910.85	26.75
1038.2886	3104.3667	908.35	27.45
1038.3961	3105.364	908.4	27.7
1038.5036	3106.3607	907.4	23.1
1038.611	3107.3568	910	25.9
1038.7184	3108.3522	906.1	22.6
1038.8257	3109.347	908.8	24.9
1038.933	3110.3412	908.8	22.15
1039.0403	3111.3348	905.45	22.75
1039.1475	3112.3277	906.05	22.05
1039.2547	3113.32	904.75	23.45
1039.3618	3114.3117	908.55	25.5
1039.4689	3115.3028	904.85	24.1
1039.5759	3116.2932	910.25	24.05
1039.6829	3117.2831	911.8	22.95
1039.7898	3118.2723	905.4	21.7
1039.8967	3119.2608	904.1	19.9
1040.0035	3120.2488	903.2	18.6
1040.1103	3121.2361	904.15	18.2
1040.2171	3122.2229	906	22.35
1040.3238	3123.209	906.05	21.3
1040.4305	3124.1944	902.65	19.8
1040.5371	3125.1793	904.55	18.35
1040.6437	3126.1635	904	20.5
1040.7502	3127.1471	904.15	22.5
1040.8567	3128.1301	904.35	20.4
1040.9631	3129.1125	903.75	21.15
1041.0695	3130.0942	902.6	18.7
1041.1759	3131.0753	911.8	21.6
1041.2822	3132.0558	905.25	18.65
1041.3884	3133.0357	903.55	19.1
1041.4946	3134.015	902.85	18.4
1041.6008	3134.9936	904	19.75
1041.7069	3135.9716	923.2	20.85
1041.813	3136.949	901.95	18.1
1041.919	3137.9258	921.6	19.45
1042.025	3138.902	907.95	20.2
1042.1309	3139.8775	901.5	19.15
1042.2368	3140.8524	902.15	20.35
1042.3427	3141.8267	903.45	18.45
1042.4485	3142.8004	902.1	17.8
1042.5542	3143.7735	908.95	18
1042.6599	3144.7459	903.9	18.6
1042.7656	3145.7178	902.6	18.7
1042.8712	3146.689	900.75	16.7
1042.9768	3147.6596	904.05	21.1
1043.0823	3148.6295	903.5	19.1
1043.1878	3149.5989	900.55	17.9
1043.2932	3150.5676	900.05	17.35
1043.3986	3151.5357	899.05	16.5
1043.5039	3152.5032	900.8	18.05
1043.6092	3153.4701	900.4	16.95
1043.7145	3154.4364	902.55	16.8
1043.8197	3155.402	897.35	15.8
1043.9248	3156.367	901.95	15.45
1044.03	3157.3315	938.65	19.25
1044.135	3158.2952	902.35	17.95
1044.24	3159.2584	899.9	17.65
1044.345	3160.221	899.35	16.05
1044.4499	3161.1829	900.45	16.55
1044.5548	3162.1442	900.55	18.2
1044.6596	3163.105	898.7	15.55
1044.7644	3164.065	901.2	17.05
1044.8692	3165.0245	901.25	12.15
1044.9739	3165.9834	897.9	16.95
1045.0785	3166.9416	899.3	15
1045.1831	3167.8993	900.3	15.7
1045.2877	3168.8563	901.65	18.95
1045.3922	3169.8127	898.55	16.9
1045.4966	3170.7684	899.6	16.45
1045.6011	3171.7236	898.15	12.15
1045.7054	3172.6782	897.15	13.8
1045.8098	3173.6321	900.55	17.55
1045.914	3174.5854	904.25	17.05
1046.0183	3175.5381	898.4	13.9
1046.1224	3176.4902	895.8	13.65
1046.2266	3177.4417	896.45	14.15
1046.3307	3178.3926	896.9	13.35
1046.4347	3179.3428	899.5	17.35
1046.5387	3180.2924	900.2	16.6
1046.6427	3181.2415	897.45	13.8
1046.7466	3182.1899	898.45	13.35
1046.8504	3183.1377	895.5	14.75
1046.9542	3184.0848	902.9	15.15
1047.058	3185.0314	900	15.4
1047.1617	3185.9773	899.3	16.75
1047.2654	3186.9227	898.1	15.45
1047.369	3187.8674	897.1	14.4
1047.4726	3188.8115	900.25	11.75
1047.5761	3189.755	896.55	12.9
1047.6796	3190.6979	896.75	14
1047.783	3191.6402	896.4	13.95
1047.8864	3192.5818	894.55	13
1047.9898	3193.5229	904.9	14.75
1048.0931	3194.4633	898.8	16.35
1048.1963	3195.4031	898.7	12.55
1048.2995	3196.3423	896.85	14.2
1048.4027	3197.2809	898.85	15.75
1048.5058	3198.2189	898.25	16.7
1048.6089	3199.1563	902.95	10.9
1048.7119	3200.0931	895.6	12.95
1048.8148	3201.0292	894.4	13.35
1048.9178	3201.9648	896.25	13.6
1049.0206	3202.8997	898.1	11.7
1049.1235	3203.834	896.15	12.25
1049.2262	3204.7677	896.6	12.85
1049.329	3205.7008	897.55	14.25
1049.4317	3206.6333	893.95	12.35
1049.5343	3207.5652	898.5	12.85
1049.6369	3208.4964	896.5	14.3
1049.7394	3209.4271	895.3	12.55
1049.8419	3210.3571	894.6	11.85
1049.9444	3211.2865	895.9	11.1
1050.0468	3212.2154	897.4	15.4
1050.1491	3213.1436	898.6	11.8
1050.2514	3214.0712	902.15	12.85
1050.3537	3214.9982	894.15	10.85
1050.4559	3215.9246	893.45	9.65
1050.5581	3216.8503	896.2	15
1050.6602	3217.7755	896.8	14.55
1050.7623	3218.7001	895.4	11.8
1050.8643	3219.624	895.75	12.7
1050.9663	3220.5473	895.5	10.8
1051.0682	3221.4701	896.8	10.3
1051.1701	3222.3922	898	15.05
1051.2719	3223.3137	895.85	12.7
1051.3737	3224.2346	892.15	8.75
1051.4754	3225.1549	895.3	12.15
1051.5771	3226.0746	894.85	12.1
1051.6788	3226.9937	894.4	11.35
1051.7804	3227.9121	892.05	9.3
1051.8819	3228.83	894.85	11.6
1051.9834	3229.7473	893.75	11.2
1052.0849	3230.6639	895.95	11.85
1052.1863	3231.5799	893.5	10.05
1052.2876	3232.4954	897.25	12.95
1052.3889	3233.4102	891.8	10.35
1052.4902	3234.3244	897.5	13.8
1052.5914	3235.238	894.7	11
1052.6926	3236.151	910.35	12.15
1052.7937	3237.0634	893.65	12.1
1052.8948	3237.9752	896.6	13.45
1052.9958	3238.8864	894.7	10.4
1053.0968	3239.797	892.45	9
1053.1977	3240.7069	895.2	12.6
1053.2986	3241.6163	896.2	9.6
1053.3994	3242.5251	892.15	11.85
1053.5002	3243.4332	892.3	8.6
1053.6009	3244.3408	893.35	8.5
1053.7016	3245.2477	893.65	11.95
1053.8022	3246.154	894.6	9.3
1053.9028	3247.0598	895	8.3
1054.0034	3247.9649	894.65	12.15
1054.1039	3248.8694	892.85	10
1054.2043	3249.7733	894.85	13.55
1054.3047	3250.6766	892.3	8.4
1054.4051	3251.5793	892.9	8
1054.5054	3252.4814	893.05	11.1
1054.6056	3253.3829	893.4	9.65
1054.7058	3254.2838	894.45	11.65
1054.806	3255.1841	890.6	6.55
1054.9061	3256.0838	893.5	10.4
1055.0061	3256.9829	891.8	10.5
1055.1062	3257.8814	893.45	9.55
1055.2061	3258.7792	893	6.3
1055.306	3259.6765	893.3	8.05
1055.4059	3260.5731	892.5	9.2
1055.5057	3261.4692	892.45	10.3
1055.6055	3262.3647	893.75	7.4
1055.7052	3263.2595	890.65	7.9
1055.8049	3264.1538	889.4	6.55
1055.9045	3265.0474	893.2	10.2
1056.0041	3265.9404	891.55	9
1056.1036	3266.8329	891.15	8.8
1056.2031	3267.7247	900.7	7.4
1056.3025	3268.616	890.1	7.65
1056.4019	3269.5066	890.65	7.9
1056.5013	3270.3966	891.25	6.35
1056.6005	3271.286	889.85	8.25
