Software Version:	3.9.2.0
Unit SN:	10000200
Spectrometer SN:	6960
Date:	3/26/2024 2:38:04 PM
Data Line Index:	25
Spectral Points:	2048
Integration time (ms):	125
Averages:	20
Delay (ms):	30000
Sequence Number:	1
Processing:	dark subtract
Laser Power (mW):	305
Laser Current (mA):	821
Laser Diode Temp (C):	25
Laser Case Temp (C):	27.9
System Temp (C):	27.9
Spectrometer Temp (C):	25.7
CCD Temp (C):	-0.003
Secondary Temp (C):	20.011
Heatsink Temp (C):	23.649
CCDPCB Temp (C):	37.263
SecondaryPCB Temp (C):	34.784

Wavelength	RamanShift	Raw Counts	Dark Subtracted
787.061	30.1047	649.95	240.4
787.2016	32.3739	656.15	247.45
787.3422	34.6426	670.8	261.05
787.4828	36.9109	694.05	281.65
787.6235	39.1787	715.15	299.8
787.7642	41.4461	743.5	323.05
787.9049	43.7131	760.25	336.05
788.0456	45.9796	791.85	363.7
788.1863	48.2456	815.5	383.15
788.3271	50.5112	845.1	409.25
788.4679	52.7764	875.45	438.8
788.6087	55.0411	895.05	454.2
788.7496	57.3054	931.75	484.1
788.8904	59.5692	966.45	515.4
789.0313	61.8326	999.8	547.1
789.1722	64.0955	1046.95	589.55
789.3132	66.3579	1090.5	627.95
789.4541	68.6199	1154.65	692.8
789.5951	70.8815	1251.45	784.7
789.7361	73.1426	1461.45	990.45
789.8771	75.4032	1982.7	1503.8
790.0181	77.6634	3282.4	2797.95
790.1592	79.9231	6543.4	6051.85
790.3003	82.1824	14059.8	13549.95
790.4414	84.4412	31773.85	31230.5
790.5825	86.6995	59732.55	59145.35
790.7237	88.9574	65535	64905.5
790.8648	91.2148	65535	64877.2
791.006	93.4717	65535	64857.05
791.1472	95.7282	65535	64842.4
791.2885	97.9842	65535	64836.5
791.4297	100.2398	65535	64837.25
791.571	102.4949	65535	64833
791.7123	104.7495	65535	64830.8
791.8536	107.0036	65535	64832.75
791.9949	109.2573	65535	64831.45
792.1363	111.5105	65535	64828.6
792.2777	113.7632	65535	64827.15
792.4191	116.0154	65535	64813.65
792.5605	118.2672	65535	64821.7
792.7019	120.5185	65535	64824.45
792.8434	122.7693	65535	64818.55
792.9849	125.0197	65535	64817.55
793.1264	127.2696	65535	64808.65
793.2679	129.519	65535	64809
793.4094	131.7679	65535	64808.05
793.551	134.0163	65535	64793.45
793.6926	136.2642	65535	64794
793.8342	138.5117	65535	64793.15
793.9758	140.7587	65535	64792.1
794.1175	143.0052	65535	64788.85
794.2591	145.2512	65535	64794.3
794.4008	147.4967	65535	64794.65
794.5425	149.7417	65535	64789
794.6842	151.9863	65535	64782.75
794.826	154.2304	65535	64779.85
794.9677	156.4739	65535	64775.75
795.1095	158.717	65535	64779.2
795.2513	160.9596	65535	64774.7
795.3931	163.2017	65535	64768.15
795.535	165.4433	65535	64768.4
795.6768	167.6844	65535	64771.05
795.8187	169.925	65535	64762.8
795.9606	172.1651	65535	64762.5
796.1025	174.4047	65535	64759.95
796.2445	176.6439	65535	64762.95
796.3864	178.8825	65535	64759.7
796.5284	181.1206	65535	64750.8
796.6704	183.3582	65535	64746.45
796.8124	185.5954	65535	64740.9
796.9544	187.832	65535	64744.3
797.0965	190.0681	65535	64738.65
797.2386	192.3037	65535	64732.85
797.3806	194.5388	65535	64731.9
797.5228	196.7734	65535	64734.9
797.6649	199.0075	65535	64726.45
797.807	201.2411	65535	64724.8
797.9492	203.4742	65535	64724.5
798.0914	205.7068	65535	64723.8
798.2336	207.9389	65535	64723.1
798.3758	210.1704	65535	64723.35
798.518	212.4015	65535	64714.35
798.6603	214.632	65535	64718.15
798.8025	216.862	65535	64726.15
798.9448	219.0915	65535	64737.6
799.0871	221.3205	65535	64738.2
799.2294	223.549	65535	64737.6
799.3718	225.777	65535	64744.75
799.5141	228.0044	65535	64737.05
799.6565	230.2314	65535	64741.95
799.7989	232.4578	65535	64744.55
799.9413	234.6837	65535	64734.25
800.0837	236.909	65535	64731.85
800.2262	239.1339	65535	64701.35
800.3687	241.3582	65535	64716.6
800.5111	243.582	65535	64690.45
800.6536	245.8053	65535	64698.9
800.7961	248.0281	65535	64706.9
800.9387	250.2503	65535	64701.75
801.0812	252.472	65535	64696.95
801.2238	254.6932	65535	64694.25
801.3664	256.9139	65535	64693.9
801.509	259.134	65535	64688.8
801.6516	261.3536	65535	64687.8
801.7942	263.5727	65535	64688.65
801.9369	265.7912	65535	64689.15
802.0795	268.0092	65535	64688.75
802.2222	270.2267	65535	64691
802.3649	272.4436	65535	64690.55
802.5076	274.6601	65535	64683.25
802.6504	276.8759	65535	64688.65
802.7931	279.0913	65535	64684.4
802.9359	281.3061	65535	64682.1
803.0787	283.5204	65535	64682.85
803.2215	285.7341	65535	64672.9
803.3643	287.9473	65535	64665.2
803.5071	290.16	65535	64671.45
803.6499	292.3721	65535	64678.9
803.7928	294.5837	65535	64672.4
803.9357	296.7947	65535	64679.4
804.0786	299.0052	65535	64674.65
804.2215	301.2152	65535	64670.9
804.3644	303.4246	65535	64678.25
804.5074	305.6334	65535	64676.25
804.6503	307.8418	65535	64674.4
804.7933	310.0495	65535	64672.65
804.9363	312.2568	65535	64668.2
805.0793	314.4635	65535	64671.3
805.2223	316.6696	65535	64669.35
805.3653	318.8752	65535	64659.9
805.5084	321.0802	65535	64669.7
805.6514	323.2847	65535	64666.45
805.7945	325.4887	65535	64663.7
805.9376	327.692	65535	64663.65
806.0807	329.8949	65535	64661.1
806.2238	332.0972	65535	64659.7
806.367	334.2989	65535	64656.65
806.5101	336.5001	65535	64661.45
806.6533	338.7007	65535	64660.7
806.7965	340.9008	65535	64656.35
806.9397	343.1003	65535	64654
807.0829	345.2992	65535	64654.6
807.2261	347.4976	65535	64653
807.3693	349.6955	65535	64646.3
807.5126	351.8927	65535	64649.6
807.6559	354.0895	65535	64638.75
807.7991	356.2856	65535	64648
807.9424	358.4812	65535	64648.5
808.0857	360.6763	65535	64646.2
808.2291	362.8707	65535	64643.9
808.3724	365.0646	65535	64645.3
808.5158	367.258	65535	64644.65
808.6591	369.4508	65535	64635.35
808.8025	371.643	65535	64638.9
808.9459	373.8346	65535	64635.35
809.0893	376.0257	65535	64635.75
809.2327	378.2162	65535	64638.85
809.3762	380.4062	65535	64633.45
809.5196	382.5956	65535	64635.4
809.6631	384.7844	65535	64639.15
809.8066	386.9726	65535	64636.05
809.9501	389.1603	65535	64636.65
810.0936	391.3474	65535	64596.25
810.2371	393.5339	65535	64631.45
810.3806	395.7199	65535	64638.3
810.5241	397.9052	65535	64642.1
810.6677	400.09	65535	64645.1
810.8113	402.2743	65535	64644.2
810.9548	404.4579	65535	64651.05
811.0984	406.641	65535	64644.15
811.2421	408.8235	65535	64642
811.3857	411.0054	65535	64643.3
811.5293	413.1868	65535	64636.45
811.673	415.3675	65535	64634.85
811.8166	417.5477	65535	64637.8
811.9603	419.7273	65535	64634.05
812.104	421.9064	65535	64628
812.2477	424.0848	65535	64633.6
812.3914	426.2627	65535	64631.45
812.5351	428.4399	65535	64627.1
812.6788	430.6166	65535	64626
812.8226	432.7928	65535	64623
812.9663	434.9683	65535	64629.7
813.1101	437.1432	65535	64633.2
813.2539	439.3176	65535	64633.75
813.3977	441.4914	65535	64632.95
813.5415	443.6645	65535	64630.45
813.6853	445.8371	65535	64626.1
813.8291	448.0091	65535	64633
813.973	450.1806	65535	64629.55
814.1168	452.3514	65535	64630.2
814.2607	454.5216	65535	64631.2
814.4046	456.6913	65535	64630.05
814.5485	458.8603	65535	64630.6
814.6924	461.0288	65535	64637.55
814.8363	463.1967	65535	64633.5
814.9802	465.3639	65535	64627.95
815.1241	467.5306	65535	64631.85
815.2681	469.6967	65535	64638.1
815.412	471.8622	65535	64632.35
815.556	474.0271	65535	64629.4
815.7	476.1914	65535	64620.75
815.844	478.3551	65535	64625.6
815.988	480.5182	65535	64627.75
816.132	482.6807	65535	64631.5
816.276	484.8426	65535	64639.35
816.4201	487.0039	65535	64633.8
816.5641	489.1647	65535	64626.65
816.7082	491.3248	65535	64624.2
816.8522	493.4843	65535	64634.15
816.9963	495.6432	65535	64629.6
817.1404	497.8015	65535	64620.75
817.2845	499.9592	65535	64619.75
817.4286	502.1163	65535	64617.65
817.5727	504.2728	65535	64625.4
817.7168	506.4287	65535	64631.85
817.861	508.5839	65535	64635.55
818.0051	510.7386	65535	64627.55
818.1493	512.8927	65535	64616.1
818.2935	515.0461	65535	64620.5
818.4377	517.199	65535	64622
818.5818	519.3512	65535	64619.15
818.726	521.5029	65535	64615.85
818.8703	523.6539	65535	64620.15
819.0145	525.8043	65535	64618.2
819.1587	527.9541	65535	64617.05
819.303	530.1033	65535	64620.75
819.4472	532.2519	65535	64620.75
819.5915	534.3999	65535	64617.4
819.7357	536.5472	65535	64622.2
819.88	538.694	65535	64626.2
820.0243	540.8401	65535	64616.6
820.1686	542.9856	65535	64605.8
820.3129	545.1305	65535	64607.85
820.4572	547.2748	65535	64602.05
820.6016	549.4185	65535	64596.9
820.7459	551.5615	65535	64606.75
820.8902	553.704	65535	64606.4
821.0346	555.8458	65535	64609.05
821.1789	557.987	65535	64609.35
821.3233	560.1276	65535	64607.85
821.4677	562.2675	65535	64610.85
821.6121	564.4069	65535	64606.15
821.7565	566.5456	65535	64614.35
821.9009	568.6837	65535	64615.75
822.0453	570.8212	65535	64616.35
822.1897	572.958	65535	64614.1
822.3342	575.0942	65535	64614.4
822.4786	577.2299	65535	64620.05
822.6231	579.3648	65535	64627.1
822.7675	581.4992	65535	64633.35
822.912	583.6329	65535	64633.15
823.0565	585.766	65535	64626.5
823.201	587.8985	65535	64624.85
823.3454	590.0304	65535	64590.3
823.4899	592.1616	65535	64606.85
823.6345	594.2922	65535	64606.05
823.779	596.4222	65535	64608.5
823.9235	598.5515	65535	64604.45
824.068	600.6802	65535	64604.5
824.2126	602.8083	65535	64608.25
824.3571	604.9358	65535	64606.85
824.5017	607.0626	65535	64604.2
824.6462	609.1888	65535	64597.65
824.7908	611.3144	65535	64598.25
824.9354	613.4393	65535	64600.85
825.08	615.5636	65535	64603.1
825.2246	617.6873	65535	64601.6
825.3692	619.8103	65535	64600.95
825.5138	621.9327	65535	64601.5
825.6584	624.0544	65535	64608.3
825.803	626.1756	65535	64610.1
825.9477	628.2961	65535	64604.05
826.0923	630.4159	65535	64604.15
826.237	632.5351	65535	64600.45
826.3816	634.6537	65535	64599.1
826.5263	636.7716	65535	64596.2
826.6709	638.8889	65535	64595.65
826.8156	641.0056	65535	64594.45
826.9603	643.1216	65535	64598.55
827.105	645.237	65535	64596.65
827.2497	647.3518	65535	64605.65
827.3944	649.4659	65535	64610.85
827.5391	651.5793	65535	64606.05
827.6838	653.6922	65535	64605.5
827.8285	655.8043	65535	64604.95
827.9733	657.9159	65535	64605.25
828.118	660.0268	65535	64604.35
828.2627	662.137	65535	64599.85
828.4075	664.2466	65535	64594
828.5522	666.3556	65535	64599.55
828.697	668.4639	65535	64600.95
828.8418	670.5716	65535	64606.35
828.9865	672.6786	65535	64600
829.1313	674.785	65535	64595.15
829.2761	676.8907	65535	64600.55
829.4209	678.9958	65535	64605.4
829.5657	681.1002	65535	64600.55
829.7105	683.204	65535	64594.95
829.8553	685.3072	65535	64595.1
830.0001	687.4097	65535	64594.6
830.1449	689.5115	65535	64593.95
830.2898	691.6127	65535	64604.25
830.4346	693.7132	65535	64603.25
830.5794	695.8131	65535	64575.95
830.7243	697.9123	65535	64588.8
830.8691	700.0109	65535	64591.9
831.014	702.1089	65535	64596.05
831.1588	704.2061	65535	64594.3
831.3037	706.3028	65535	64589.8
831.4486	708.3987	65535	64592.15
831.5935	710.4941	65535	64598.35
831.7383	712.5887	65535	64595.65
831.8832	714.6827	65535	64592.55
832.0281	716.7761	65535	64597.7
832.173	718.8688	65535	64598.45
832.3179	720.9608	65535	64590.1
832.4628	723.0522	65535	64585.55
832.6077	725.1429	65535	64591
832.7527	727.233	65535	64594.6
832.8976	729.3224	65535	64591.75
833.0425	731.4112	65535	64594
833.1874	733.4993	65535	64594.1
833.3324	735.5867	65535	64594.85
833.4773	737.6735	65535	64589
833.6222	739.7596	65535	64591.9
833.7672	741.845	65535	64589.75
833.9122	743.9298	65535	64592.05
834.0571	746.014	65535	64594.95
834.2021	748.0974	65535	64586.5
834.347	750.1802	65535	64591.6
834.492	752.2624	65535	64588.5
834.637	754.3439	65535	64587.6
834.782	756.4247	65535	64578.65
834.9269	758.5048	65535	64589.85
835.0719	760.5843	65535	64588.9
835.2169	762.6631	65535	64588.4
835.3619	764.7413	65535	64588.1
835.5069	766.8188	65535	64593.4
835.6519	768.8956	65535	64584.6
835.7969	770.9718	65535	64589.45
835.9419	773.0473	65535	64587.15
836.0869	775.1221	65535	64589.45
836.232	777.1962	65535	64586.95
836.377	779.2697	65530.95	64579.95
836.522	781.3426	65535	64568.35
836.667	783.4147	65535	64586.15
836.8121	785.4862	65535	64591.5
836.9571	787.557	65534.55	64584.45
837.1021	789.6271	65535	64583.1
837.2472	791.6966	65532.6	64587.1
837.3922	793.7654	65500.55	64554
837.5373	795.8335	65500.6	64555.15
837.6823	797.901	65513.9	64569.65
837.8274	799.9678	65497.8	64545.1
837.9724	802.0339	65480.85	64532.05
838.1175	804.0993	65497.9	64541.2
838.2626	806.1641	65463.95	64514.4
838.4076	808.2282	65423.85	64477.85
838.5527	810.2916	65377.9	64428.05
838.6978	812.3544	65479.15	64536.5
838.8428	814.4164	65322.95	64376.2
838.9879	816.4778	65324.5	64372
839.133	818.5385	65348.7	64400.7
839.2781	820.5986	65328.2	64377.85
839.4232	822.658	65346.2	64394.1
839.5682	824.7166	65361.95	64414.9
839.7133	826.7747	65161.25	64211.7
839.8584	828.832	65230.7	64283.15
840.0035	830.8886	65346.3	64392.55
840.1486	832.9446	65373.65	64420.4
840.2937	834.9999	65039.05	64091.5
840.4388	837.0545	65240.9	64288.6
840.5839	839.1085	65360.75	64410.55
840.729	841.1618	65285.6	64334.6
840.8741	843.2143	65047.7	64097.3
841.0192	845.2662	65037.7	64089.7
841.1643	847.3175	65135.6	64185.15
841.3095	849.368	64662.7	63712.45
841.4546	851.4179	65067.25	64117.25
841.5997	853.467	64771.75	63821.1
841.7448	855.5155	64926.6	63976.35
841.8899	857.5633	64562.65	63611.7
842.0351	859.6105	64386.5	63437.45
842.1802	861.6569	64621.05	63668.75
842.3253	863.7027	64125.65	63172.55
842.4704	865.7478	64314.85	63361.45
842.6156	867.7922	64150.2	63199.75
842.7607	869.8359	64417.7	63466.95
842.9058	871.8789	63857.3	62905.1
843.0509	873.9212	64251.7	63269.65
843.1961	875.9629	64385.25	63427
843.3412	878.0039	64288.6	63335.45
843.4863	880.0441	64109.5	63161.8
843.6315	882.0837	64087.15	63139.1
843.7766	884.1226	63979.85	63026.25
843.9218	886.1609	63874.65	62926.3
844.0669	888.1984	63493.25	62541.9
844.212	890.2352	63937.55	62985.75
844.3572	892.2714	63239.45	62279.55
844.5023	894.3069	63564.55	62610.65
844.6475	896.3416	63209.7	62257.5
844.7926	898.3757	63133.55	62181.15
844.9377	900.4091	62257.7	61303
845.0829	902.4418	63325	62368.45
845.228	904.4739	62686.85	61728.8
845.3732	906.5052	62767.35	61814
845.5183	908.5358	62369.25	61418.6
845.6635	910.5658	62050.9	61096.8
845.8086	912.595	62031.75	61078.55
845.9538	914.6236	61076.55	60123
846.0989	916.6515	62468.6	61515.05
846.2441	918.6786	61000.25	60046.8
846.3892	920.7051	61328.8	60372.5
846.5344	922.7309	61146	60190.95
846.6795	924.756	61411.7	60460.05
846.8246	926.7804	61004.3	60050.8
846.9698	928.8041	60140.4	59185.8
847.1149	930.8272	60757.95	59803.7
847.2601	932.8495	60725.05	59768.5
847.4052	934.8711	59985.45	59032.5
847.5504	936.892	59498.85	58546.95
847.6955	938.9123	59679.45	58725.4
847.8407	940.9318	59120.5	58167.75
847.9858	942.9506	58940.5	57986.4
848.131	944.9688	58963	58009.3
848.2761	946.9862	58001.15	57049.5
848.4213	949.003	58329.9	57373.25
848.5664	951.019	57524.05	56571.1
848.7115	953.0344	57722.1	56770.4
848.8567	955.0491	57638.05	56682.9
849.0018	957.063	57862.7	56909.35
849.147	959.0763	57852.2	56893.1
849.2921	961.0888	57366.75	56411.55
849.4373	963.1007	57784.55	56832.65
849.5824	965.1119	57690.5	56744.4
849.7275	967.1223	57318.55	56380.05
849.8727	969.1321	57742.15	56801.1
850.0178	971.1412	57079.2	56136.4
850.1629	973.1495	56811.2	55860.45
850.3081	975.1572	57027.75	56041.5
850.4532	977.1641	56810.85	55858.65
850.5983	979.1704	56580	55625.4
850.7435	981.1759	56598.4	55640.15
850.8886	983.1808	56231.7	55281.7
851.0337	985.1849	56331.75	55366.35
851.1788	987.1884	56503.85	55548.9
851.324	989.1911	56844.35	55893
851.4691	991.1932	56006.3	55056.85
851.6142	993.1945	56119.3	55171.35
851.7593	995.1951	56226.4	55276.5
851.9045	997.1951	55749.8	54794.1
852.0496	999.1943	55490.55	54541.55
852.1947	1001.1928	55258.4	54302.3
852.3398	1003.1906	55307.55	54360.2
852.4849	1005.1877	54771.55	53820.75
852.63	1007.1841	54402.35	53450.15
852.7751	1009.1798	54255.65	53308.6
852.9202	1011.1748	53910.05	52962.6
853.0653	1013.1691	53668.95	52719.4
853.2104	1015.1627	52851.9	51899.35
853.3555	1017.1556	52599.2	51651.75
853.5006	1019.1477	52490.9	51543.25
853.6457	1021.1392	52059.2	51115.5
853.7908	1023.1299	51655.9	50714.5
853.9359	1025.12	51662.4	50727.15
854.081	1027.1093	51365.2	50438.2
854.2261	1029.0979	51310.65	50386.15
854.3712	1031.0859	51207.85	50275.65
854.5163	1033.0731	50790.2	49854.15
854.6613	1035.0596	50713.45	49770.55
854.8064	1037.0454	50340.7	49397.8
854.9515	1039.0304	49995.7	49049.2
855.0965	1041.0148	49647	48699.15
855.2416	1042.9985	49440.65	48490.85
855.3867	1044.9814	49409.35	48462.3
855.5317	1046.9636	49131.15	48181
855.6768	1048.9452	48902.75	47958.55
855.8219	1050.926	48780.65	47834.7
855.9669	1052.9061	48641.55	47694.25
856.112	1054.8855	48523.8	47574.6
856.257	1056.8642	48326.6	47378.95
856.4021	1058.8421	48258.6	47306.75
856.5471	1060.8194	48130.65	47178.9
856.6921	1062.7959	48034.15	47085.8
856.8372	1064.7717	47912.1	46957.75
856.9822	1066.7469	47737	46786.9
857.1272	1068.7213	47576.05	46624.95
857.2723	1070.695	47447.75	46499.6
857.4173	1072.6679	47117.4	46172.85
857.5623	1074.6402	47011.4	46062.6
857.7073	1076.6117	46928.65	45972.45
857.8523	1078.5826	46823.85	45872.95
857.9973	1080.5527	46741.65	45792.75
858.1423	1082.5221	46732.05	45782.3
858.2873	1084.4908	46844.5	45896.9
858.4323	1086.4587	46967.05	46018.9
858.5773	1088.426	47007.65	46062.25
858.7223	1090.3925	46757.2	45801.6
858.8673	1092.3584	46621.05	45675.5
859.0123	1094.3235	46163.2	45217.3
859.1573	1096.2879	45964.6	45013.45
859.3022	1098.2515	45788.55	44840.7
859.4472	1100.2145	45710.35	44762.55
859.5922	1102.1767	45581.05	44631.6
859.7371	1104.1382	45585.8	44639.25
859.8821	1106.099	45760.65	44812.4
860.027	1108.0591	45732.85	44789.7
860.172	1110.0185	45709.5	44763.85
860.3169	1111.9771	45663.85	44718.1
860.4619	1113.9351	45189.95	44242.6
860.6068	1115.8923	44684.8	43740.9
860.7517	1117.8488	44282.35	43333.3
860.8967	1119.8045	43726.55	42779.85
861.0416	1121.7596	43542.8	42596.1
861.1865	1123.7139	43279.05	42333.2
861.3314	1125.6675	43189.25	42245.1
861.4763	1127.6204	43279.15	42334.85
861.6212	1129.5726	43053.9	42106.55
861.7661	1131.524	43059.7	42114.8
861.911	1133.4748	43020.35	42076.9
862.0559	1135.4248	42876.05	41929.9
862.2008	1137.3741	42830.7	41886.35
862.3457	1139.3226	42696.4	41748.55
862.4905	1141.2705	42660.55	41715
862.6354	1143.2176	42281.25	41329.3
862.7803	1145.164	42223.05	41277.5
862.9251	1147.1097	42167.8	41221
863.07	1149.0546	42118	41168.95
863.2148	1150.9989	41966.85	41018.2
863.3597	1152.9424	41731.85	40783.15
863.5045	1154.8852	41417.6	40471.25
863.6493	1156.8272	41228.5	40283.35
863.7942	1158.7686	41046.55	40093.95
863.939	1160.7092	40804.25	39856.1
864.0838	1162.6491	40627.8	39682.65
864.2286	1164.5883	40637.65	39693.7
864.3734	1166.5267	40603.4	39658.8
864.5182	1168.4644	40646.7	39700.3
864.663	1170.4014	40732.35	39782.25
864.8078	1172.3377	40929.15	39986.95
864.9526	1174.2732	41021.35	40078.5
865.0974	1176.2081	41169.85	40226.6
865.2421	1178.1421	41217.3	40269.15
865.3869	1180.0755	41323.55	40380.2
865.5317	1182.0082	41078.45	40137
865.6764	1183.9401	40943	39999.9
865.8212	1185.8713	40634.95	39694.4
865.9659	1187.8017	40316.85	39384.45
866.1106	1189.7315	39961.6	39034
866.2554	1191.6605	39442.85	38515.6
866.4001	1193.5888	39156.9	38220
866.5448	1195.5163	38976.3	38041.4
866.6895	1197.4432	38726.8	37786.75
866.8342	1199.3693	38531.8	37590.7
866.9789	1201.2947	38325.25	37375.2
867.1236	1203.2193	38138.35	37197.2
867.2683	1205.1432	38128.85	37187.7
867.413	1207.0664	38002.3	37061.85
867.5576	1208.9889	37940	36996.05
867.7023	1210.9106	37909.45	36967.1
867.847	1212.8316	37846.95	36907.4
867.9916	1214.7519	37844.6	36898.15
868.1363	1216.6715	37695	36756.4
868.2809	1218.5903	37620.75	36682.25
868.4255	1220.5084	37449.15	36506.2
868.5701	1222.4257	37389.6	36446.55
868.7148	1224.3424	37040.75	36103.1
868.8594	1226.2583	37059.5	36117.2
869.004	1228.1735	37086.8	36146.5
869.1486	1230.0879	36989.25	36050.1
869.2932	1232.0016	37039.65	36101.15
869.4377	1233.9146	36948.35	36004.9
869.5823	1235.8269	36748.95	35808.25
869.7269	1237.7384	36556.1	35617.05
869.8715	1239.6492	36204.45	35266.7
870.016	1241.5592	36034.45	35092.6
870.1606	1243.4686	35819.1	34880.25
870.3051	1245.3772	35613.05	34673
870.4496	1247.285	35480.5	34540.85
870.5941	1249.1922	35259.9	34320.6
870.7387	1251.0986	35210.4	34269.35
870.8832	1253.0042	35081.25	34140.9
871.0277	1254.9092	35097.65	34157.75
871.1722	1256.8134	35087.55	34151.85
871.3167	1258.7169	35160.6	34217.1
871.4611	1260.6196	35201.35	34265.65
871.6056	1262.5216	35333.6	34396.1
871.7501	1264.4229	35341	34401.5
871.8945	1266.3234	35422.2	34484.5
872.039	1268.2232	35402.9	34464.15
872.1834	1270.1223	35276.25	34336.85
872.3278	1272.0207	35162.1	34221.65
872.4723	1273.9183	35051.7	34105.2
872.6167	1275.8151	34901.6	33966.4
872.7611	1277.7113	34717.4	33779.8
872.9055	1279.6067	34471.8	33534.25
873.0499	1281.5014	34178.45	33237.8
873.1943	1283.3953	33945.25	33004.8
873.3386	1285.2885	33781.1	32845.5
873.483	1287.181	33615.35	32677.65
873.6274	1289.0727	33604.8	32670.4
873.7717	1290.9637	33517.95	32580.65
873.9161	1292.854	33596	32656.95
874.0604	1294.7435	33666.55	32731.75
874.2047	1296.6323	33794.7	32854.9
874.349	1298.5204	34003.75	33062
874.4933	1300.4077	34164.35	33227.1
874.6376	1302.2943	34307	33372.1
874.7819	1304.1802	34420.8	33481.65
874.9262	1306.0653	34263.35	33325.35
875.0705	1307.9497	34037.7	33102.6
875.2147	1309.8333	33903.1	32966.2
875.359	1311.7162	33827	32889.3
875.5032	1313.5984	33890.1	32951.3
875.6475	1315.4798	33906.05	32957.7
875.7917	1317.3605	33975.1	33019.75
875.9359	1319.2405	34141.85	33201.7
876.0801	1321.1197	34103.1	33165.95
876.2243	1322.9982	33936.4	32996
876.3685	1324.876	33994.85	33058.8
876.5127	1326.753	33802.65	32867.15
876.6569	1328.6293	33846.3	32907.05
876.801	1330.5048	33881.75	32938.15
876.9452	1332.3796	33694.3	32754.85
877.0893	1334.2537	33683.1	32720.1
877.2335	1336.127	33509.95	32572.5
877.3776	1337.9996	33396.15	32460.35
877.5217	1339.8714	33329.85	32392.8
877.6658	1341.7426	33172.85	32194.9
877.8099	1343.6129	33016.45	32079
877.954	1345.4826	32852.6	31914.65
878.0981	1347.3515	32779.35	31839.5
878.2422	1349.2196	32603	31665.25
878.3862	1351.087	32569.85	31633.8
878.5303	1352.9537	32545.25	31606.25
878.6743	1354.8197	32621.85	31680.1
878.8184	1356.6849	32776.1	31838.2
878.9624	1358.5493	32760.4	31822.65
879.1064	1360.4131	32681.1	31746.9
879.2504	1362.276	32511.65	31576
879.3944	1364.1383	32227.6	31293.9
879.5384	1365.9998	31963.95	31019.45
879.6823	1367.8606	31613.45	30674.25
879.8263	1369.7206	31254.5	30315.6
879.9702	1371.5799	31010.05	30069.45
880.1142	1373.4384	30832	29895.15
880.2581	1375.2962	30710	29772.7
880.402	1377.1533	30335.1	29400.2
880.5459	1379.0096	29930.85	28996.7
880.6898	1380.8652	29563.4	28629.7
880.8337	1382.7201	29253.85	28321.25
880.9776	1384.5742	28947.75	28009.75
881.1215	1386.4275	28640.25	27701.4
881.2653	1388.2802	28455.2	27518.8
881.4092	1390.132	28286.25	27350.15
881.553	1391.9832	28209.3	27268.85
881.6968	1393.8336	27951.15	27010.35
881.8406	1395.6832	27860.55	26925.25
881.9844	1397.5322	27716.5	26778.35
882.1282	1399.3803	27656.6	26716.35
882.272	1401.2278	27504.8	26569.7
882.4158	1403.0745	27403.65	26469.75
882.5595	1404.9204	27261.4	26329.45
882.7033	1406.7656	27266.6	26331.55
882.847	1408.6101	27118.1	26182.8
882.9908	1410.4538	27021.65	26087.95
883.1345	1412.2968	27042.35	26104.35
883.2782	1414.139	26981.4	26045.85
883.4219	1415.9805	27007.9	26074.65
883.5656	1417.8213	26944.85	25992.7
883.7092	1419.6613	27022	26090.1
883.8529	1421.5006	27168.25	26234.9
883.9965	1423.3391	27344.45	26411.2
884.1402	1425.1769	27592.35	26657.15
884.2838	1427.0139	28074.35	27140.75
884.4274	1428.8502	28599.25	27665.75
884.571	1430.6858	29127.75	28192.6
884.7146	1432.5206	29486.05	28556.2
884.8582	1434.3547	29795.15	28861.05
885.0018	1436.188	29762.9	28831
885.1453	1438.0206	29627.3	28696.7
885.2889	1439.8524	29435.35	28502.35
885.4324	1441.6835	29312.35	28381.95
885.5759	1443.5139	29157	28222.9
885.7194	1445.3435	28972.5	28040.2
885.8629	1447.1724	28952.65	28023.7
886.0064	1449.0005	28765.7	27836
886.1499	1450.8279	28612.1	27681.35
886.2933	1452.6545	28515	27585.6
886.4368	1454.4804	28506	27577.35
886.5802	1456.3056	28434.55	27496.8
886.7237	1458.13	28273.85	27340.95
886.8671	1459.9536	28077.35	27146.6
887.0105	1461.7766	27654.35	26721.9
887.1539	1463.5987	27159.1	26228.5
887.2972	1465.4202	26709.7	25778.95
887.4406	1467.2409	26251.65	25320.7
887.584	1469.0608	25970.25	25037.75
887.7273	1470.88	25669.9	24739.15
887.8706	1472.6984	25428.4	24502.2
888.0139	1474.5161	25104.35	24169.6
888.1572	1476.3331	24866.6	23934.1
888.3005	1478.1493	24704.55	23772.65
888.4438	1479.9648	24568.8	23638.05
888.5871	1481.7795	24411.15	23481.65
888.7303	1483.5935	24311.5	23380.9
888.8736	1485.4067	24201.35	23270.4
889.0168	1487.2192	24182.2	23251.7
889.16	1489.031	24091.55	23159.7
889.3032	1490.842	24012.2	23083.1
889.4464	1492.6522	23929.3	22997.7
889.5896	1494.4618	23834.65	22900.55
889.7327	1496.2705	23781.85	22851.4
889.8759	1498.0785	23737.65	22807.4
890.019	1499.8858	23581.6	22652.25
890.1622	1501.6924	23535.65	22605.9
890.3053	1503.4981	23514.9	22587.55
890.4484	1505.3032	23471.7	22542.9
890.5914	1507.1075	23364.65	22433.35
890.7345	1508.911	23301.4	22372.3
890.8776	1510.7138	23227.55	22299.1
891.0206	1512.5159	23113.55	22182
891.1637	1514.3172	23017.65	22088.55
891.3067	1516.1178	22908.75	21981.2
891.4497	1517.9176	22848.5	21915.65
891.5927	1519.7166	22752.75	21825.35
891.7357	1521.515	22702.1	21768.95
891.8786	1523.3126	22600.2	21668.8
892.0216	1525.1094	22533.35	21603.75
892.1645	1526.9055	22436.55	21510.1
892.3074	1528.7008	22351.05	21425.65
892.4503	1530.4954	22225.2	21294.85
892.5932	1532.2893	22211.35	21287.65
892.7361	1534.0824	22073.8	21142.35
892.879	1535.8747	22021.15	21098.25
893.0218	1537.6663	21975	21050.4
893.1647	1539.4572	21865.75	20938.8
893.3075	1541.2473	21792.3	20869.05
893.4503	1543.0367	21738.65	20815
893.5931	1544.8253	21645.7	20717.3
893.7359	1546.6132	21640.1	20710.45
893.8787	1548.4003	21521.15	20585.4
894.0214	1550.1867	21513.9	20582.55
894.1642	1551.9723	21466	20540.3
894.3069	1553.7572	21431.35	20508.55
894.4496	1555.5414	21406.3	20485.75
894.5923	1557.3247	21373.7	20451.75
894.735	1559.1074	21344.55	20430.2
894.8777	1560.8893	21363.8	20445.85
895.0204	1562.6705	21300.9	20381.85
895.163	1564.4509	21337.5	20418.65
895.3056	1566.2305	21316.55	20402.45
895.4482	1568.0094	21441.2	20525.85
895.5908	1569.7876	21464	20548
895.7334	1571.565	21506.7	20586.6
895.876	1573.3417	21541.75	20623
896.0186	1575.1176	21516.8	20599.45
896.1611	1576.8928	21439.05	20526
896.3036	1578.6672	21259	20349.35
896.4461	1580.4409	21113.8	20204.1
896.5886	1582.2138	20965.3	20050.2
896.7311	1583.986	20760.65	19846.05
896.8736	1585.7575	20621.05	19706
897.0161	1587.5282	20455.3	19543.4
897.1585	1589.2981	20391.15	19482.45
897.3009	1591.0673	20250	19340.6
897.4433	1592.8358	20215.8	19303.5
897.5857	1594.6035	20149.05	19231.55
897.7281	1596.3704	20055.75	19141.6
897.8705	1598.1366	20001.2	19090
898.0128	1599.9021	19999.75	19088.1
898.1551	1601.6668	19913.95	18998.75
898.2975	1603.4308	19931.95	19019.05
898.4398	1605.194	19976.45	19057.25
898.5821	1606.9564	19969.9	19063.45
898.7243	1608.7182	20013.7	19110.4
898.8666	1610.4791	20099.05	19199.25
899.0088	1612.2394	20194.55	19294.6
899.1511	1613.9988	20319.3	19418.3
899.2933	1615.7576	20513.65	19606.15
899.4355	1617.5156	20724.5	19805.15
899.5776	1619.2728	20956.15	20041.5
899.7198	1621.0293	21084.4	20170.75
899.862	1622.785	21154.5	20246.65
900.0041	1624.54	21036.05	20131.25
900.1462	1626.2942	20807.9	19898.8
900.2883	1628.0477	20510.9	19601.5
900.4304	1629.8005	20207.05	19298.05
900.5725	1631.5525	19895.8	18989.9
900.7145	1633.3037	19669.45	18764.55
900.8566	1635.0542	19457.7	18552.1
900.9986	1636.804	19217.55	18311.65
901.1406	1638.553	19165.75	18191.8
901.2826	1640.3013	19020.65	18114.05
901.4245	1642.0488	18903.45	17994.2
901.5665	1643.7955	18843.75	17937.35
901.7085	1645.5416	18804.5	17900.85
901.8504	1647.2868	18869.2	17965
901.9923	1649.0313	18852.9	17947.25
902.1342	1650.7751	18927.25	18018.05
902.2761	1652.5181	19036.15	18133.85
902.4179	1654.2604	19236.8	18331.4
902.5598	1656.0019	19505.3	18601.35
902.7016	1657.7427	19806.45	18900.9
902.8434	1659.4828	20183.3	19274.8
902.9852	1661.222	20391.05	19482.3
903.127	1662.9606	20439.6	19531.55
903.2687	1664.6984	20259.1	19346.9
903.4105	1666.4354	19921.9	19011.8
903.5522	1668.1717	19467.1	18553.85
903.6939	1669.9072	18927.3	18015.1
903.8356	1671.642	18517.9	17605.9
903.9773	1673.3761	18222.9	17313.7
904.119	1675.1094	17913.45	17006.55
904.2606	1676.8419	17682.95	16774.9
904.4022	1678.5737	17480.1	16572.95
904.5439	1680.3048	17399.55	16491.25
904.6855	1682.0351	17219.95	16310.45
904.827	1683.7646	17099.15	16189.55
904.9686	1685.4934	16986.9	16078.3
905.1101	1687.2215	16868.7	15961.5
905.2517	1688.9488	16791.55	15886.85
905.3932	1690.6754	16710.6	15805.3
905.5347	1692.4012	16661.3	15754.7
905.6761	1694.1263	16584.9	15675.65
905.8176	1695.8506	16538.85	15633.2
905.9591	1697.5742	16499.95	15596.25
906.1005	1699.297	16415.2	15512.55
906.2419	1701.0191	16294.95	15395.85
906.3833	1702.7404	16263.65	15359.95
906.5246	1704.461	16168.05	15262
906.666	1706.1808	16081.05	15176.95
906.8073	1707.8999	16014.05	15109.15
906.9487	1709.6182	15955.8	15054.6
907.09	1711.3358	15907.75	15011
907.2313	1713.0527	15851.6	14955.75
907.3725	1714.7688	15815.5	14911.4
907.5138	1716.4841	15751	14845.95
907.655	1718.1987	15717.15	14810.3
907.7962	1719.9126	15646.8	14747.25
907.9374	1721.6257	15585.45	14685.2
908.0786	1723.338	15533.15	14634.8
908.2198	1725.0496	15429.95	14526.35
908.3609	1726.7605	15409.6	14509.3
908.502	1728.4706	15364.1	14463.65
908.6431	1730.18	15231	14330.45
908.7842	1731.8886	15212.75	14316.15
908.9253	1733.5964	15188.25	14270.7
909.0664	1735.3036	15141.95	14241.45
909.2074	1737.0099	15126.7	14226.9
909.3484	1738.7156	15080.8	14182.55
909.4894	1740.4204	15009.3	14106.2
909.6304	1742.1246	14974.05	14074.45
909.7714	1743.8279	14929.45	14034.05
909.9123	1745.5306	14923.9	14029.2
910.0532	1747.2325	14876.05	13978.8
910.1941	1748.9336	14813.65	13914.85
910.335	1750.634	14737.25	13834.85
910.4759	1752.3336	14736.5	13838.6
910.6168	1754.0325	14689.65	13795.6
910.7576	1755.7307	14665.4	13768.55
910.8984	1757.4281	14643.6	13746.9
911.0392	1759.1247	14629.65	13719.55
911.18	1760.8206	14574.05	13670.7
911.3208	1762.5158	14545	13641.5
911.4615	1764.2102	14460.05	13559.35
911.6022	1765.9039	14426	13528
911.7429	1767.5968	14388.7	13491.75
911.8836	1769.289	14347.9	13452.7
912.0243	1770.9804	14349.95	13453.9
912.1649	1772.6711	14297.6	13398.35
912.3056	1774.361	14267.25	13365.1
912.4462	1776.0502	14237.9	13338.9
912.5868	1777.7386	14191.7	13290.45
912.7274	1779.4263	14104.6	13206.85
912.8679	1781.1132	14103.65	13205.3
913.0084	1782.7994	14030.95	13134.85
913.149	1784.4849	14013.15	13118.7
913.2895	1786.1696	13999.3	13096.85
913.4299	1787.8535	13943.55	13050.55
913.5704	1789.5367	13900.65	13007.8
913.7108	1791.2192	13873.55	12978.5
913.8513	1792.9009	13868.2	12945.55
913.9917	1794.5818	13824.35	12924.55
914.132	1796.2621	13800.15	12905.95
914.2724	1797.9415	13746.65	12847.5
914.4128	1799.6202	13693.25	12794.35
914.5531	1801.2982	13636.3	12738.8
914.6934	1802.9755	13636.4	12737.55
914.8337	1804.6519	13584.85	12688
914.9739	1806.3277	13560.5	12663.95
915.1142	1808.0027	13501.4	12607.25
915.2544	1809.6769	13498.1	12606.7
915.3946	1811.3504	13426.8	12532.55
915.5348	1813.0231	13396.65	12503
915.675	1814.6951	13373.95	12477.9
915.8151	1816.3664	13384.45	12484.4
915.9553	1818.0369	13343.4	12445.85
916.0954	1819.7067	13295.35	12401.05
916.2355	1821.3757	13255.95	12357.3
916.3755	1823.044	13237.15	12339.4
916.5156	1824.7115	13218.4	12320.65
916.6556	1826.3783	13164.7	12270.65
916.7956	1828.0443	13143.95	12247.75
916.9356	1829.7096	13096	12198.05
917.0756	1831.3741	13085.2	12184.9
917.2155	1833.0379	13045.6	12152.35
917.3555	1834.701	12986.95	12091.85
917.4954	1836.3633	12942.45	12047.65
917.6353	1838.0248	12911.95	12015.45
917.7751	1839.6856	12916.45	12021.85
917.915	1841.3457	12889.55	11993.15
918.0548	1843.005	12864.65	11966.65
918.1946	1844.6636	12834.1	11938.1
918.3344	1846.3214	12802.7	11907.05
918.4742	1847.9785	12773.65	11878.15
918.6139	1849.6349	12739.35	11841.1
918.7537	1851.2904	12736.2	11829.65
918.8934	1852.9453	12696.05	11797.45
919.0331	1854.5994	12629.95	11730.9
919.1727	1856.2528	12652.75	11750.65
919.3124	1857.9054	12603.05	11704.75
919.452	1859.5572	12591.45	11698
919.5916	1861.2083	12557.9	11660.7
919.7312	1862.8587	12542.05	11646.15
919.8708	1864.5084	12506.75	11608.4
920.0103	1866.1572	12454.2	11554.9
920.1498	1867.8054	12418.95	11519.95
920.2893	1869.4528	12412.2	11512.75
920.4288	1871.0994	12368	11468.25
920.5683	1872.7453	12347.85	11450.85
920.7077	1874.3905	12357.15	11443
920.8471	1876.0349	12287.4	11389.55
920.9865	1877.6786	12270.6	11372.8
921.1259	1879.3215	12272.15	11374.6
921.2653	1880.9637	12209.3	11312.2
921.4046	1882.6051	12179.2	11282.7
921.5439	1884.2458	12189.65	11293.2
921.6832	1885.8858	12106.6	11210.75
921.8225	1887.525	12097.8	11201.35
921.9617	1889.1634	12042.1	11146.85
922.101	1890.8011	11971.4	11072.35
922.2402	1892.4381	11954.1	11057.75
922.3794	1894.0743	11957.65	11063.25
922.5185	1895.7098	11895.8	10998
922.6577	1897.3446	11900.75	11003.9
922.7968	1898.9786	11851.9	10949.9
922.9359	1900.6118	11820.65	10926.1
923.075	1902.2443	11778.75	10879.35
923.214	1903.8761	11758.75	10863.2
923.3531	1905.5071	11697.3	10800.1
923.4921	1907.1374	11657.25	10761.3
923.6311	1908.7669	11663.5	10768.5
923.77	1910.3957	11613.95	10719.5
923.909	1912.0237	11556.05	10661.45
924.0479	1913.651	11550.5	10655.85
924.1868	1915.2776	11491.25	10595.45
924.3257	1916.9034	11436	10540.7
924.4646	1918.5285	11403.45	10510
924.6034	1920.1528	11366.6	10470.85
924.7422	1921.7764	11363.05	10468.6
924.881	1923.3992	11323.3	10428.15
925.0198	1925.0213	11237.8	10342.5
925.1586	1926.6427	11183.5	10292.35
925.2973	1928.2633	11237.6	10273.25
925.436	1929.8832	11142.65	10247.25
925.5747	1931.5023	11078.35	10182.6
925.7134	1933.1207	11067.2	10170.95
925.852	1934.7383	11047.35	10150.9
925.9906	1936.3552	10998.15	10105.85
926.1292	1937.9714	10982.85	10089
926.2678	1939.5868	10907.45	10011.95
926.4064	1941.2015	10851.15	9955.8
926.5449	1942.8154	10827.65	9931
926.6834	1944.4286	10789.9	9895
926.8219	1946.041	10778.4	9861.55
926.9604	1947.6528	10707.9	9808.4
927.0988	1949.2637	10664.9	9772
927.2372	1950.8739	10647.65	9754.4
927.3756	1952.4834	10631.05	9737.2
927.514	1954.0921	10585.5	9691.75
927.6523	1955.7001	10577.65	9678.85
927.7907	1957.3074	10523.45	9632.05
927.929	1958.9139	10451.25	9561.1
928.0673	1960.5197	10439.1	9546.5
928.2055	1962.1247	10404.95	9514.55
928.3438	1963.729	10352.5	9461.8
928.482	1965.3325	10355.45	9440.25
928.6202	1966.9353	10305.1	9415.1
928.7584	1968.5374	10277.45	9384.6
928.8965	1970.1387	10220.55	9327.25
929.0346	1971.7393	10205.6	9313.35
929.1727	1973.3392	10159.15	9267.45
929.3108	1974.9383	10134.15	9244.8
929.4489	1976.5366	10084.95	9195.65
929.5869	1978.1342	10075.15	9184.9
929.7249	1979.7311	10060.1	9169
929.8629	1981.3273	10006.65	9116.95
930.0009	1982.9227	9976.85	9085.9
930.1388	1984.5173	9927.5	9037.2
930.2767	1986.1112	9881.05	8993
930.4146	1987.7044	9880.55	8992.45
930.5525	1989.2968	9831.05	8940.7
930.6904	1990.8885	9797	8905.9
930.8282	1992.4795	9785.05	8895.1
930.966	1994.0697	9761.7	8873.25
931.1038	1995.6592	9734.65	8846.7
931.2415	1997.2479	9704.3	8812.75
931.3793	1998.8359	9679.35	8792.6
931.517	2000.4232	9630.9	8745.4
931.6547	2002.0097	9616.15	8731.8
931.7923	2003.5955	9555.7	8669.7
931.93	2005.1805	9579.55	8691.6
932.0676	2006.7648	9544.6	8657.3
932.2052	2008.3484	9501.4	8612.15
932.3427	2009.9312	9518.7	8631.15
932.4803	2011.5133	9457.95	8574.5
932.6178	2013.0946	9433	8548.4
932.7553	2014.6752	9416.95	8530.4
932.8928	2016.2551	9370.8	8481.7
933.0302	2017.8342	9325	8437.25
933.1676	2019.4126	9283.85	8396.4
933.305	2020.9902	9271.15	8386.25
933.4424	2022.5672	9250.45	8363.6
933.5798	2024.1433	9233.65	8345.05
933.7171	2025.7188	9220.9	8338.85
933.8544	2027.2935	9144.1	8258.2
933.9917	2028.8674	9145.1	8260.8
934.129	2030.4406	9115.2	8232.55
934.2662	2032.0131	9096.2	8212.25
934.4034	2033.5849	9063.85	8170.25
934.5406	2035.1559	9053.75	8169.75
934.6778	2036.7261	9026	8141.9
934.8149	2038.2957	9015	8127.1
934.952	2039.8645	8979.05	8091
935.0891	2041.4325	8979.6	8089.3
935.2262	2042.9998	8951.1	8064.55
935.3632	2044.5664	8944.65	8055.9
935.5002	2046.1323	8879.85	7995.8
935.6372	2047.6974	8837.5	7955.35
935.7742	2049.2617	8846.7	7962.55
935.9111	2050.8254	8858.7	7967.55
936.048	2052.3883	8803.05	7913.5
936.1849	2053.9504	8786.45	7898.3
936.3218	2055.5118	8761.45	7872.65
936.4586	2057.0725	8712.7	7820.85
936.5955	2058.6325	8691.6	7807.9
936.7323	2060.1917	8682.05	7796.4
936.869	2061.7502	8636.9	7749.3
937.0058	2063.3079	8630.95	7748.35
937.1425	2064.8649	8599.4	7710.75
937.2792	2066.4212	8578.15	7691.25
937.4159	2067.9767	8552.4	7665.3
937.5525	2069.5315	8525.75	7638.35
937.6891	2071.0856	8486	7600.5
937.8257	2072.6389	8444.7	7560.85
937.9623	2074.1915	8390.3	7508.35
938.0989	2075.7433	8352.75	7466.75
938.2354	2077.2945	8356.75	7470.3
938.3719	2078.8448	8346.6	7459.15
938.5084	2080.3945	8308.2	7418.75
938.6448	2081.9434	8310.75	7422.7
938.7812	2083.4916	8262.75	7376
938.9176	2085.039	8215.75	7321.35
939.054	2086.5857	8250.45	7358.25
939.1903	2088.1317	8206.35	7312.9
939.3267	2089.677	8180.3	7288.15
939.463	2091.2215	8152.55	7259.85
939.5992	2092.7652	8134.1	7239.65
939.7355	2094.3083	8110.95	7220.55
939.8717	2095.8506	8082.75	7192.5
940.0079	2097.3921	8095.6	7208.4
940.1441	2098.933	8062.45	7174.45
940.2802	2100.4731	8054.65	7164.3
940.4163	2102.0124	8050.25	7153.85
940.5524	2103.5511	8044.65	7155.8
940.6885	2105.089	7982.05	7093.7
940.8245	2106.6261	7973.3	7082.9
940.9606	2108.1626	7942.85	7051.65
941.0965	2109.6983	7947.4	7032.65
941.2325	2111.2332	7906.1	7015.55
941.3684	2112.7675	7868.5	6976.8
941.5044	2114.301	7859.15	6968.2
941.6403	2115.8337	7843.3	6951.95
941.7761	2117.3657	7843.4	6954.2
941.912	2118.897	7848.75	6957.9
942.0478	2120.4276	7806.9	6910.35
942.1835	2121.9575	7761.35	6869.2
942.3193	2123.4866	7780.5	6877.5
942.455	2125.0149	7740.6	6847.6
942.5907	2126.5426	7676.7	6789.95
942.7264	2128.0695	7689.5	6798.95
942.8621	2129.5956	7680.55	6796.15
942.9977	2131.1211	7649.85	6759.75
943.1333	2132.6458	7651.2	6762.65
943.2689	2134.1698	7624.95	6733.1
943.4044	2135.693	7588.65	6693.85
943.54	2137.2155	7565.75	6671
943.6755	2138.7373	7533.9	6643.55
943.8109	2140.2584	7520	6633.15
943.9464	2141.7787	7509	6617.7
944.0818	2143.2983	7477.8	6594.45
944.2172	2144.8171	7454.35	6571.7
944.3526	2146.3353	7447.75	6558.2
944.4879	2147.8527	7410.1	6523.7
944.6232	2149.3693	7413.95	6523.3
944.7585	2150.8853	7387.9	6495.75
944.8938	2152.4005	7342.95	6451.85
945.029	2153.9149	7353.5	6461.25
945.1642	2155.4287	7399.45	6395.25
945.2994	2156.9417	7333	6440.2
945.4346	2158.454	7290.75	6400.35
945.5697	2159.9655	7259.3	6372.05
945.7048	2161.4764	7256.2	6370.7
945.8399	2162.9865	7211.7	6320.65
945.9749	2164.4958	7210.05	6319
946.1099	2166.0045	7189.2	6296.25
946.2449	2167.5124	7174.9	6287.5
946.3799	2169.0195	7146.75	6258.2
946.5148	2170.526	7160.95	6270.2
946.6498	2172.0317	7116.7	6228.5
946.7846	2173.5367	7095.2	6205.05
946.9195	2175.0409	7089.4	6201.4
947.0543	2176.5445	7062.3	6172.95
947.1891	2178.0473	7034.05	6143.15
947.3239	2179.5494	6987.5	6094.35
947.4587	2181.0507	6957.8	6067.95
947.5934	2182.5513	6961.6	6070.95
947.7281	2184.0512	6944.85	6056
947.8628	2185.5504	6959.4	6068.15
947.9974	2187.0488	6898.9	6012.45
948.132	2188.5465	6867.25	5979.7
948.2666	2190.0435	6857.65	5970.4
948.4012	2191.5397	6829.75	5940.1
948.5357	2193.0353	6826.2	5933.85
948.6702	2194.5301	6814.95	5921
948.8047	2196.0241	6768.5	5873.95
948.9392	2197.5175	6746.1	5849.55
949.0736	2199.0101	6717.05	5818.85
949.208	2200.502	6699.5	5808.85
949.3424	2201.9931	6670.4	5782.05
949.4767	2203.4835	6655.7	5766.35
949.611	2204.9733	6644.25	5751.7
949.7453	2206.4622	6634.95	5749.05
949.8796	2207.9505	6610.3	5721.6
950.0138	2209.438	6582	5697.15
950.148	2210.9248	6541.65	5652.4
950.2822	2212.4109	6545.65	5655.65
950.4164	2213.8962	6511.1	5619.15
950.5505	2215.3809	6510.1	5616.45
950.6846	2216.8648	6488.1	5593.7
950.8186	2218.3479	6480.7	5581.45
950.9527	2219.8304	6441.75	5543.5
951.0867	2221.3121	6418.2	5521.75
951.2207	2222.7931	6402.55	5509.15
951.3546	2224.2733	6377.05	5485.75
951.4886	2225.7529	6334	5443.15
951.6225	2227.2317	6343.15	5450.55
951.7563	2228.7098	6305.35	5418.05
951.8902	2230.1872	6279.95	5393.4
952.024	2231.6638	6299.75	5413.4
952.1578	2233.1397	6263.4	5373.6
952.2916	2234.6149	6238.75	5350.5
952.4253	2236.0894	6220.7	5332.05
952.559	2237.5632	6233.6	5342.25
952.6927	2239.0362	6187.9	5297.5
952.8263	2240.5085	6170.5	5279.85
952.9599	2241.9801	6154.65	5263.6
953.0935	2243.4509	6151.9	5261.25
953.2271	2244.921	6127.45	5233.85
953.3606	2246.3904	6104.15	5209.5
953.4941	2247.8591	6090.5	5198.4
953.6276	2249.3271	6070.55	5178.85
953.7611	2250.7943	6034.05	5143.3
953.8945	2252.2608	6010.1	5118.9
954.0279	2253.7266	6016.3	5125.9
954.1612	2255.1917	5981.5	5089.45
954.2946	2256.656	5972.1	5080.4
954.4279	2258.1197	5950.8	5064.3
954.5612	2259.5826	5927.75	5038.5
954.6944	2261.0447	5932.05	5041.05
954.8276	2262.5062	5913.75	5021
954.9608	2263.9669	5905.45	5011.95
955.094	2265.4269	5890.45	4999.6
955.2271	2266.8862	5864.35	4975.7
955.3602	2268.3448	5848.25	4958.8
955.4933	2269.8026	5831.45	4942.85
955.6264	2271.2598	5833.45	4944.4
955.7594	2272.7162	5798.35	4909.5
955.8924	2274.1719	5786.65	4895.3
956.0253	2275.6268	5768.15	4874.9
956.1583	2277.0811	5764.35	4871.3
956.2912	2278.5346	5758.5	4868.7
956.4241	2279.9874	5718.35	4830.95
956.5569	2281.4395	5712.65	4824.45
956.6897	2282.8908	5712.65	4818.8
956.8225	2284.3414	5697.85	4805.3
956.9553	2285.7914	5670.3	4779.35
957.088	2287.2406	5653.5	4759.4
957.2207	2288.689	5651.1	4758.65
957.3534	2290.1368	5632.7	4736.8
957.486	2291.5838	5626.05	4728.2
957.6186	2293.0302	5617.15	4723.4
957.7512	2294.4758	5591.15	4698.5
957.8838	2295.9206	5555.85	4661.9
958.0163	2297.3648	5552.55	4663.95
958.1488	2298.8082	5530.25	4638.6
958.2813	2300.251	5531	4637.75
958.4137	2301.693	5508.85	4614
958.5461	2303.1343	5497.35	4605.3
958.6785	2304.5748	5477.55	4587.65
958.8108	2306.0147	5455.35	4566.7
958.9432	2307.4538	5426.5	4535.95
959.0754	2308.8922	5404.05	4516.95
959.2077	2310.3299	5409	4522.15
959.3399	2311.7669	5401.5	4511.6
959.4721	2313.2031	5376.8	4486.8
959.6043	2314.6387	5360.35	4467.9
959.7365	2316.0735	5340.85	4450.35
959.8686	2317.5076	5336.2	4444.95
960.0006	2318.941	5333.15	4441
960.1327	2320.3737	5293.1	4401
960.2647	2321.8056	5288.9	4395.1
960.3967	2323.2369	5273.35	4378.5
960.5287	2324.6674	5254.25	4362.9
960.6606	2326.0972	5244.2	4353.65
960.7925	2327.5263	5220.1	4331.6
960.9244	2328.9547	5198.65	4305.7
961.0562	2330.3823	5209.05	4315.4
961.1881	2331.8092	5203.95	4305.3
961.3198	2333.2355	5174.2	4280.35
961.4516	2334.661	5159.45	4267.75
961.5833	2336.0858	5158.65	4265.65
961.715	2337.5098	5147.35	4255.65
961.8467	2338.9332	5123.5	4230.8
961.9783	2340.3558	5113.9	4218.35
962.1099	2341.7778	5104.4	4213.35
962.2415	2343.199	5088.15	4193.75
962.373	2344.6195	5060	4169.7
962.5045	2346.0393	5043.7	4154.2
962.636	2347.4583	5059.05	4168.35
962.7675	2348.8767	5027.9	4134.8
962.8989	2350.2943	5016.75	4122.45
963.0303	2351.7113	5010.4	4114.5
963.1617	2353.1275	4999.1	4104.95
963.293	2354.543	5004.2	4086.4
963.4243	2355.9578	4960.9	4070.55
963.5556	2357.3718	4949.8	4060.85
963.6868	2358.7852	4911.8	4019.45
963.818	2360.1978	4905.3	4016
963.9492	2361.6098	4889.85	3999.7
964.0803	2363.021	4888.4	3994.65
964.2114	2364.4315	4868.85	3976.05
964.3425	2365.8413	4864.55	3968.3
964.4736	2367.2504	4824.75	3934.9
964.6046	2368.6587	4813.15	3926.2
964.7356	2370.0664	4799.95	3909.6
964.8666	2371.4733	4781	3890.05
964.9975	2372.8795	4766.05	3875.2
965.1284	2374.285	4746.25	3854.75
965.2593	2375.6899	4745.15	3857.2
965.3901	2377.0939	4717.05	3826.9
965.5209	2378.4973	4698.65	3809.35
965.6517	2379.9	4697.3	3807.6
965.7825	2381.3019	4677.5	3787.6
965.9132	2382.7032	4655.55	3768.65
966.0439	2384.1037	4651.55	3765.55
966.1745	2385.5035	4639.45	3752.4
966.3051	2386.9027	4628.25	3740.3
966.4357	2388.3011	4614.75	3721.15
966.5663	2389.6987	4591.8	3703.45
966.6968	2391.0957	4583.35	3693.95
966.8273	2392.492	4559	3671.9
966.9578	2393.8876	4535.65	3649.15
967.0882	2395.2824	4519.25	3630.8
967.2186	2396.6765	4517.15	3628.85
967.349	2398.07	4500.8	3611.3
967.4793	2399.4627	4504.9	3613.45
967.6097	2400.8547	4478.4	3586.35
967.7399	2402.246	4471.75	3577.85
967.8702	2403.6366	4451.25	3563.7
968.0004	2405.0265	4419.05	3530.95
968.1306	2406.4156	4419.2	3526.35
968.2607	2407.8041	4412.65	3521.15
968.3909	2409.1918	4393.25	3498.95
968.521	2410.5789	4386.3	3495.3
968.651	2411.9652	4366.55	3476.5
968.781	2413.3508	4342.35	3453.55
968.911	2414.7358	4328.5	3438.5
969.041	2416.12	4337.85	3447.05
969.1709	2417.5035	4329.55	3440.3
969.3008	2418.8863	4307.35	3416.7
969.4307	2420.2684	4295.5	3406.3
969.5606	2421.6497	4278	3387.6
969.6904	2423.0304	4240	3350.35
969.8201	2424.4104	4242.85	3351.85
969.9499	2425.7896	4228.45	3336.9
970.0796	2427.1682	4231.15	3343.4
970.2093	2428.546	4226.3	3334.65
970.3389	2429.9232	4203.45	3312.15
970.4685	2431.2996	4196.4	3308.8
970.5981	2432.6753	4195	3306
970.7277	2434.0503	4174	3284.15
970.8572	2435.4246	4156.5	3266.85
970.9867	2436.7982	4150.1	3256.3
971.1161	2438.1711	4134.75	3243.1
971.2456	2439.5433	4109.25	3218.1
971.375	2440.9148	4112.05	3218.35
971.5043	2442.2856	4102.2	3211.9
971.6336	2443.6557	4090.35	3198.55
971.7629	2445.025	4089.15	3201.7
971.8922	2446.3937	4066.65	3175.6
972.0214	2447.7617	4047	3154.05
972.1506	2449.1289	4041.15	3148.4
972.2798	2450.4955	4039.15	3145.5
972.4089	2451.8613	4027.25	3138.2
972.538	2453.2265	4020.25	3131.8
972.6671	2454.5909	4007	3117.6
972.7961	2455.9546	3988.9	3100.1
972.9251	2457.3177	3979.35	3088.5
973.0541	2458.68	3969.15	3077.95
973.1831	2460.0416	3971.75	3080.45
973.312	2461.4025	3971.3	3079.65
973.4408	2462.7627	3945.25	3044.8
973.5697	2464.1222	3952.8	3065.4
973.6985	2465.4811	3929.75	3041.4
973.8273	2466.8392	3919.75	3030.2
973.956	2468.1966	3909.65	3018.15
974.0847	2469.5533	3921.55	3029.55
974.2134	2470.9093	3914.05	3025.35
974.3421	2472.2645	3894.8	3004.6
974.4707	2473.6191	3882.4	2992.6
974.5993	2474.973	3874.95	2986.35
974.7278	2476.3262	3862.05	2972.1
974.8563	2477.6787	3855.6	2966.4
974.9848	2479.0305	3825.7	2936.8
975.1132	2480.3816	3818.4	2929.1
975.2417	2481.7319	3810.4	2921.2
975.37	2483.0816	3796.85	2905.3
975.4984	2484.4306	3772.35	2880.8
975.6267	2485.7789	3756.95	2869.7
975.755	2487.1264	3764.45	2874.85
975.8833	2488.4733	3754.8	2867.1
976.0115	2489.8195	3764.05	2858.1
976.1397	2491.165	3724.2	2831.95
976.2678	2492.5097	3722.95	2831.4
976.3959	2493.8538	3701.2	2812.65
976.524	2495.1972	3682.4	2792.5
976.6521	2496.5398	3682.5	2792.15
976.7801	2497.8818	3669.25	2776.7
976.9081	2499.2231	3666	2775.6
977.036	2500.5637	3655.25	2763.25
977.164	2501.9035	3650.55	2759.25
977.2918	2503.2427	3633.7	2738.05
977.4197	2504.5812	3635.7	2744.85
977.5475	2505.919	3624.05	2730.55
977.6753	2507.256	3603.4	2713.35
977.8031	2508.5924	3589.6	2699.5
977.9308	2509.9281	3575.5	2680.55
978.0585	2511.2631	3577.4	2689.1
978.1861	2512.5974	3562.3	2672
978.3137	2513.9309	3556.05	2666.65
978.4413	2515.2638	3560.35	2646.6
978.5689	2516.596	3530	2640.15
978.6964	2517.9275	3526.6	2634.85
978.8239	2519.2583	3522.25	2633.2
978.9513	2520.5884	3518.8	2627.7
979.0788	2521.9178	3495.25	2604.3
979.2062	2523.2465	3496.25	2609.5
979.3335	2524.5745	3478.45	2590.05
979.4608	2525.9018	3463.75	2572.3
979.5881	2527.2284	3463.85	2574.85
979.7154	2528.5543	3457.4	2567.35
979.8426	2529.8796	3452.05	2560.45
979.9698	2531.2041	3447.8	2558.8
980.0969	2532.5279	3429.85	2539.75
980.224	2533.851	3421.4	2531.3
980.3511	2535.1735	3417.95	2527.8
980.4781	2536.4952	3416.55	2527.25
980.6052	2537.8163	3409	2517.4
980.7321	2539.1366	3389.85	2499.7
980.8591	2540.4562	3391.8	2500.15
980.986	2541.7752	3376.15	2484.5
981.1129	2543.0935	3378.5	2487
981.2397	2544.411	3369	2477.3
981.3665	2545.7279	3380.45	2488.75
981.4933	2547.0441	3355.2	2463.85
981.62	2548.3596	3361.8	2466.95
981.7467	2549.6744	3346.25	2456.45
981.8734	2550.9885	3339.65	2448.65
982.0001	2552.3019	3317.45	2426.8
982.1267	2553.6146	3323.75	2433.05
982.2532	2554.9266	3301.3	2411.3
982.3798	2556.2379	3306	2414.35
982.5063	2557.5485	3313.8	2425.3
982.6327	2558.8585	3300.85	2403.8
982.7592	2560.1677	3293.35	2398.9
982.8856	2561.4762	3279	2388.25
983.0119	2562.7841	3279.75	2385.05
983.1383	2564.0913	3259.1	2367.25
983.2646	2565.3977	3269.1	2379.45
983.3908	2566.7035	3265.2	2375.65
983.517	2568.0086	3256.5	2362.8
983.6432	2569.313	3226.4	2332.55
983.7694	2570.6167	3225.8	2329.55
983.8955	2571.9197	3234.95	2343.8
984.0216	2573.222	3224.85	2332.25
984.1476	2574.5236	3219.05	2326.55
984.2737	2575.8246	3208.15	2314.25
984.3996	2577.1248	3210.7	2317.9
984.5256	2578.4244	3196.5	2307.6
984.6515	2579.7232	3198.45	2307.8
984.7774	2581.0214	3224.8	2302.35
984.9032	2582.3189	3190.85	2301.1
985.029	2583.6157	3191.1	2295.8
985.1548	2584.9118	3167.2	2277.05
985.2806	2586.2072	3167.45	2275.45
985.4063	2587.5019	3160.1	2269.75
985.5319	2588.7959	3158.55	2265.2
985.6576	2590.0893	3167.45	2273.4
985.7832	2591.3819	3162.25	2271.4
985.9087	2592.6739	3154.05	2263
986.0343	2593.9652	3137.4	2245.25
986.1597	2595.2557	3144.6	2253.6
986.2852	2596.5456	3126.95	2234.7
986.4106	2597.8348	3129.9	2238.6
986.536	2599.1234	3124.2	2235
986.6614	2600.4112	3117.25	2224.95
986.7867	2601.6983	3099.95	2206.9
986.912	2602.9848	3092.9	2201.5
987.0372	2604.2705	3085.95	2189.7
987.1624	2605.5556	3082.45	2193.75
987.2876	2606.84	3081.2	2192
987.4128	2608.1237	3076.6	2183.9
987.5379	2609.4067	3063.55	2171.5
987.6629	2610.689	3048.95	2149.5
987.788	2611.9707	3041.05	2147.1
987.913	2613.2516	3031.05	2135.05
988.0379	2614.5319	3022.55	2131.8
988.1629	2615.8115	3019.9	2129.65
988.2878	2617.0903	2998.35	2106.8
988.4126	2618.3685	3015.5	2124.15
988.5375	2619.6461	2983.1	2091.6
988.6622	2620.9229	2982.1	2091.3
988.787	2622.199	2980.95	2088.7
988.9117	2623.4745	2977.15	2084.95
989.0364	2624.7493	2967.2	2076.95
989.161	2626.0234	2958.8	2069.1
989.2857	2627.2968	2963.7	2073.15
989.4102	2628.5695	2944.5	2052.1
989.5348	2629.8415	2944.95	2055.15
989.6593	2631.1128	2930.55	2039.5
989.7837	2632.3835	2920.9	2029.75
989.9082	2633.6535	2913.55	2024.1
990.0326	2634.9228	2920	2030.25
990.1569	2636.1914	2889.4	1999.45
990.2812	2637.4593	2899.55	2007.05
990.4055	2638.7265	2888.2	1996.9
990.5298	2639.9931	2879.65	1990.4
990.654	2641.259	2877.2	1985.4
990.7782	2642.5242	2869.8	1978.4
990.9023	2643.7887	2855.75	1964.1
991.0264	2645.0525	2855.7	1964.5
991.1505	2646.3156	2843.85	1951.2
991.2745	2647.5781	2833.2	1943.95
991.3985	2648.8398	2831.95	1942.35
991.5225	2650.1009	2841.15	1924.95
991.6464	2651.3613	2809.05	1918.2
991.7703	2652.6211	2818.5	1928.55
991.8942	2653.8801	2815.6	1925.55
992.018	2655.1385	2801.25	1908.1
992.1418	2656.3961	2790.05	1899.25
992.2655	2657.6531	2790.45	1900.35
992.3892	2658.9094	2789.2	1898.55
992.5129	2660.1651	2782.4	1893.5
992.6366	2661.42	2781.55	1888.25
992.7602	2662.6743	2777.3	1884.9
992.8837	2663.9279	2779.5	1890.3
993.0073	2665.1808	2767.45	1875.7
993.1307	2666.433	2769.5	1878.2
993.2542	2667.6846	2771.35	1881.5
993.3776	2668.9354	2767.25	1873.75
993.501	2670.1856	2763.3	1872.35
993.6244	2671.4351	2747.45	1856.55
993.7477	2672.6839	2761.75	1869.75
993.8709	2673.9321	2756.7	1868.95
993.9942	2675.1795	2751.7	1861.8
994.1174	2676.4263	2745.25	1857.2
994.2405	2677.6724	2740.4	1849.6
994.3637	2678.9179	2735.85	1844.9
994.4868	2680.1626	2743.25	1852.4
994.6098	2681.4067	2725.2	1834.95
994.7328	2682.6501	2721.85	1831.3
994.8558	2683.8928	2719.4	1830.55
994.9788	2685.1348	2700.15	1809.1
995.1017	2686.3761	2690.1	1800.5
995.2245	2687.6168	2698.15	1810.65
995.3474	2688.8568	2683.35	1794.65
995.4702	2690.0961	2689.75	1801
995.5929	2691.3348	2668.95	1779.9
995.7156	2692.5727	2657.85	1768.95
995.8383	2693.81	2660.05	1770.1
995.961	2695.0466	2644.9	1758.9
996.0836	2696.2826	2648.8	1758.1
996.2062	2697.5178	2643.8	1752.3
996.3287	2698.7524	2633.2	1742
996.4512	2699.9863	2630.55	1738.65
996.5737	2701.2195	2620.4	1730.15
996.6961	2702.452	2629.2	1738.4
996.8185	2703.6839	2627.6	1738.05
996.9408	2704.9151	2613.6	1723.9
997.0631	2706.1456	2623.45	1735.9
997.1854	2707.3755	2608.8	1718.55
997.3077	2708.6046	2626.4	1732.2
997.4299	2709.8331	2627.45	1737.7
997.552	2711.0609	2636.3	1748.3
997.6742	2712.2881	2634.9	1743.7
997.7963	2713.5145	2639.2	1747.55
997.9183	2714.7403	2646.8	1759.1
998.0403	2715.9654	2645.75	1754.75
998.1623	2717.1899	2662.35	1757.7
998.2842	2718.4136	2658.25	1770.1
998.4062	2719.6367	2659.7	1769.65
998.528	2720.8591	2679.6	1783.5
998.6498	2722.0809	2677.1	1787.65
998.7716	2723.3019	2687.3	1794.7
998.8934	2724.5223	2677.95	1787.2
999.0151	2725.7421	2678.25	1787.8
999.1368	2726.9611	2682.9	1792.1
999.2584	2728.1795	2677.7	1786
999.38	2729.3972	2664	1775.1
999.5016	2730.6142	2646.5	1747
999.6231	2731.8306	2632.65	1740.3
999.7446	2733.0462	2611.55	1720.05
999.8661	2734.2612	2591.3	1697.9
999.9875	2735.4756	2566	1674.65
1000.1089	2736.6892	2543.55	1655.3
1000.2302	2737.9022	2525.7	1636.45
1000.3515	2739.1145	2512.8	1624.2
1000.4728	2740.3262	2495.2	1599
1000.594	2741.5372	2473.95	1585.9
1000.7152	2742.7475	2463.75	1575
1000.8363	2743.9571	2449.1	1556.55
1000.9575	2745.1661	2434.75	1540.9
1001.0785	2746.3744	2427.6	1537.7
1001.1996	2747.582	2407.85	1519.1
1001.3206	2748.7889	2401.55	1511.9
1001.4415	2749.9952	2381.85	1494
1001.5625	2751.2008	2377.35	1490.45
1001.6833	2752.4057	2365.2	1473.15
1001.8042	2753.61	2369.55	1481.2
1001.925	2754.8136	2367.5	1476.8
1002.0458	2756.0165	2350.95	1463.85
1002.1665	2757.2188	2337.6	1452.7
1002.2872	2758.4204	2339.45	1450.7
1002.4078	2759.6213	2334.3	1443.85
1002.5285	2760.8215	2331.55	1437.9
1002.649	2762.0211	2319.6	1428.75
1002.7696	2763.22	2318.15	1427.2
1002.8901	2764.4182	2312.8	1423.95
1003.0106	2765.6158	2312.5	1423.35
1003.131	2766.8127	2306.25	1419.9
1003.2514	2768.009	2299.85	1412.1
1003.3717	2769.2045	2288.85	1401.05
1003.492	2770.3994	2279.3	1388.8
1003.6123	2771.5936	2278.45	1387.7
1003.7325	2772.7872	2268.2	1379.3
1003.8527	2773.9801	2252.15	1362.85
1003.9729	2775.1723	2276.3	1372.35
1004.093	2776.3639	2256.95	1370.6
1004.2131	2777.5548	2253.35	1363.55
1004.3331	2778.745	2260.9	1372.4
1004.4531	2779.9346	2251.7	1363.9
1004.5731	2781.1235	2240.1	1354
1004.693	2782.3117	2249.35	1362.8
1004.8129	2783.4992	2246.8	1359.7
1004.9328	2784.6861	2248.45	1361.2
1005.0526	2785.8723	2253.2	1364.3
1005.1723	2787.0579	2261.65	1374.4
1005.2921	2788.2428	2261.9	1374.55
1005.4118	2789.427	2262.2	1375.7
1005.5314	2790.6106	2270.95	1383.7
1005.651	2791.7935	2277.15	1389.8
1005.7706	2792.9757	2278.5	1392.25
1005.8902	2794.1573	2296.85	1407.2
1006.0097	2795.3382	2299.55	1412.5
1006.1291	2796.5184	2318.65	1432.5
1006.2485	2797.698	2324.45	1433.15
1006.3679	2798.8769	2341.7	1453.25
1006.4873	2800.0551	2351.05	1463.75
1006.6066	2801.2327	2364.05	1474
1006.7258	2802.4096	2387.25	1500
1006.8451	2803.5859	2396.45	1507.5
1006.9642	2804.7615	2417.45	1526.75
1007.0834	2805.9364	2443.65	1559.05
1007.2025	2807.1106	2466.75	1580
1007.3216	2808.2842	2493.7	1605.6
1007.4406	2809.4572	2530.2	1641.8
1007.5596	2810.6294	2565.2	1676.2
1007.6785	2811.801	2612.95	1728.9
1007.7975	2812.972	2648.65	1763.3
1007.9163	2814.1423	2676.25	1790.05
1008.0352	2815.3119	2720.75	1835.85
1008.154	2816.4808	2770.3	1883.7
1008.2727	2817.6491	2817.95	1928.85
1008.3914	2818.8167	2862.75	1975.8
1008.5101	2819.9837	2912.8	2020.65
1008.6288	2821.15	2955.35	2068.55
1008.7474	2822.3157	2999.1	2115.05
1008.8659	2823.4807	3038.15	2150
1008.9844	2824.645	3102.25	2214.2
1009.1029	2825.8086	3132.65	2246.85
1009.2214	2826.9716	3154.05	2268.95
1009.3398	2828.134	3216.25	2329.4
1009.4581	2829.2957	3241.8	2354.05
1009.5764	2830.4567	3258.55	2373.1
1009.6947	2831.617	3268.8	2380.6
1009.813	2832.7767	3295.15	2409.3
1009.9312	2833.9358	3289.1	2400.65
1010.0493	2835.0941	3277.05	2390.35
1010.1675	2836.2519	3260.45	2373.95
1010.2855	2837.4089	3259.1	2370.6
1010.4036	2838.5653	3243.85	2359.15
1010.5216	2839.7211	3251.2	2365.85
1010.6396	2840.8761	3253.6	2366.4
1010.7575	2842.0306	3282.75	2396.3
1010.8754	2843.1843	3312.55	2426.25
1010.9932	2844.3374	3356.3	2468.6
1011.111	2845.4899	3419.85	2532.15
1011.2288	2846.6417	3495.45	2608.95
1011.3465	2847.7928	3559.85	2672.5
1011.4642	2848.9433	3641.45	2756.2
1011.5818	2850.0931	3714.95	2828.7
1011.6995	2851.2422	3798.6	2910.8
1011.817	2852.3907	3883.8	2997.2
1011.9345	2853.5385	3933.3	3045.4
1012.052	2854.6857	3993.35	3099
1012.1695	2855.8323	4046.55	3161.65
1012.2869	2856.9781	4090.15	3204.45
1012.4042	2858.1233	4142.75	3256.6
1012.5216	2859.2679	4184.8	3297.55
1012.6389	2860.4118	4229.05	3343.8
1012.7561	2861.555	4272.4	3380.3
1012.8733	2862.6976	4314.4	3426.15
1012.9905	2863.8395	4324.8	3439.9
1013.1076	2864.9808	4352.8	3466.7
1013.2247	2866.1214	4355.75	3472.6
1013.3417	2867.2614	4381.15	3495.2
1013.4587	2868.4007	4389.55	3502.85
1013.5757	2869.5393	4394.95	3508.9
1013.6926	2870.6773	4408.7	3519.75
1013.8095	2871.8146	4424	3534.25
1013.9263	2872.9513	4422.35	3532.95
1014.0431	2874.0874	4400.25	3514
1014.1599	2875.2227	4402.85	3515.8
1014.2766	2876.3574	4371.3	3484.3
1014.3933	2877.4915	4346.85	3462.2
1014.51	2878.6249	4300.15	3414.95
1014.6266	2879.7577	4281.25	3394.15
1014.7431	2880.8898	4275.85	3378.45
1014.8596	2882.0212	4237.85	3351.95
1014.9761	2883.152	4245.75	3359.65
1015.0925	2884.2821	4221.15	3336.2
1015.2089	2885.4116	4206.45	3321
1015.3253	2886.5405	4222.55	3335.15
1015.4416	2887.6686	4215.8	3328.2
1015.5579	2888.7962	4198.4	3313.35
1015.6741	2889.923	4215.25	3331.4
1015.7903	2891.0493	4214.75	3329.75
1015.9065	2892.1748	4237.75	3352
1016.0226	2893.2997	4240.25	3352.85
1016.1387	2894.424	4250.35	3364.05
1016.2547	2895.5476	4266.05	3381.75
1016.3707	2896.6706	4292.5	3410.2
1016.4866	2897.7929	4305.65	3419.3
1016.6025	2898.9145	4341.3	3457.15
1016.7184	2900.0355	4377.8	3490.65
1016.8342	2901.1559	4392.6	3506.15
1016.95	2902.2756	4421.6	3537.35
1017.0658	2903.3946	4474.1	3590.55
1017.1815	2904.513	4485.15	3597
1017.2971	2905.6308	4501.05	3616.3
1017.4127	2906.7479	4535.25	3649.2
1017.5283	2907.8643	4565.5	3679.5
1017.6439	2908.9801	4555.95	3670.9
1017.7594	2910.0953	4570.55	3684
1017.8748	2911.2098	4582.75	3693.75
1017.9902	2912.3236	4564.95	3671.45
1018.1056	2913.4368	4558.15	3671.6
1018.2209	2914.5494	4523.75	3638.65
1018.3362	2915.6613	4513.45	3623.35
1018.4515	2916.7725	4484.7	3597.85
1018.5667	2917.8831	4438	3551.4
1018.6819	2918.9931	4408.2	3520.25
1018.797	2920.1024	4375.45	3487.3
1018.9121	2921.211	4352.95	3466.6
1019.0271	2922.319	4339	3453.2
1019.1421	2923.4264	4314.45	3430.05
1019.2571	2924.5331	4296.65	3412.7
1019.372	2925.6391	4273.3	3388.25
1019.4869	2926.7445	4270.5	3388.1
1019.6017	2927.8493	4253.55	3370.05
1019.7165	2928.9534	4244.45	3357.95
1019.8313	2930.0569	4236.75	3349.95
1019.946	2931.1597	4228.65	3340.85
1020.0606	2932.2619	4213.95	3328.7
1020.1753	2933.3634	4208.05	3323.3
1020.2899	2934.4643	4191.4	3298.8
1020.4044	2935.5645	4183.4	3289.95
1020.5189	2936.6641	4123.5	3234.1
1020.6334	2937.763	4075.1	3190.85
1020.7478	2938.8613	4018.65	3134.6
1020.8622	2939.959	3978.05	3087.75
1020.9765	2941.056	3893.9	3009.85
1021.0908	2942.1523	3821.35	2934.9
1021.2051	2943.248	3725.6	2839.65
1021.3193	2944.3431	3618.5	2734
1021.4334	2945.4375	3524.2	2639.65
1021.5476	2946.5313	3404.1	2520.75
1021.6617	2947.6244	3310.45	2424.85
1021.7757	2948.7169	3193.65	2307.6
1021.8897	2949.8087	3096.25	2211.55
1022.0037	2950.8999	2988.9	2104.25
1022.1176	2951.9904	2907.8	2023.75
1022.2315	2953.0803	2843.3	1958.3
1022.3453	2954.1696	2775.15	1889.85
1022.4591	2955.2582	2721.3	1836.5
1022.5728	2956.3462	2660.3	1776.1
1022.6865	2957.4335	2619.15	1735.5
1022.8002	2958.5202	2577.3	1690.6
1022.9138	2959.6062	2552.1	1666.15
1023.0274	2960.6916	2519.85	1636.15
1023.141	2961.7764	2495.95	1611.6
1023.2545	2962.8605	2478.8	1593.45
1023.3679	2963.9439	2475.3	1590.15
1023.4813	2965.0267	2471.2	1585.85
1023.5947	2966.1089	2461.85	1553.8
1023.708	2967.1905	2439.25	1555.1
1023.8213	2968.2714	2430.85	1547
1023.9346	2969.3516	2436.6	1552.7
1024.0478	2970.4312	2447.6	1555.8
1024.1609	2971.5102	2435.65	1549.85
1024.274	2972.5885	2427.8	1544.15
1024.3871	2973.6662	2436.25	1547.4
1024.5002	2974.7432	2420.95	1537
1024.6132	2975.8196	2412.7	1528
1024.7261	2976.8954	2406.7	1524.65
1024.839	2977.9705	2392.5	1508.6
1024.9519	2979.045	2375.15	1491.3
1025.0647	2980.1188	2355.15	1468.75
1025.1775	2981.192	2332.2	1447.05
1025.2902	2982.2645	2303.35	1416.75
1025.4029	2983.3364	2283.65	1400.1
1025.5156	2984.4077	2256.35	1374.05
1025.6282	2985.4783	2230.05	1340.85
1025.7407	2986.5483	2180.05	1297.6
1025.8532	2987.6177	2145.8	1263.95
1025.9657	2988.6864	2119.2	1233.85
1026.0782	2989.7545	2084.45	1198.8
1026.1906	2990.8219	2047.45	1163.85
1026.3029	2991.8887	2008.55	1119.8
1026.4152	2992.9548	1972.75	1086.3
1026.5275	2994.0204	1944.45	1063
1026.6397	2995.0852	1915.25	1032.55
1026.7519	2996.1495	1895.8	1012.3
1026.864	2997.2131	1865.65	981.65
1026.9761	2998.276	1836.9	952.5
1027.0882	2999.3383	1817.45	932.8
1027.2002	3000.4	1796	909.3
1027.3122	3001.4611	1784.4	900.35
1027.4241	3002.5215	1759.15	873.7
1027.536	3003.5812	1756.6	873.3
1027.6478	3004.6404	1732.15	849.05
1027.7596	3005.6989	1727.4	841.7
1027.8714	3006.7567	1712.35	829.2
1027.9831	3007.8139	1722.05	816.95
1028.0947	3008.8705	1700.2	816.55
1028.2064	3009.9264	1705.2	805.3
1028.3179	3010.9818	1697.2	814.05
1028.4295	3012.0364	1693.55	808.35
1028.541	3013.0905	1679.8	794.7
1028.6524	3014.1439	1657.25	773.05
1028.7638	3015.1966	1667.45	783.65
1028.8752	3016.2487	1666.2	782.65
1028.9865	3017.3002	1681.1	789.95
1029.0978	3018.3511	1661.2	778.3
1029.209	3019.4013	1658.25	773.95
1029.3202	3020.4509	1667.95	784.5
1029.4314	3021.4998	1665	780.95
1029.5425	3022.5481	1665.9	783.7
1029.6535	3023.5958	1661.6	778.85
1029.7645	3024.6428	1663.9	778.55
1029.8755	3025.6892	1656.45	771.55
1029.9864	3026.735	1666.4	782.35
1030.0973	3027.7802	1668.75	785
1030.2082	3028.8247	1670	786.3
1030.319	3029.8685	1658.2	773.45
1030.4297	3030.9118	1664.45	779.65
1030.5404	3031.9544	1673.05	789.4
1030.6511	3032.9963	1680.25	795.65
1030.7617	3034.0376	1679.9	796.4
1030.8723	3035.0783	1689	801.65
1030.9829	3036.1184	1684.1	799
1031.0934	3037.1578	1680.65	798.65
1031.2038	3038.1966	1690.6	807.35
1031.3142	3039.2348	1683.85	801
1031.4246	3040.2723	1697.35	807.4
1031.5349	3041.3092	1692.75	809.5
1031.6452	3042.3455	1687.45	803.65
1031.7554	3043.3811	1672.25	789.15
1031.8656	3044.4161	1669	785
1031.9758	3045.4505	1665.2	784.05
1032.0859	3046.4842	1655.05	770.35
1032.1959	3047.5173	1660	777.1
1032.3059	3048.5498	1636.9	754.15
1032.4159	3049.5816	1633.9	748.9
1032.5258	3050.6128	1631.55	744.5
1032.6357	3051.6434	1616.3	731.65
1032.7455	3052.6734	1602.6	718
1032.8553	3053.7027	1599.55	717.6
1032.9651	3054.7314	1589.35	706.15
1033.0748	3055.7594	1580.55	696.45
1033.1845	3056.7868	1579.95	695.1
1033.2941	3057.8136	1572.45	687.85
1033.4037	3058.8398	1569.05	687.4
1033.5132	3059.8653	1561.75	679.8
1033.6227	3060.8902	1555.3	673.5
1033.7321	3061.9145	1548.7	665.35
1033.8415	3062.9381	1540.95	656.8
1033.9509	3063.9612	1553.05	654.25
1034.0602	3064.9835	1533.95	650.9
1034.1694	3066.0053	1528	643.45
1034.2787	3067.0264	1509.3	627.15
1034.3878	3068.0469	1501.5	616.95
1034.497	3069.0668	1497.3	611.15
1034.6061	3070.086	1477.6	593.8
1034.7151	3071.1046	1474.45	589.4
1034.8241	3072.1226	1475.9	591.75
1034.9331	3073.1399	1454.95	571.75
1035.042	3074.1567	1450	564.6
1035.1508	3075.1727	1438.15	552.8
1035.2597	3076.1882	1419.1	535.85
1035.3684	3077.203	1422.35	539.8
1035.4772	3078.2173	1404.7	519.8
1035.5859	3079.2308	1398.9	513.75
1035.6945	3080.2438	1394.95	510.45
1035.8031	3081.2561	1381.35	498.9
1035.9117	3082.2678	1373	490.2
1036.0202	3083.2789	1357.05	472.7
1036.1286	3084.2893	1350.25	469.75
1036.2371	3085.2991	1349.2	466.55
1036.3454	3086.3083	1351.35	464.15
1036.4538	3087.3169	1336.3	452.3
1036.562	3088.3248	1333.8	450.15
1036.6703	3089.3321	1327.85	442.2
1036.7785	3090.3388	1317.55	436.7
1036.8866	3091.3449	1311.85	428
1036.9948	3092.3503	1311.4	425.6
1037.1028	3093.3551	1297.85	415.35
1037.2108	3094.3593	1299.25	418.75
1037.3188	3095.3629	1296.75	412.1
1037.4267	3096.3658	1293.95	410.55
1037.5346	3097.3681	1288.55	405.35
1037.6425	3098.3698	1280.4	394.65
1037.7503	3099.3708	1281.35	394.45
1037.858	3100.3713	1279.7	398.1
1037.9657	3101.3711	1275.05	389.45
1038.0734	3102.3702	1398.65	379.9
1038.181	3103.3688	1271.05	387.25
1038.2886	3104.3667	1257.9	375.9
1038.3961	3105.364	1259.9	377.9
1038.5036	3106.3607	1253.9	369.85
1038.611	3107.3568	1252.4	367.3
1038.7184	3108.3522	1252.95	370.55
1038.8257	3109.347	1250.75	368.65
1038.933	3110.3412	1248.85	360.1
1039.0403	3111.3348	1246.1	362.85
1039.1475	3112.3277	1235.3	353.05
1039.2547	3113.32	1236.45	354.2
1039.3618	3114.3117	1238.7	355.1
1039.4689	3115.3028	1237.7	357.75
1039.5759	3116.2932	1235.05	350.4
1039.6829	3117.2831	1234.8	348.35
1039.7898	3118.2723	1224.2	342.3
1039.8967	3119.2608	1222.75	340.25
1040.0035	3120.2488	1224	341.55
1040.1103	3121.2361	1215	330.9
1040.2171	3122.2229	1220.9	338.15
1040.3238	3123.209	1221.3	339.4
1040.4305	3124.1944	1213.05	330.4
1040.5371	3125.1793	1209.05	326.4
1040.6437	3126.1635	1210.6	327.65
1040.7502	3127.1471	1208.8	327.6
1040.8567	3128.1301	1203.35	321.15
1040.9631	3129.1125	1201.6	319.6
1041.0695	3130.0942	1206.45	324.15
1041.1759	3131.0753	1207.35	315.35
1041.2822	3132.0558	1207.05	321
1041.3884	3133.0357	1192.95	309.6
1041.4946	3134.015	1192.45	308.25
1041.6008	3134.9936	1190.15	305.1
1041.7069	3135.9716	1208	305.8
1041.813	3136.949	1189.05	304.4
1041.919	3137.9258	1203.55	304.6
1042.025	3138.902	1191.45	302.95
1042.1309	3139.8775	1183.05	298.2
1042.2368	3140.8524	1177.9	296.25
1042.3427	3141.8267	1178.75	294.8
1042.4485	3142.8004	1179.9	295.1
1042.5542	3143.7735	1182	293.9
1042.6599	3144.7459	1174.85	290.7
1042.7656	3145.7178	1174.75	291.3
1042.8712	3146.689	1166.5	286.15
1042.9768	3147.6596	1163.1	280.85
1043.0823	3148.6295	1164.45	283.6
1043.1878	3149.5989	1173.85	291.15
1043.2932	3150.5676	1159.85	278.3
1043.3986	3151.5357	1158.65	277.35
1043.5039	3152.5032	1157.85	276.65
1043.6092	3153.4701	1156.55	274.4
1043.7145	3154.4364	1160.75	275.15
1043.8197	3155.402	1152.4	270.65
1043.9248	3156.367	1151.9	268.05
1044.03	3157.3315	1175.15	265.1
1044.135	3158.2952	1146.3	261.9
1044.24	3159.2584	1147.1	264.85
1044.345	3160.221	1146.95	262.7
1044.4499	3161.1829	1143.4	259.95
1044.5548	3162.1442	1140.6	257.3
1044.6596	3163.105	1138.95	256.8
1044.7644	3164.065	1133.4	250.35
1044.8692	3165.0245	1134.7	250.6
1044.9739	3165.9834	1133.2	252.15
1045.0785	3166.9416	1131.4	249.5
1045.1831	3167.8993	1129.4	246.95
1045.2877	3168.8563	1134.1	251.95
1045.3922	3169.8127	1128.9	247.35
1045.4966	3170.7684	1131.75	248.55
1045.6011	3171.7236	1122.85	240.2
1045.7054	3172.6782	1125.75	242.95
1045.8098	3173.6321	1124.2	240.9
1045.914	3174.5854	1121.1	233.75
1046.0183	3175.5381	1123.15	241.05
1046.1224	3176.4902	1122.3	239.9
1046.2266	3177.4417	1112.5	230
1046.3307	3178.3926	1117.35	234.9
1046.4347	3179.3428	1115.65	234.2
1046.5387	3180.2924	1110.5	230.75
1046.6427	3181.2415	1115.9	232.3
1046.7466	3182.1899	1112.65	230.9
1046.8504	3183.1377	1112.7	232.85
1046.9542	3184.0848	1108.9	222.95
1047.058	3185.0314	1102.3	221.05
1047.1617	3185.9773	1103.4	219.05
1047.2654	3186.9227	1104.3	219.85
1047.369	3187.8674	1104	222.8
1047.4726	3188.8115	1105.55	220.5
1047.5761	3189.755	1104.6	224.2
1047.6796	3190.6979	1099.55	218.75
1047.783	3191.6402	1096.55	214.1
1047.8864	3192.5818	1103.25	221
1047.9898	3193.5229	1105.25	219
1048.0931	3194.4633	1092.6	210.2
1048.1963	3195.4031	1094.65	213.65
1048.2995	3196.3423	1089.4	208.3
1048.4027	3197.2809	1093.65	210.1
1048.5058	3198.2189	1096.35	212.85
1048.6089	3199.1563	1097.9	208.15
1048.7119	3200.0931	1086.7	205.65
1048.8148	3201.0292	1088.7	208.3
1048.9178	3201.9648	1083.5	201.05
1049.0206	3202.8997	1089.85	205.8
1049.1235	3203.834	1086.7	205.65
1049.2262	3204.7677	1086.4	205.75
1049.329	3205.7008	1081.7	195.6
1049.4317	3206.6333	1077.25	197.95
1049.5343	3207.5652	1079.9	194.2
1049.6369	3208.4964	1077.35	196.4
1049.7394	3209.4271	1080.45	201.25
1049.8419	3210.3571	1079.2	196.15
1049.9444	3211.2865	1075.3	193.3
1050.0468	3212.2154	1078.3	196.1
1050.1491	3213.1436	1076.2	192.25
1050.2514	3214.0712	1080.9	193.45
1050.3537	3214.9982	1073.45	189.15
1050.4559	3215.9246	1073.6	190.2
1050.5581	3216.8503	1067.75	187.85
1050.6602	3217.7755	1071.3	189.8
1050.7623	3218.7001	1066.8	185.7
1050.8643	3219.624	1067.7	184.7
1050.9663	3220.5473	1066	184.3
1051.0682	3221.4701	1068.5	184.45
1051.1701	3222.3922	1064.3	179
1051.2719	3223.3137	1063.85	182.45
1051.3737	3224.2346	1066.05	183.95
1051.4754	3225.1549	1059.5	178.4
1051.5771	3226.0746	1064.4	186.05
1051.6788	3226.9937	1056.1	175.85
1051.7804	3227.9121	1054.35	172.55
1051.8819	3228.83	1058.95	176.65
1051.9834	3229.7473	1054.7	172.75
1052.0849	3230.6639	1055.4	173.05
1052.1863	3231.5799	1053.25	171.25
1052.2876	3232.4954	1057.15	174.55
1052.3889	3233.4102	1055.55	173.35
1052.4902	3234.3244	1051.5	168.7
1052.5914	3235.238	1053.65	171.65
1052.6926	3236.151	1079.85	172.6
1052.7937	3237.0634	1047.8	167.5
1052.8948	3237.9752	1048.5	168.25
1052.9958	3238.8864	1049.4	165.8
1053.0968	3239.797	1047.7	166.85
1053.1977	3240.7069	1043.7	162.15
1053.2986	3241.6163	1043.8	161.4
1053.3994	3242.5251	1044.15	164.75
1053.5002	3243.4332	1039.85	158.25
1053.6009	3244.3408	1047	165.9
1053.7016	3245.2477	1042.5	159.45
1053.8022	3246.154	1045.55	161.75
1053.9028	3247.0598	1043.95	160.3
1054.0034	3247.9649	1034.3	152.8
1054.1039	3248.8694	1035.1	154
1054.2043	3249.7733	1035.65	157.05
1054.3047	3250.6766	1028.65	147.2
1054.4051	3251.5793	1035.95	152.5
1054.5054	3252.4814	1033.35	152.75
1054.6056	3253.3829	1029.45	149.55
1054.7058	3254.2838	1029.75	147.6
1054.806	3255.1841	1028.75	145.55
1054.9061	3256.0838	1026.2	144.3
1055.0061	3256.9829	1024.35	143.45
1055.1062	3257.8814	1026.9	142.1
1055.2061	3258.7792	1027.5	144.65
1055.306	3259.6765	1022.1	140.5
1055.4059	3260.5731	1021.75	140.8
1055.5057	3261.4692	1018.1	138.5
1055.6055	3262.3647	1015.1	132.6
1055.7052	3263.2595	1012.95	130.8
1055.8049	3264.1538	1009.7	130.45
1055.9045	3265.0474	1016.2	134.9
1056.0041	3265.9404	1007.5	126.7
1056.1036	3266.8329	1006.5	126.25
1056.2031	3267.7247	1015.1	125.65
1056.3025	3268.616	997.9	117.55
1056.4019	3269.5066	1002.55	120
1056.5013	3270.3966	995.65	113.9
1056.6005	3271.286	990.2	110.1
