Software Version:	3.9.2.0
Unit SN:	10000200
Spectrometer SN:	6960
Date:	3/26/2024 1:57:00 PM
Data Line Index:	25
Spectral Points:	2048
Integration time (ms):	125
Averages:	20
Delay (ms):	30000
Sequence Number:	1
Processing:	dark subtract
Laser Power (mW):	300
Laser Current (mA):	820
Laser Diode Temp (C):	25
Laser Case Temp (C):	27.3
System Temp (C):	27.4
Spectrometer Temp (C):	25.2
CCD Temp (C):	-0.002
Secondary Temp (C):	20.006
Heatsink Temp (C):	22.599
CCDPCB Temp (C):	36.796
SecondaryPCB Temp (C):	34.473

Wavelength	RamanShift	Raw Counts	Dark Subtracted
787.061	30.1047	590.05	178.7
787.2016	32.3739	600.55	191
787.3422	34.6426	612.65	201.4
787.4828	36.9109	624.7	212.05
787.6235	39.1787	643.25	227.75
787.7642	41.4461	661.3	240.9
787.9049	43.7131	682.2	258.05
788.0456	45.9796	701.45	272.95
788.1863	48.2456	720	289.9
788.3271	50.5112	741.45	304.75
788.4679	52.7764	764.3	327.3
788.6087	55.0411	786	346.7
788.7496	57.3054	812.8	366.65
788.8904	59.5692	834.95	386.2
789.0313	61.8326	870.95	417.6
789.1722	64.0955	901.1	444
789.3132	66.3579	939	478.7
789.4541	68.6199	981.8	517.9
789.5951	70.8815	1049.95	582.7
789.7361	73.1426	1219.65	750.05
789.8771	75.4032	1627.9	1150.3
790.0181	77.6634	2643.9	2158.05
790.1592	79.9231	5159.95	4664.75
790.3003	82.1824	10908.2	10389.95
790.4414	84.4412	22302.6	21746.9
790.5825	86.6995	43091.25	42482.6
790.7237	88.9574	56889.25	56232.75
790.8648	91.2148	62491.2	61802.05
791.006	93.4717	63288.6	62578.5
791.1472	95.7282	63563.5	62841.25
791.2885	97.9842	63675.45	62947.55
791.4297	100.2398	63623	62889.7
791.571	102.4949	63630.1	62896.85
791.7123	104.7495	63566.7	62831.1
791.8536	107.0036	63477.2	62740.55
791.9949	109.2573	63562	62821.8
792.1363	111.5105	63441.9	62701
792.2777	113.7632	63404.45	62665.2
792.4191	116.0154	63433.15	62679.7
792.5605	118.2672	63515.9	62769.15
792.7019	120.5185	63499.3	62747.8
792.8434	122.7693	63464.75	62713.65
792.9849	125.0197	63257.05	62504.4
793.1264	127.2696	63587.25	62831.7
793.2679	129.519	63498.85	62737.1
793.4094	131.7679	63612.95	62850.55
793.551	134.0163	63319.55	62549.3
793.6926	136.2642	63422.6	62652.35
793.8342	138.5117	63572.25	62797.35
793.9758	140.7587	63512.4	62737.45
794.1175	143.0052	63475.95	62697.05
794.2591	145.2512	63301.7	62523.65
794.4008	147.4967	63496.7	62719.2
794.5425	149.7417	63434	62653.75
794.6842	151.9863	63426.45	62644.1
794.826	154.2304	63330.65	62540.75
794.9677	156.4739	63336.45	62540.2
795.1095	158.717	63481.75	62686.25
795.2513	160.9596	63371.35	62574.6
795.3931	163.2017	63179.95	62383.7
795.535	165.4433	63332.05	62528.65
795.6768	167.6844	63210.4	62406.05
795.8187	169.925	63276.05	62473
795.9606	172.1651	63109.7	62303.6
796.1025	174.4047	63212.4	62401.75
796.2445	176.6439	63145.5	62336.2
796.3864	178.8825	63021.35	62211.05
796.5284	181.1206	63258.95	62443.65
796.6704	183.3582	63152.85	62329.9
796.8124	185.5954	63089.9	62271.05
796.9544	187.832	63094.3	62265.65
797.0965	190.0681	62907.8	62078.6
797.2386	192.3037	63150.3	62315.05
797.3806	194.5388	63401.25	62560.5
797.5228	196.7734	62731.65	61893.65
797.6649	199.0075	63389	62545.45
797.807	201.2411	63158.6	62312.9
797.9492	203.4742	63447.95	62605.55
798.0914	205.7068	63382.25	62534.2
798.2336	207.9389	63373.2	62527.85
798.3758	210.1704	63353.4	62506.1
798.518	212.4015	63517.9	62665.45
798.6603	214.632	63346	62494.8
798.8025	216.862	63555.7	62713.4
798.9448	219.0915	63389.35	62553.15
799.0871	221.3205	63434.45	62599.55
799.2294	223.549	63622.4	62795.1
799.3718	225.777	63579.5	62746.45
799.5141	228.0044	63695.15	62860.35
799.6565	230.2314	63642.85	62817.45
799.7989	232.4578	63659.7	62831.95
799.9413	234.6837	63683.85	62846.5
800.0837	236.909	63920.65	63079.55
800.2262	239.1339	63571.95	62702.6
800.3687	241.3582	63714.3	62864.9
800.5111	243.582	63704.9	62828.75
800.6536	245.8053	63666.3	62795.65
800.7961	248.0281	63683	62819.4
800.9387	250.2503	63718.6	62850.25
801.0812	252.472	63579.4	62710.4
801.2238	254.6932	63688.45	62811.8
801.3664	256.9139	63642.6	62774.85
801.509	259.134	63842.6	62962.7
801.6516	261.3536	63623.2	62740.05
801.7942	263.5727	63716.35	62834.35
801.9369	265.7912	63659.95	62778.4
802.0795	268.0092	63693.15	62812.6
802.2222	270.2267	63729	62850.45
802.3649	272.4436	63587.75	62705.5
802.5076	274.6601	63695.8	62808.55
802.6504	276.8759	63746.65	62865.85
802.7931	279.0913	63668.6	62786.7
802.9359	281.3061	63702.85	62818.05
803.0787	283.5204	63695.7	62807.5
803.2215	285.7341	63679	62781.2
803.3643	287.9473	63780.45	62874.55
803.5071	290.16	63740.4	62843.6
803.6499	292.3721	63770.45	62877.1
803.7928	294.5837	63708.3	62812.4
803.9357	296.7947	63656.25	62764.55
804.0786	299.0052	63832.55	62937.15
804.2215	301.2152	63743.05	62850.05
804.3644	303.4246	63769.55	62877.3
804.5074	305.6334	63766.1	62875.5
804.6503	307.8418	63627.75	62729.05
804.7933	310.0495	63596.85	62700.75
804.9363	312.2568	63579.9	62680.95
805.0793	314.4635	63570.65	62671.4
805.2223	316.6696	63634.95	62735.25
805.3653	318.8752	63676.35	62764.65
805.5084	321.0802	63419.75	62517.35
805.6514	323.2847	63559.3	62655.4
805.7945	325.4887	63525.85	62621.4
805.9376	327.692	63463.65	62561.3
806.0807	329.8949	63534.6	62627.4
806.2238	332.0972	63450.45	62544
806.367	334.2989	63501.3	62585.6
806.5101	336.5001	63573.5	62659.8
806.6533	338.7007	63322.5	62408.8
806.7965	340.9008	63471.1	62555.3
806.9397	343.1003	63464.8	62550.65
807.0829	345.2992	63526.3	62612.45
807.2261	347.4976	63398.75	62478.65
807.3693	349.6955	63451.6	62531.7
807.5126	351.8927	63343.6	62424.45
807.6559	354.0895	63441.8	62508.7
807.7991	356.2856	63439.55	62514.3
807.9424	358.4812	63530.95	62609.2
808.0857	360.6763	63336.35	62412.4
808.2291	362.8707	63527.4	62606.05
808.3724	365.0646	63399.8	62470.75
808.5158	367.258	63408.1	62481.65
808.6591	369.4508	63273.95	62346.2
808.8025	371.643	63477.65	62548.65
808.9459	373.8346	63361.2	62425.55
809.0893	376.0257	63392.7	62459.55
809.2327	378.2162	63353.7	62417
809.3762	380.4062	63168.55	62231.7
809.5196	382.5956	63300.4	62369.1
809.6631	384.7844	63269.65	62331.6
809.8066	386.9726	63356.95	62418.1
809.9501	389.1603	63333.15	62403.65
810.0936	391.3474	63198.4	62232.7
810.2371	393.5339	63299.4	62367
810.3806	395.7199	63092	62166.5
810.5241	397.9052	63140.9	62217.5
810.6677	400.09	63193.25	62267.5
810.8113	402.2743	63309.75	62389.05
810.9548	404.4579	63120.85	62194.4
811.0984	406.641	63166.85	62237.6
811.2421	408.8235	63267.15	62349.85
811.3857	411.0054	63310.3	62383.25
811.5293	413.1868	63335.3	62400.85
811.673	415.3675	63288	62355.95
811.8166	417.5477	63301.7	62366.25
811.9603	419.7273	63306.25	62370
812.104	421.9064	63280.75	62339.15
812.2477	424.0848	63275.2	62343.15
812.3914	426.2627	63356.3	62421.15
812.5351	428.4399	63173.15	62234.6
812.6788	430.6166	62918.55	61973.6
812.8226	432.7928	63172.35	62227.65
812.9663	434.9683	62971.9	62038.4
813.1101	437.1432	62910.9	61974.4
813.2539	439.3176	63086.95	62158.3
813.3977	441.4914	62766.2	61836.2
813.5415	443.6645	62828.65	61897.05
813.6853	445.8371	62866.8	61925.85
813.8291	448.0091	62700.5	61763.75
813.973	450.1806	62585.55	61655.2
814.1168	452.3514	62642	61707.85
814.2607	454.5216	62434.3	61490.9
814.4046	456.6913	62692.1	61756.45
814.5485	458.8603	62740	61806
814.6924	461.0288	62432.3	61506.15
814.8363	463.1967	62705.9	61782.9
814.9802	465.3639	62681.25	61747.7
815.1241	467.5306	62176.25	61241.25
815.2681	469.6967	62530.15	61601.1
815.412	471.8622	62708.85	61781.4
815.556	474.0271	62508.15	61578.05
815.7	476.1914	62579.6	61639.4
815.844	478.3551	62585.05	61645.25
815.988	480.5182	62825.95	61895.7
816.132	482.6807	62458.7	61533.35
816.276	484.8426	62540.5	61623.15
816.4201	487.0039	62864.45	61939.8
816.5641	489.1647	62893	61958.35
816.7082	491.3248	62560.05	61623.45
816.8522	493.4843	62928.4	62000.15
816.9963	495.6432	62948.8	62020
817.1404	497.8015	62557.5	61616.05
817.2845	499.9592	62806.4	61860.05
817.4286	502.1163	62747.25	61799.85
817.5727	504.2728	62678.5	61743.2
817.7168	506.4287	62586.8	61665.95
817.861	508.5839	62389.5	61460.85
818.0051	510.7386	62533.9	61598.75
818.1493	512.8927	62528.25	61588.8
818.2935	515.0461	62454.4	61511.8
818.4377	517.199	62612.45	61670.35
818.5818	519.3512	62388.1	61445.1
818.726	521.5029	62436.85	61495.65
818.8703	523.6539	62468.45	61531.3
819.0145	525.8043	62109.45	61165.4
819.1587	527.9541	62432.75	61482.45
819.303	530.1033	62422	61477.5
819.4472	532.2519	62268.2	61324.85
819.5915	534.3999	62518.25	61570.85
819.7357	536.5472	62660.5	61719.6
819.88	538.694	62321.55	61387.05
820.0243	540.8401	62611.4	61665.8
820.1686	542.9856	62685.5	61731.6
820.3129	545.1305	62818.1	61853.05
820.4572	547.2748	62525.15	61559.65
820.6016	549.4185	62477.2	61507.25
820.7459	551.5615	62648.95	61687.4
820.8902	553.704	62544.35	61580.85
821.0346	555.8458	62381.75	61429.45
821.1789	557.987	62425.55	61469.5
821.3233	560.1276	62525.5	61565.9
821.4677	562.2675	62419.85	61457.35
821.6121	564.4069	62492.15	61533
821.7565	566.5456	62631.4	61675.95
821.9009	568.6837	62308.8	61356.6
822.0453	570.8212	62416.4	61464.65
822.1897	572.958	61858.35	60903.05
822.3342	575.0942	62279.6	61327.25
822.4786	577.2299	61930.45	60986.05
822.6231	579.3648	61854.4	60923.4
822.7675	581.4992	61770.95	60852.45
822.912	583.6329	61775.25	60856.5
823.0565	585.766	61853.35	60925.85
823.201	587.8985	62023.9	61091.05
823.3454	590.0304	61450.3	60494.8
823.4899	592.1616	61862.25	60907.9
823.6345	594.2922	61588.2	60632.55
823.779	596.4222	61235.1	60275.5
823.9235	598.5515	61306.4	60342.55
824.068	600.6802	61557.9	60601.4
824.2126	602.8083	61052.65	60098.8
824.3571	604.9358	60994.3	60039.5
824.5017	607.0626	61376.6	60418.85
824.6462	609.1888	60725.5	59759.2
824.7908	611.3144	61164.75	60193.35
824.9354	613.4393	60952.6	59984.15
825.08	615.5636	60646.9	59682.15
825.2246	617.6873	60916.8	59954.3
825.3692	619.8103	60496.05	59530.05
825.5138	621.9327	60922.65	59959.5
825.6584	624.0544	60947.5	59994.5
825.803	626.1756	60689.75	59734.6
825.9477	628.2961	60663	59699.85
826.0923	630.4159	60431.25	59472.2
826.237	632.5351	60299.85	59337.35
826.3816	634.6537	61023.4	60060.2
826.5263	636.7716	60262.55	59290.05
826.6709	638.8889	60455	59487.2
826.8156	641.0056	60404.4	59430.95
826.9603	643.1216	60541.45	59570.9
827.105	645.237	60685.9	59718.8
827.2497	647.3518	60259.7	59306.5
827.3944	649.4659	60344.4	59387.75
827.5391	651.5793	60376.75	59423
827.6838	653.6922	60466.45	59510.5
827.8285	655.8043	59961.65	59007.25
827.9733	657.9159	60613.85	59650.95
828.118	660.0268	59407.15	58448.7
828.2627	662.137	60138.45	59171.6
828.4075	664.2466	60201.8	59233.8
828.5522	666.3556	59949.45	58983.3
828.697	668.4639	60124.2	59158.75
828.8418	670.5716	59829.15	58873.25
828.9865	672.6786	60078.2	59112.35
829.1313	674.785	59695	58724.15
829.2761	676.8907	59732.6	58768.1
829.4209	678.9958	59926.65	58967.3
829.5657	681.1002	60024.75	59060.35
829.7105	683.204	59576.85	58604.35
829.8553	685.3072	59308.6	58336.65
830.0001	687.4097	59490	58521.05
830.1449	689.5115	59345.35	58372.35
830.2898	691.6127	59719.15	58756.25
830.4346	693.7132	59320.75	58359
830.5794	695.8131	59368.85	58386.65
830.7243	697.9123	59452.6	58481.1
830.8691	700.0109	59523	58551.5
831.014	702.1089	58943.55	57975.1
831.1588	704.2061	59145.1	58175.9
831.3037	706.3028	59190.25	58219.4
831.4486	708.3987	59277.8	58310.15
831.5935	710.4941	59059.55	58094.45
831.7383	712.5887	59419.15	58452.85
831.8832	714.6827	59226.8	58257.2
832.0281	716.7761	59563.3	58599.5
832.173	718.8688	59670.65	58703
832.3179	720.9608	59390.6	58416.05
832.4628	723.0522	59454.5	58474.5
832.6077	725.1429	59022.5	58048.9
832.7527	727.233	59766.65	58793.2
832.8976	729.3224	58403.25	57437.1
833.0425	731.4112	58823.35	57855.1
833.1874	733.4993	58809.1	57840
833.3324	735.5867	58763.25	57791.85
833.4773	737.6735	58379.15	57406.7
833.6222	739.7596	58033.1	57060.35
833.7672	741.845	58024.6	57051.25
833.9122	743.9298	58417.4	57443.45
834.0571	746.014	57950.65	56978.75
834.2021	748.0974	57624.15	56644.5
834.347	750.1802	58280	57303.95
834.492	752.2624	57411	56435.2
834.637	754.3439	57548.35	56567.05
834.782	756.4247	57746.15	56766.45
834.9269	758.5048	57393	56417.9
835.0719	760.5843	57602.2	56626
835.2169	762.6631	57850.35	56871.9
835.3619	764.7413	57861.65	56885.5
835.5069	766.8188	58067.25	57090.65
835.6519	768.8956	58398.1	57424.8
835.7969	770.9718	58448.25	57469.85
835.9419	773.0473	58169	57194.65
836.0869	775.1221	57665.5	56690.7
836.232	777.1962	57560.45	56583.15
836.377	779.2697	57040.9	56065.2
836.522	781.3426	57332.35	56335.15
836.667	783.4147	57444.9	56469.2
836.8121	785.4862	57418.7	56440.55
836.9571	787.557	57010.75	56034.75
837.1021	789.6271	57289.45	56311.95
837.2472	791.6966	56643.65	55669.75
837.3922	793.7654	56034.6	55058.05
837.5373	795.8335	55912.65	54933.9
837.6823	797.901	55920.55	54944
837.8274	799.9678	55632.25	54649.7
837.9724	802.0339	55575.25	54596.35
838.1175	804.0993	55550.45	54561.1
838.2626	806.1641	55372.45	54395.6
838.4076	808.2282	55252.05	54272.65
838.5527	810.2916	55136.3	54157.4
838.6978	812.3544	55248.35	54272.45
838.8428	814.4164	54724.9	53750.45
838.9879	816.4778	54919.95	53934.35
839.133	818.5385	54817.6	53830.35
839.2781	820.5986	54852.65	53869.95
839.4232	822.658	54958.8	53972.25
839.5682	824.7166	55027.6	54046.6
839.7133	826.7747	54755	53775.9
839.8584	828.832	55050.9	54068.35
840.0035	830.8886	55323.5	54337.3
840.1486	832.9446	55293.85	54311.6
840.2937	834.9999	54612.2	53630.65
840.4388	837.0545	54823.1	53836
840.5839	839.1085	54909.25	53926.55
840.729	841.1618	54701.75	53719.5
840.8741	843.2143	54191.25	53210.1
841.0192	845.2662	54114.1	53134.45
841.1643	847.3175	54185.4	53203.95
841.3095	849.368	53604.4	52623.35
841.4546	851.4179	53918.85	52936
841.5997	853.467	53490.95	52510.6
841.7448	855.5155	53584.3	52601.65
841.8899	857.5633	53188.8	52209.55
842.0351	859.6105	52938.25	51955.45
842.1802	861.6569	53094.9	52112.75
842.3253	863.7027	52626.15	51642.35
842.4704	865.7478	52755.5	51775.25
842.6156	867.7922	52603.05	51621.4
842.7607	869.8359	52810.8	51830.85
842.9058	871.8789	52320.8	51339.85
843.0509	873.9212	52606.85	51592.7
843.1961	875.9629	52637.85	51655.75
843.3412	878.0039	52664.65	51678.85
843.4863	880.0441	52563.5	51581.45
843.6315	882.0837	52440.35	51459.65
843.7766	884.1226	52416.4	51434.5
843.9218	886.1609	52296.65	51314.5
844.0669	888.1984	52054.6	51071.75
844.212	890.2352	52429.2	51451.75
844.3572	892.2714	51858.4	50871.9
844.5023	894.3069	51995.55	51009.3
844.6475	896.3416	51742.85	50760.6
844.7926	898.3757	51649.95	50665.25
844.9377	900.4091	51184.15	50198.55
845.0829	902.4418	51605.55	50618.1
845.228	904.4739	51257.1	50267.6
845.3732	906.5052	51338.5	50354.7
845.5183	908.5358	51051.1	50065.05
845.6635	910.5658	50768.6	49779.95
845.8086	912.595	50639.1	49656.35
845.9538	914.6236	50147.1	49164.4
846.0989	916.6515	50615.3	49631.15
846.2441	918.6786	49940.85	48957.95
846.3892	920.7051	50071.25	49083.5
846.5344	922.7309	50051.6	49067.1
846.6795	924.756	50041.65	49058.95
846.8246	926.7804	49871.4	48888.1
846.9698	928.8041	49360.9	48377.95
847.1149	930.8272	49617.4	48632.6
847.2601	932.8495	49482.1	48497.6
847.4052	934.8711	49124.55	48138.15
847.5504	936.892	48895.45	47909.1
847.6955	938.9123	48869.7	47883.65
847.8407	940.9318	48592.2	47609.95
847.9858	942.9506	48423.7	47444.1
848.131	944.9688	48400.9	47415.25
848.2761	946.9862	47923.35	46939.2
848.4213	949.003	47848.35	46864.25
848.5664	951.019	47521.35	46541.55
848.7115	953.0344	47500.35	46515.1
848.8567	955.0491	47466	46481.5
849.0018	957.063	47543.15	46558.55
849.147	959.0763	47628.95	46640.35
849.2921	961.0888	47369.75	46388
849.4373	963.1007	47496.25	46515.8
849.5824	965.1119	47397.25	46426.45
849.7275	967.1223	47247.25	46283.9
849.8727	969.1321	47315.85	46352.6
850.0178	971.1412	47081.8	46107.9
850.1629	973.1495	46972.05	45996.9
850.3081	975.1572	46992.3	45973.95
850.4532	977.1641	46901.7	45923.4
850.5983	979.1704	46669.85	45684.35
850.7435	981.1759	46631.95	45647.95
850.8886	983.1808	46494.75	45511.85
851.0337	985.1849	46471.3	45478.2
851.1788	987.1884	46447.8	45464.6
851.324	989.1911	46587.85	45606.55
851.4691	991.1932	46336.45	45359.8
851.6142	993.1945	46279.15	45300.75
851.7593	995.1951	46070.9	45091.75
851.9045	997.1951	45961.3	44975.7
852.0496	999.1943	45737.05	44757.6
852.1947	1001.1928	45559.4	44573.8
852.3398	1003.1906	45445.6	44462.8
852.4849	1005.1877	45368.3	44382.45
852.63	1007.1841	45133.5	44155.45
852.7751	1009.1798	45003.9	44025.35
852.9202	1011.1748	44747.7	43768.85
853.0653	1013.1691	44509.4	43532.65
853.2104	1015.1627	44103.65	43121.75
853.3555	1017.1556	43742.6	42764.75
853.5006	1019.1477	43669.1	42695
853.6457	1021.1392	43268.65	42299.75
853.7908	1023.1299	43091.9	42123
853.9359	1025.12	43050.1	42090.8
854.081	1027.1093	42861.6	41914.35
854.2261	1029.0979	42822.9	41880.4
854.3712	1031.0859	42707.7	41759.4
854.5163	1033.0731	42572	41609.9
854.6613	1035.0596	42384.85	41417.05
854.8064	1037.0454	42108.75	41139.25
854.9515	1039.0304	41952.6	40975.85
855.0965	1041.0148	41666.5	40690.75
855.2416	1042.9985	41460	40485.3
855.3867	1044.9814	41417.65	40442.45
855.5317	1046.9636	41197.9	40220.3
855.6768	1048.9452	41036.15	40062.35
855.8219	1050.926	41075.15	40102.3
855.9669	1052.9061	40877.65	39902.3
856.112	1054.8855	40825.7	39846.05
856.257	1056.8642	40769.6	39795.65
856.4021	1058.8421	40703.7	39724.25
856.5471	1060.8194	40656.9	39678
856.6921	1062.7959	40491.7	39513.1
856.8372	1064.7717	40446.95	39469.9
856.9822	1066.7469	40324.85	39347.95
857.1272	1068.7213	40289.7	39311.9
857.2723	1070.695	40221.85	39246
857.4173	1072.6679	40078.9	39101.45
857.5623	1074.6402	39933.35	38961.6
857.7073	1076.6117	39836.15	38855.15
857.8523	1078.5826	39818.65	38841.4
857.9973	1080.5527	39640.3	38662.65
858.1423	1082.5221	39501.9	38527.4
858.2873	1084.4908	39536.1	38560.7
858.4323	1086.4587	39599.5	38627
858.5773	1088.426	39597.85	38621.8
858.7223	1090.3925	39412.8	38429.05
858.8673	1092.3584	39305.85	38332.4
859.0123	1094.3235	39085.75	38110.25
859.1573	1096.2879	38999.45	38027.4
859.3022	1098.2515	38945.4	37967.6
859.4472	1100.2145	38933.15	37963.95
859.5922	1102.1767	38869.1	37890.05
859.7371	1104.1382	38928.8	37957.5
859.8821	1106.099	39030.1	38055.75
860.027	1108.0591	39050.9	38076.9
860.172	1110.0185	39055.1	38078
860.3169	1111.9771	39036.15	38061.65
860.4619	1113.9351	38751.9	37775.4
860.6068	1115.8923	38431.05	37457.7
860.7517	1117.8488	38148	37173.65
860.8967	1119.8045	37822.6	36852.15
861.0416	1121.7596	37708.4	36738.35
861.1865	1123.7139	37488.1	36516.2
861.3314	1125.6675	37390.45	36417.6
861.4763	1127.6204	37460.55	36490.75
861.6212	1129.5726	37275.6	36300.95
861.7661	1131.524	37182.45	36211
861.911	1133.4748	37123.05	36150.65
862.0559	1135.4248	36940.2	35966.25
862.2008	1137.3741	36830.25	35862.8
862.3457	1139.3226	36676.85	35701.35
862.4905	1141.2705	36660.6	35687.05
862.6354	1143.2176	36375.3	35394.3
862.7803	1145.164	36377.65	35405
862.9251	1147.1097	36246.05	35275.3
863.07	1149.0546	36139.75	35161.95
863.2148	1150.9989	36053	35079.2
863.3597	1152.9424	35929.8	34955.8
863.5045	1154.8852	35731.55	34757.75
863.6493	1156.8272	35576	34603.35
863.7942	1158.7686	35556.4	34575.45
863.939	1160.7092	35440.35	34465.75
864.0838	1162.6491	35259.9	34290.15
864.2286	1164.5883	35387.1	34417.35
864.3734	1166.5267	35282.05	34306.95
864.5182	1168.4644	35310.7	34340.35
864.663	1170.4014	35408.5	34436.6
864.8078	1172.3377	35573.6	34606.45
864.9526	1174.2732	35640.9	34670.3
865.0974	1176.2081	35861.75	34890.8
865.2421	1178.1421	36046	35069.6
865.3869	1180.0755	36188.9	35221.2
865.5317	1182.0082	36178.95	35213.1
865.6764	1183.9401	36164.9	35198.1
865.8212	1185.8713	35939.8	34982.15
865.9659	1187.8017	35665.4	34711.5
866.1106	1189.7315	35433.05	34489.9
866.2554	1191.6605	35035.75	34092.15
866.4001	1193.5888	34789	33835.9
866.5448	1195.5163	34619.85	33664.2
866.6895	1197.4432	34457.15	33492.6
866.8342	1199.3693	34331.3	33365.8
866.9789	1201.2947	34180.15	33208.9
867.1236	1203.2193	34062.95	33099
867.2683	1205.1432	34063.1	33095.25
867.413	1207.0664	33925.75	32959.7
867.5576	1208.9889	33813.8	32844.2
867.7023	1210.9106	33770.45	32805.05
867.847	1212.8316	33576.05	32611.05
867.9916	1214.7519	33565	32591.65
868.1363	1216.6715	33493.8	32526
868.2809	1218.5903	33497.1	32531.45
868.4255	1220.5084	33371.5	32404.85
868.5701	1222.4257	33366.25	32400.8
868.7148	1224.3424	33152.35	32191.7
868.8594	1226.2583	33136.3	32170.1
869.004	1228.1735	33148.6	32183.5
869.1486	1230.0879	33113.2	32147.6
869.2932	1232.0016	33159.65	32196.6
869.4377	1233.9146	33107.05	32139.75
869.5823	1235.8269	32965.3	32004
869.7269	1237.7384	32859.45	31894.75
869.8715	1239.6492	32571.5	31605.45
870.016	1241.5592	32486.7	31518.5
870.1606	1243.4686	32326	31361.2
870.3051	1245.3772	32303	31339.3
870.4496	1247.285	32179.3	31213.25
870.5941	1249.1922	32145.5	31180.2
870.7387	1251.0986	32148.7	31186.65
870.8832	1253.0042	32016.3	31052
871.0277	1254.9092	31952.15	30991.35
871.1722	1256.8134	31934.65	30974.45
871.3167	1258.7169	32056.75	31095
871.4611	1260.6196	32080.45	31121
871.6056	1262.5216	32184.55	31221.15
871.7501	1264.4229	32209.2	31248.95
871.8945	1266.3234	32364.65	31399.85
872.039	1268.2232	32334.35	31371.25
872.1834	1270.1223	32324.75	31358.25
872.3278	1272.0207	32270.6	31308.15
872.4723	1273.9183	32163.1	31191.1
872.6167	1275.8151	32019.75	31056.9
872.7611	1277.7113	31907.25	30945.5
872.9055	1279.6067	31743.15	30783.9
873.0499	1281.5014	31647.8	30686.45
873.1943	1283.3953	31682.2	30718.45
873.3386	1285.2885	31788.2	30825.45
873.483	1287.181	31840.55	30879.75
873.6274	1289.0727	32018.2	31059.15
873.7717	1290.9637	32050.25	31089.55
873.9161	1292.854	32144.45	31185.1
874.0604	1294.7435	32051.15	31089.25
874.2047	1296.6323	32086.7	31127.9
874.349	1298.5204	32115.4	31149.6
874.4933	1300.4077	32129.15	31167.1
874.6376	1302.2943	32074.5	31112.85
874.7819	1304.1802	32015.15	31056.2
874.9262	1306.0653	31675.45	30714.6
875.0705	1307.9497	31480.35	30519.35
875.2147	1309.8333	31296.35	30334.25
875.359	1311.7162	31128.1	30169.05
875.5032	1313.5984	31081.85	30118.3
875.6475	1315.4798	30965.8	29994.2
875.7917	1317.3605	30887.75	29921.65
875.9359	1319.2405	30959.35	29996.75
876.0801	1321.1197	30796.35	29832.85
876.2243	1322.9982	30592.65	29628.95
876.3685	1324.876	30510.5	29551.85
876.5127	1326.753	30320.15	29358.2
876.6569	1328.6293	30254.45	29289.5
876.801	1330.5048	30222.3	29254.9
876.9452	1332.3796	30070.8	29111.95
877.0893	1334.2537	30049	29062.05
877.2335	1336.127	29907.7	28949.65
877.3776	1337.9996	29826.1	28868.9
877.5217	1339.8714	29793.45	28830.05
877.6658	1341.7426	29736	28731.6
877.8099	1343.6129	29621.5	28659.05
877.954	1345.4826	29530.65	28567.9
878.0981	1347.3515	29557.6	28591.95
878.2422	1349.2196	29486.85	28530.65
878.3862	1351.087	29479.05	28519.45
878.5303	1352.9537	29419.75	28456.1
878.6743	1354.8197	29510.8	28548.9
878.8184	1356.6849	29580.65	28621.3
878.9624	1358.5493	29598.4	28636.75
879.1064	1360.4131	29659.6	28698.2
879.2504	1362.276	29583.35	28625.95
879.3944	1364.1383	29465.4	28509.55
879.5384	1365.9998	29202.8	28236.65
879.6823	1367.8606	28856.55	27895.85
879.8263	1369.7206	28584.3	27621.85
879.9702	1371.5799	28317.5	27356.7
880.1142	1373.4384	28076.4	27115.1
880.2581	1375.2962	27966.65	27005.8
880.402	1377.1533	27591.15	26635.1
880.5459	1379.0096	27266.6	26312.45
880.6898	1380.8652	26995.15	26042.8
880.8337	1382.7201	26721.25	25768.9
880.9776	1384.5742	26462.6	25504.4
881.1215	1386.4275	26224	25263.95
881.2653	1388.2802	26080.25	25123.6
881.4092	1390.132	25931	24970.45
881.553	1391.9832	25794.5	24832.85
881.6968	1393.8336	25664.55	24707.95
881.8406	1395.6832	25529.2	24570.45
881.9844	1397.5322	25417.95	24460.45
882.1282	1399.3803	25377.5	24417.45
882.272	1401.2278	25222	24266.15
882.4158	1403.0745	25172.55	24217.8
882.5595	1404.9204	25049	24095.2
882.7033	1406.7656	25033.95	24075.55
882.847	1408.6101	24945	23986
882.9908	1410.4538	24865.1	23908.1
883.1345	1412.2968	24878.1	23921.8
883.2782	1414.139	24766.05	23806.8
883.4219	1415.9805	24848.5	23889.05
883.5656	1417.8213	24796.4	23822.7
883.7092	1419.6613	24785.35	23832.4
883.8529	1421.5006	24881.85	23929.6
883.9965	1423.3391	25023.75	24067.85
884.1402	1425.1769	25160.7	24203.1
884.2838	1427.0139	25460.6	24506.5
884.4274	1428.8502	25803.85	24846.6
884.571	1430.6858	26178.35	25223.3
884.7146	1432.5206	26428.7	25473.55
884.8582	1434.3547	26586.95	25629.9
885.0018	1436.188	26511.3	25558.95
885.1453	1438.0206	26406.15	25448.9
885.2889	1439.8524	26209.35	25256.5
885.4324	1441.6835	26084.2	25132.6
885.5759	1443.5139	26017.9	25060.35
885.7194	1445.3435	25882.3	24928.6
885.8629	1447.1724	25807.5	24856.05
886.0064	1449.0005	25707.6	24754.95
886.1499	1450.8279	25605.3	24656.25
886.2933	1452.6545	25574.8	24626.15
886.4368	1454.4804	25569.5	24619.65
886.5802	1456.3056	25526.6	24571.05
886.7237	1458.13	25454.9	24505.75
886.8671	1459.9536	25294.65	24341.35
887.0105	1461.7766	24998.55	24046.7
887.1539	1463.5987	24654.2	23698.15
887.2972	1465.4202	24344.25	23391.25
887.4406	1467.2409	24043.65	23090.65
887.584	1469.0608	23799.4	22847.7
887.7273	1470.88	23542.05	22591.3
887.8706	1472.6984	23379.25	22429.3
888.0139	1474.5161	23131.55	22179.1
888.1572	1476.3331	22954.4	22005.75
888.3005	1478.1493	22850.15	21898.4
888.4438	1479.9648	22748.9	21795.9
888.5871	1481.7795	22657.9	21705.6
888.7303	1483.5935	22571	21618.55
888.8736	1485.4067	22460.15	21507.1
889.0168	1487.2192	22430	21478.25
889.16	1489.031	22389.7	21436.2
889.3032	1490.842	22243.2	21292.65
889.4464	1492.6522	22254.55	21304.05
889.5896	1494.4618	22131.7	21181.25
889.7327	1496.2705	22106.25	21154.5
889.8759	1498.0785	22075.1	21123.9
890.019	1499.8858	21987.6	21038.35
890.1622	1501.6924	21861.45	20912.25
890.3053	1503.4981	21895.75	20945.15
890.4484	1505.3032	21823.65	20872.85
890.5914	1507.1075	21751.5	20799.5
890.7345	1508.911	21707.85	20757.25
890.8776	1510.7138	21615.95	20665.45
891.0206	1512.5159	21551.15	20602.65
891.1637	1514.3172	21468.25	20520.55
891.3067	1516.1178	21344.3	20398.35
891.4497	1517.9176	21360.35	20405.8
891.5927	1519.7166	21240.25	20293.5
891.7357	1521.515	21161.3	20207.3
891.8786	1523.3126	21103.4	20154.75
892.0216	1525.1094	21038.6	20090.15
892.1645	1526.9055	20962.3	20014.6
892.3074	1528.7008	20912.1	19965.1
892.4503	1530.4954	20783	19830.2
892.5932	1532.2893	20747.85	19805.6
892.7361	1534.0824	20609.25	19661.55
892.879	1535.8747	20617.85	19679.3
893.0218	1537.6663	20525.45	19581.75
893.1647	1539.4572	20479.9	19539.25
893.3075	1541.2473	20462.45	19519.3
893.4503	1543.0367	20381.6	19439.85
893.5931	1544.8253	20265.35	19317.6
893.7359	1546.6132	20289.7	19344.1
893.8787	1548.4003	20248.95	19298.55
894.0214	1550.1867	20212.05	19261.65
894.1642	1551.9723	20193.8	19250.3
894.3069	1553.7572	20182.05	19243.45
894.4496	1555.5414	20150.05	19208.65
894.5923	1557.3247	20176.75	19239.6
894.735	1559.1074	20210.6	19272.4
894.8777	1560.8893	20228.15	19295.1
895.0204	1562.6705	20233.85	19301.75
895.163	1564.4509	20280.7	19348.1
895.3056	1566.2305	20255.6	19326.2
895.4482	1568.0094	20286.15	19358.5
895.5908	1569.7876	20315.55	19384.7
895.7334	1571.565	20263.65	19326.8
895.876	1573.3417	20261.7	19324.95
896.0186	1575.1176	20231.1	19300.4
896.1611	1576.8928	20153.9	19226.65
896.3036	1578.6672	20058.15	19136.7
896.4461	1580.4409	19948.75	19025.95
896.5886	1582.2138	19855.65	18926.6
896.7311	1583.986	19759.6	18835.9
896.8736	1585.7575	19738.15	18809.1
897.0161	1587.5282	19644.5	18720.1
897.1585	1589.2981	19641.85	18720.3
897.3009	1591.0673	19595.35	18674.65
897.4433	1592.8358	19575.25	18653.4
897.5857	1594.6035	19583.8	18655.7
897.7281	1596.3704	19543.75	18614.5
897.8705	1598.1366	19537.25	18611.9
898.0128	1599.9021	19493	18566.95
898.1551	1601.6668	19491.15	18565.7
898.2975	1603.4308	19546.45	18617.3
898.4398	1605.194	19620.55	18689.8
898.5821	1606.9564	19686	18766.4
898.7243	1608.7182	19754.35	18839.35
898.8666	1610.4791	19860.2	18949.7
899.0088	1612.2394	19969.55	19063.6
899.1511	1613.9988	20084.1	19176.3
899.2933	1615.7576	20216.1	19295.85
899.4355	1617.5156	20381.8	19452
899.5776	1619.2728	20464.3	19534.95
899.7198	1621.0293	20511.85	19587.3
899.862	1622.785	20415.3	19493.9
900.0041	1624.54	20268.25	19351.7
900.1462	1626.2942	20076.45	19160.15
900.2883	1628.0477	19799	18879.65
900.4304	1629.8005	19535.15	18614.4
900.5725	1631.5525	19314.4	18396.9
900.7145	1633.3037	19118.7	18204.35
900.8566	1635.0542	19003.15	18088.2
900.9986	1636.804	18841.05	17925.2
901.1406	1638.553	18835.5	17862.25
901.2826	1640.3013	18693.4	17774.8
901.4245	1642.0488	18615.45	17698.4
901.5665	1643.7955	18604	17691.95
901.7085	1645.5416	18619.85	17703.85
901.8504	1647.2868	18628.45	17711.6
901.9923	1649.0313	18690.25	17772.4
902.1342	1650.7751	18756.2	17837.85
902.2761	1652.5181	18837.85	17919.85
902.4179	1654.2604	18919.45	18002.65
902.5598	1656.0019	19050.75	18136.25
902.7016	1657.7427	19285.3	18365.35
902.8434	1659.4828	19437.45	18517.75
902.9852	1661.222	19567.1	18646.65
903.127	1662.9606	19521.4	18600.4
903.2687	1664.6984	19341.6	18418.15
903.4105	1666.4354	19044.2	18115.55
903.5522	1668.1717	18620	17692.05
903.6939	1669.9072	18123.65	17198
903.8356	1671.642	17770.05	16843.2
903.9773	1673.3761	17474.15	16552.4
904.119	1675.1094	17243.1	16322.65
904.2606	1676.8419	17037.6	16116.7
904.4022	1678.5737	16833.55	15911.7
904.5439	1680.3048	16681.65	15756.85
904.6855	1682.0351	16525.5	15604.65
904.827	1683.7646	16413.4	15488.85
904.9686	1685.4934	16344.95	15424.95
905.1101	1687.2215	16283.6	15362.55
905.2517	1688.9488	16166.95	15250.3
905.3932	1690.6754	16068.25	15152.85
905.5347	1692.4012	16022.2	15100.5
905.6761	1694.1263	15947	15023.15
905.8176	1695.8506	15889.05	14970.65
905.9591	1697.5742	15815.55	14902.05
906.1005	1699.297	15748.05	14836.5
906.2419	1701.0191	15686.85	14778.05
906.3833	1702.7404	15615.2	14701.85
906.5246	1704.461	15510.15	14592
906.666	1706.1808	15432.15	14517.5
906.8073	1707.8999	15409.4	14495.25
906.9487	1709.6182	15368.85	14460.5
907.09	1711.3358	15288.1	14380.2
907.2313	1713.0527	15239	14330.95
907.3725	1714.7688	15193.35	14281.6
907.5138	1716.4841	15132.95	14216.7
907.655	1718.1987	15115.4	14197
907.7962	1719.9126	15073.55	14164.35
907.9374	1721.6257	14996.75	14090.4
908.0786	1723.338	14961.9	14056.45
908.2198	1725.0496	14857.2	13945.9
908.3609	1726.7605	14858.9	13945.25
908.502	1728.4706	14812.25	13901.25
908.6431	1730.18	14719.5	13811
908.7842	1731.8886	14665.7	13760.5
908.9253	1733.5964	14650.85	13723.35
909.0664	1735.3036	14588.6	13677.95
909.2074	1737.0099	14599.1	13691.45
909.3484	1738.7156	14555.3	13648.75
909.4894	1740.4204	14468.15	13558.2
909.6304	1742.1246	14458.15	13541.5
909.7714	1743.8279	14410.05	13502.05
909.9123	1745.5306	14384.8	13478.55
910.0532	1747.2325	14308.1	13403.4
910.1941	1748.9336	14272.8	13364.8
910.335	1750.634	14181.9	13269.45
910.4759	1752.3336	14170.75	13265
910.6168	1754.0325	14184	13282.9
910.7576	1755.7307	14132.5	13226.5
910.8984	1757.4281	14117.95	13210.65
911.0392	1759.1247	14095.6	13174.55
911.18	1760.8206	14081.75	13162.05
911.3208	1762.5158	14075.45	13158.8
911.4615	1764.2102	13990.25	13082.8
911.6022	1765.9039	13939.9	13032.15
911.7429	1767.5968	13888.4	12985.35
911.8836	1769.289	13864.55	12959.4
912.0243	1770.9804	13841	12931.55
912.1649	1772.6711	13813.45	12903.85
912.3056	1774.361	13740.6	12827.6
912.4462	1776.0502	13763.1	12853.65
912.5868	1777.7386	13724.8	12812.8
912.7274	1779.4263	13680.95	12774.75
912.8679	1781.1132	13654.7	12751.45
913.0084	1782.7994	13614.15	12711.65
913.149	1784.4849	13621.2	12719.45
913.2895	1786.1696	13548.45	12638.15
913.4299	1787.8535	13511.65	12610.15
913.5704	1789.5367	13468.7	12569.15
913.7108	1791.2192	13453.15	12550.65
913.8513	1792.9009	13403.3	12473
913.9917	1794.5818	13388.5	12477.75
914.132	1796.2621	13347.2	12439.6
914.2724	1797.9415	13288.05	12378.55
914.4128	1799.6202	13248.25	12340
914.5531	1801.2982	13229.15	12320.1
914.6934	1802.9755	13190.75	12279.9
914.8337	1804.6519	13195.05	12285.9
914.9739	1806.3277	13149.95	12243.6
915.1142	1808.0027	13070.2	12169.1
915.2544	1809.6769	13058.4	12156.6
915.3946	1811.3504	13019.75	12119.2
915.5348	1813.0231	13024.25	12122.8
915.675	1814.6951	13003.45	12102.25
915.8151	1816.3664	12986.05	12078.95
915.9553	1818.0369	12983.45	12077.5
916.0954	1819.7067	12928	12024.15
916.2355	1821.3757	12887.65	11977.85
916.3755	1823.044	12862.85	11956.3
916.5156	1824.7115	12840.25	11931.1
916.6556	1826.3783	12773.2	11867.55
916.7956	1828.0443	12762.95	11859.5
916.9356	1829.7096	12714.75	11807.75
917.0756	1831.3741	12722.4	11812.4
917.2155	1833.0379	12662.3	11758.9
917.3555	1834.701	12633.4	11732.85
917.4954	1836.3633	12613.6	11713.9
917.6353	1838.0248	12545.35	11643.15
917.7751	1839.6856	12555.05	11653.25
917.915	1841.3457	12570.15	11664.2
918.0548	1843.005	12516.5	11609.35
918.1946	1844.6636	12512	11607.6
918.3344	1846.3214	12445.65	11541.1
918.4742	1847.9785	12464	11561.55
918.6139	1849.6349	12434.05	11526.1
918.7537	1851.2904	12394.2	11475.35
918.8934	1852.9453	12386	11476.55
919.0331	1854.5994	12335.7	11425.1
919.1727	1856.2528	12343.15	11433.85
919.3124	1857.9054	12309.3	11404.45
919.452	1859.5572	12305.6	11400.85
919.5916	1861.2083	12299.1	11393.9
919.7312	1862.8587	12280.7	11373.35
919.8708	1864.5084	12238.95	11330.45
920.0103	1866.1572	12197.9	11289.85
920.1498	1867.8054	12144.9	11234.5
920.2893	1869.4528	12118.8	11208.85
920.4288	1871.0994	12085.05	11175.85
920.5683	1872.7453	12076.3	11168.6
920.7077	1874.3905	12034.2	11120.2
920.8471	1876.0349	11959.9	11052.8
920.9865	1877.6786	11995.6	11088.55
921.1259	1879.3215	12002.45	11095.85
921.2653	1880.9637	11956.1	11049.2
921.4046	1882.6051	11947.1	11043.55
921.5439	1884.2458	11886.1	10979.9
921.6832	1885.8858	11863.9	10958.6
921.8225	1887.525	11866.05	10958.65
921.9617	1889.1634	11796.05	10890.2
922.101	1890.8011	11750.8	10843.1
922.2402	1892.4381	11711	10806.4
922.3794	1894.0743	11735.1	10830.55
922.5185	1895.7098	11698.15	10792.7
922.6577	1897.3446	11680.15	10772.3
922.7968	1898.9786	11625.75	10715.25
922.9359	1900.6118	11607.05	10702.65
923.075	1902.2443	11548.9	10641.8
923.214	1903.8761	11519.95	10616.5
923.3531	1905.5071	11475.4	10566.75
923.4921	1907.1374	11436.45	10531.65
923.6311	1908.7669	11413.85	10509.3
923.77	1910.3957	11397.6	10493.2
923.909	1912.0237	11329.3	10426.4
924.0479	1913.651	11309.8	10404.3
924.1868	1915.2776	11292.9	10390.25
924.3257	1916.9034	11241.05	10338.2
924.4646	1918.5285	11201.85	10300.65
924.6034	1920.1528	11161.4	10257.15
924.7422	1921.7764	11153.2	10248.6
924.881	1923.3992	11099.9	10197.75
925.0198	1925.0213	11028.85	10125
925.1586	1926.6427	10994	10091.1
925.2973	1928.2633	11044.15	10074.65
925.436	1929.8832	10965.5	10058.55
925.5747	1931.5023	10902.4	9997.15
925.7134	1933.1207	10899.4	9993.45
925.852	1934.7383	10864.85	9960.5
925.9906	1936.3552	10847.6	9945.7
926.1292	1937.9714	10826.95	9923.35
926.2678	1939.5868	10775.9	9870.3
926.4064	1941.2015	10703	9795.6
926.5449	1942.8154	10681.9	9775.2
926.6834	1944.4286	10648.75	9745.6
926.8219	1946.041	10594.9	9669.65
926.9604	1947.6528	10544.85	9636.65
927.0988	1949.2637	10544.7	9641.2
927.2372	1950.8739	10517.45	9612.75
927.3756	1952.4834	10476.45	9573.2
927.514	1954.0921	10457.8	9555.7
927.6523	1955.7001	10436.35	9531.3
927.7907	1957.3074	10385.75	9488
927.929	1958.9139	10358.3	9460.2
928.0673	1960.5197	10318.1	9419.6
928.2055	1962.1247	10278.9	9380.4
928.3438	1963.729	10225.95	9326.9
928.482	1965.3325	10223.75	9302.5
928.6202	1966.9353	10165.35	9270.95
928.7584	1968.5374	10158.65	9261.5
928.8965	1970.1387	10114	9214.7
929.0346	1971.7393	10067.2	9170.3
929.1727	1973.3392	10044.85	9148.3
929.3108	1974.9383	9982.7	9086.1
929.4489	1976.5366	9943.05	9046.2
929.5869	1978.1342	9974.8	9080.9
929.7249	1979.7311	9904.45	9009.3
929.8629	1981.3273	9898.5	9002.25
930.0009	1982.9227	9870.35	8975.4
930.1388	1984.5173	9853.25	8959.05
930.2767	1986.1112	9812.45	8916.75
930.4146	1987.7044	9804.95	8912.65
930.5525	1989.2968	9749.95	8852.9
930.6904	1990.8885	9736.2	8839.35
930.8282	1992.4795	9697.85	8803.95
930.966	1994.0697	9645	8753.6
931.1038	1995.6592	9642.05	8749.35
931.2415	1997.2479	9622.9	8729.95
931.3793	1998.8359	9592.15	8700.45
931.517	2000.4232	9564.9	8677.5
931.6547	2002.0097	9526	8640.2
931.7923	2003.5955	9477.85	8589.45
931.93	2005.1805	9460.2	8568.55
932.0676	2006.7648	9440.8	8552.35
932.2052	2008.3484	9423.9	8534.6
932.3427	2009.9312	9433.9	8543.9
932.4803	2011.5133	9378.15	8492.65
932.6178	2013.0946	9363.65	8476.9
932.7553	2014.6752	9343.25	8454.3
932.8928	2016.2551	9310.3	8420.9
933.0302	2017.8342	9280	8390.15
933.1676	2019.4126	9270.7	8384.7
933.305	2020.9902	9200.95	8316.05
933.4424	2022.5672	9202.3	8314.65
933.5798	2024.1433	9179.95	8288.15
933.7171	2025.7188	9150.95	8265.9
933.8544	2027.2935	9116.9	8229.15
933.9917	2028.8674	9094.2	8210.5
934.129	2030.4406	9071.2	8188.25
934.2662	2032.0131	9023.55	8140.85
934.4034	2033.5849	9014.25	8121.95
934.5406	2035.1559	8986.45	8102.05
934.6778	2036.7261	8985.2	8096.35
934.8149	2038.2957	8950.2	8059.85
934.952	2039.8645	8937.35	8045.2
935.0891	2041.4325	8912.45	8019.8
935.2262	2042.9998	8876.75	7988.65
935.3632	2044.5664	8872.6	7983.7
935.5002	2046.1323	8848	7960.6
935.6372	2047.6974	8817.55	7932.55
935.7742	2049.2617	8797.55	7911.2
935.9111	2050.8254	8820.1	7910.8
936.048	2052.3883	8769.7	7880.1
936.1849	2053.9504	8736.15	7842.75
936.3218	2055.5118	8707.6	7816.15
936.4586	2057.0725	8682.3	7788.15
936.5955	2058.6325	8658.2	7770.8
936.7323	2060.1917	8620	7734.2
936.869	2061.7502	8632.9	7742.3
937.0058	2063.3079	8580.35	7696.65
937.1425	2064.8649	8559.55	7669.7
937.2792	2066.4212	8566.65	7677.6
937.4159	2067.9767	8530.25	7641.4
937.5525	2069.5315	8493	7604.8
937.6891	2071.0856	8463.2	7575.2
937.8257	2072.6389	8446.2	7560.9
937.9623	2074.1915	8377.65	7492.1
938.0989	2075.7433	8330.3	7441.3
938.2354	2077.2945	8328.95	7441.25
938.3719	2078.8448	8311.4	7420.95
938.5084	2080.3945	8292.8	7401.8
938.6448	2081.9434	8262.75	7373.4
938.7812	2083.4916	8251.5	7358.3
938.9176	2085.039	8209.8	7311.2
939.054	2086.5857	8220.05	7322.6
939.1903	2088.1317	8213.8	7314.45
939.3267	2089.677	8187.8	7286.1
939.463	2091.2215	8161.35	7262.5
939.5992	2092.7652	8123.55	7223.55
939.7355	2094.3083	8110.8	7214
939.8717	2095.8506	8113.85	7221.85
940.0079	2097.3921	8101	7208.7
940.1441	2098.933	8112.15	7219.85
940.2802	2100.4731	8058.4	7165.55
940.4163	2102.0124	8048.95	7148.85
940.5524	2103.5511	8004.05	7108.45
940.6885	2105.089	8010.15	7114.65
940.8245	2106.6261	7983.75	7092.1
940.9606	2108.1626	7957.45	7066.5
941.0965	2109.6983	7960.45	7041.15
941.2325	2111.2332	7920.25	7024.9
941.3684	2112.7675	7905.2	7007.55
941.5044	2114.301	7891.1	6993.65
941.6403	2115.8337	7862.4	6968.4
941.7761	2117.3657	7858.05	6963.1
941.912	2118.897	7834.5	6938.95
942.0478	2120.4276	7807.25	6905.75
942.1835	2121.9575	7761.6	6865.1
942.3193	2123.4866	7748.4	6849.95
942.455	2125.0149	7754.25	6859.1
942.5907	2126.5426	7716.9	6827.55
942.7264	2128.0695	7702.8	6812.45
942.8621	2129.5956	7669.9	6784.35
942.9977	2131.1211	7655.25	6761.15
943.1333	2132.6458	7639.9	6749.55
943.2689	2134.1698	7633.45	6738.9
943.4044	2135.693	7619.15	6718.95
943.54	2137.2155	7597.05	6698.35
943.6755	2138.7373	7573.6	6680.35
943.8109	2140.2584	7531.3	6644.9
943.9464	2141.7787	7511.35	6620.05
944.0818	2143.2983	7485.4	6600.65
944.2172	2144.8171	7454.2	6568.25
944.3526	2146.3353	7460	6571
944.4879	2147.8527	7442	6552
944.6232	2149.3693	7425.45	6529.95
944.7585	2150.8853	7400.25	6503.1
944.8938	2152.4005	7348.95	6451.75
945.029	2153.9149	7353.4	6457.15
945.1642	2155.4287	7424	6425.7
945.2994	2156.9417	7338.9	6442.15
945.4346	2158.454	7289	6396.4
945.5697	2159.9655	7265.75	6375.85
945.7048	2161.4764	7274.85	6384.35
945.8399	2162.9865	7247.2	6358.1
945.9749	2164.4958	7228.35	6339.3
946.1099	2166.0045	7180.95	6287.7
946.2449	2167.5124	7185.4	6293.4
946.3799	2169.0195	7175.2	6284.4
946.5148	2170.526	7176.5	6281.8
946.6498	2172.0317	7160.45	6268.3
946.7846	2173.5367	7100.35	6207.15
946.9195	2175.0409	7116.25	6224.75
947.0543	2176.5445	7095.65	6202.1
947.1891	2178.0473	7082.35	6186.7
947.3239	2179.5494	7045.05	6147.95
947.4587	2181.0507	7019.5	6127.85
947.5934	2182.5513	6989.9	6099.2
947.7281	2184.0512	7013.25	6119.55
947.8628	2185.5504	6974.15	6078.4
947.9974	2187.0488	6950.85	6060.45
948.132	2188.5465	6914.25	6025.1
948.2666	2190.0435	6894.25	6002.05
948.4012	2191.5397	6899.5	6005.6
948.5357	2193.0353	6870.55	5975.3
948.6702	2194.5301	6837.8	5941.05
948.8047	2196.0241	6821.15	5922.8
948.9392	2197.5175	6806.2	5905.55
949.0736	2199.0101	6771.6	5871.6
949.208	2200.502	6738.85	5845.9
949.3424	2201.9931	6732.95	5842.8
949.4767	2203.4835	6698.7	5807.2
949.611	2204.9733	6690.7	5784.55
949.7453	2206.4622	6666.55	5775.4
949.8796	2207.9505	6624.45	5735.45
950.0138	2209.438	6608.75	5723.95
950.148	2210.9248	6599.2	5709.4
950.2822	2212.4109	6576.75	5684.7
950.4164	2213.8962	6546.6	5651.95
950.5505	2215.3809	6545.65	5646
950.6846	2216.8648	6549.5	5651.2
950.8186	2218.3479	6519.6	5615.9
950.9527	2219.8304	6498.2	5595
951.0867	2221.3121	6477.85	5575.55
951.2207	2222.7931	6449.4	5552.7
951.3546	2224.2733	6435.2	5540
951.4886	2225.7529	6392.4	5497.75
951.6225	2227.2317	6387.65	5495
951.7563	2228.7098	6362.4	5473.6
951.8902	2230.1872	6344.15	5456.35
952.024	2231.6638	6349.35	5460.95
952.1578	2233.1397	6308.55	5415.9
952.2916	2234.6149	6296.15	5405.85
952.4253	2236.0894	6272.8	5380.3
952.559	2237.5632	6272.55	5377.95
952.6927	2239.0362	6236.45	5343.9
952.8263	2240.5085	6220.2	5328
952.9599	2241.9801	6212.35	5319.9
953.0935	2243.4509	6198.7	5304
953.2271	2244.921	6166.2	5270.45
953.3606	2246.3904	6149	5250.7
953.4941	2247.8591	6134.95	5237.55
953.6276	2249.3271	6126.7	5230.45
953.7611	2250.7943	6090.9	5194.6
953.8945	2252.2608	6078.3	5183.55
954.0279	2253.7266	6075.9	5182.25
954.1612	2255.1917	6041.95	5146.6
954.2946	2256.656	6011.6	5117.6
954.4279	2258.1197	6012.05	5120.65
954.5612	2259.5826	5997.55	5102.25
954.6944	2261.0447	5981.85	5087.4
954.8276	2262.5062	5962.9	5065.55
954.9608	2263.9669	5953.1	5055.6
955.094	2265.4269	5928.35	5032.1
955.2271	2266.8862	5927.75	5034.05
955.3602	2268.3448	5916.55	5025.05
955.4933	2269.8026	5891.8	5001.35
955.6264	2271.2598	5893.15	5002.15
955.7594	2272.7162	5878.65	4988.55
955.8924	2274.1719	5850.2	4955.5
956.0253	2275.6268	5849.35	4953
956.1583	2277.0811	5838.9	4943.3
956.2912	2278.5346	5793.3	4901.05
956.4241	2279.9874	5794.85	4904.4
956.5569	2281.4395	5783.9	4895.5
956.6897	2282.8908	5776.4	4877.4
956.8225	2284.3414	5755.45	4859.85
956.9553	2285.7914	5724.55	4830.3
957.088	2287.2406	5704.5	4808.7
957.2207	2288.689	5711	4811.8
957.3534	2290.1368	5705.65	4805.35
957.486	2291.5838	5697.9	4795.4
957.6186	2293.0302	5673.45	4772
957.7512	2294.4758	5625.75	4727.85
957.8838	2295.9206	5619.9	4724.5
958.0163	2297.3648	5604.9	4714.35
958.1488	2298.8082	5612.05	4718.6
958.2813	2300.251	5590.65	4694
958.4137	2301.693	5580.85	4681.15
958.5461	2303.1343	5575.4	4676.15
958.6785	2304.5748	5547.85	4653.3
958.8108	2306.0147	5523.55	4633.35
958.9432	2307.4538	5514.85	4622.95
959.0754	2308.8922	5497.7	4609.55
959.2077	2310.3299	5495.95	4607.75
959.3399	2311.7669	5456.95	4567.45
959.4721	2313.2031	5447.4	4555.3
959.6043	2314.6387	5431.7	4535.55
959.7365	2316.0735	5404.6	4511.1
959.8686	2317.5076	5412.45	4516.35
960.0006	2318.941	5400.35	4504.75
960.1327	2320.3737	5394.65	4496.1
960.2647	2321.8056	5372.15	4472.5
960.3967	2323.2369	5360.1	4461.45
960.5287	2324.6674	5354.2	4459.9
960.6606	2326.0972	5329	4433.55
960.7925	2327.5263	5306.2	4411.05
960.9244	2328.9547	5273.8	4375.7
961.0562	2330.3823	5281.95	4382.45
961.1881	2331.8092	5295.2	4393.55
961.3198	2333.2355	5252.25	4351.3
961.4516	2334.661	5254.95	4358.8
961.5833	2336.0858	5223.9	4325.35
961.715	2337.5098	5194.55	4297.55
961.8467	2338.9332	5212.6	4316.2
961.9783	2340.3558	5190.5	4295.5
962.1099	2341.7778	5165.55	4273.05
962.2415	2343.199	5159.5	4266.05
962.373	2344.6195	5157.85	4265.55
962.5045	2346.0393	5131.2	4237.5
962.636	2347.4583	5118.15	4223
962.7675	2348.8767	5123.6	4227.4
962.8989	2350.2943	5105.7	4205.45
963.0303	2351.7113	5104.05	4201.95
963.1617	2353.1275	5094.95	4194.35
963.293	2354.543	5083.8	4161.15
963.4243	2355.9578	5054.2	4157.6
963.5556	2357.3718	5023.35	4128.8
963.6868	2358.7852	5017.05	4120.95
963.818	2360.1978	4992.85	4099.95
963.9492	2361.6098	4985.65	4090.5
964.0803	2363.021	4967.5	4068.6
964.2114	2364.4315	4947.1	4050.3
964.3425	2365.8413	4950.7	4053.35
964.4736	2367.2504	4941.85	4048.35
964.6046	2368.6587	4919.6	4028.85
964.7356	2370.0664	4870.2	3978.55
964.8666	2371.4733	4884.5	3989.45
964.9975	2372.8795	4871.65	3975.5
965.1284	2374.285	4854.45	3957.9
965.2593	2375.6899	4828.1	3935.15
965.3901	2377.0939	4808	3915.35
965.5209	2378.4973	4795.85	3902.9
965.6517	2379.9	4780.45	3886.05
965.7825	2381.3019	4776.75	3882.8
965.9132	2382.7032	4750.15	3859.3
966.0439	2384.1037	4743.7	3854.05
966.1745	2385.5035	4732.9	3843.15
966.3051	2386.9027	4712.65	3822.75
966.4357	2388.3011	4704.95	3809.9
966.5663	2389.6987	4697.55	3804.8
966.6968	2391.0957	4686.35	3796.05
966.8273	2392.492	4647.75	3756.5
966.9578	2393.8876	4628.4	3734.8
967.0882	2395.2824	4624.8	3730
967.2186	2396.6765	4608.3	3713
967.349	2398.07	4611.65	3715.9
967.4793	2399.4627	4581.7	3684.55
967.6097	2400.8547	4555.35	3659.55
967.7399	2402.246	4562.1	3660.35
967.8702	2403.6366	4546.35	3652.65
968.0004	2405.0265	4511.95	3617.7
968.1306	2406.4156	4518.85	3621.35
968.2607	2407.8041	4503.2	3605.6
968.3909	2409.1918	4495.5	3597.05
968.521	2410.5789	4464.8	3567.1
968.651	2411.9652	4459.9	3562.45
968.781	2413.3508	4439.05	3543.35
968.911	2414.7358	4443.45	3547.6
969.041	2416.12	4416.85	3523.95
969.1709	2417.5035	4410.05	3516.4
969.3008	2418.8863	4410.1	3516.45
969.4307	2420.2684	4383.3	3488.4
969.5606	2421.6497	4363.65	3467.1
969.6904	2423.0304	4346.3	3449.35
969.8201	2424.4104	4331.85	3437.25
969.9499	2425.7896	4322.4	3425.6
970.0796	2427.1682	4312.6	3419.75
970.2093	2428.546	4300.65	3407.1
970.3389	2429.9232	4295.3	3397.5
970.4685	2431.2996	4285.6	3388.95
970.5981	2432.6753	4278.15	3382.35
970.7277	2434.0503	4246.6	3350
970.8572	2435.4246	4238.55	3344.65
970.9867	2436.7982	4229.05	3332.15
971.1161	2438.1711	4226.9	3331.85
971.2456	2439.5433	4224.95	3328.95
971.375	2440.9148	4209.55	3307.5
971.5043	2442.2856	4178.85	3285.35
971.6336	2443.6557	4176.2	3278.75
971.7629	2445.025	4163.15	3267.75
971.8922	2446.3937	4157.6	3262.85
972.0214	2447.7617	4132.1	3236.7
972.1506	2449.1289	4125.9	3231.95
972.2798	2450.4955	4124.75	3225.95
972.4089	2451.8613	4116.15	3223.85
972.538	2453.2265	4092.15	3197.2
972.6671	2454.5909	4092.7	3196.6
972.7961	2455.9546	4096.65	3204
972.9251	2457.3177	4081.9	3186.8
973.0541	2458.68	4068.5	3173.05
973.1831	2460.0416	4058.85	3161.1
973.312	2461.4025	4044.9	3147.6
973.4408	2462.7627	4050.15	3147.2
973.5697	2464.1222	4029.5	3139.55
973.6985	2465.4811	4022.15	3129.6
973.8273	2466.8392	3995.55	3101.6
973.956	2468.1966	3997.7	3100.35
974.0847	2469.5533	3990.05	3094.2
974.2134	2470.9093	3988.05	3091.4
974.3421	2472.2645	3983.05	3088.25
974.4707	2473.6191	3982.95	3089.05
974.5993	2474.973	3959.2	3064.75
974.7278	2476.3262	3940.65	3044.6
974.8563	2477.6787	3934.7	3041.4
974.9848	2479.0305	3910.25	3017.35
975.1132	2480.3816	3905.8	3011.75
975.2417	2481.7319	3889.9	2997.9
975.37	2483.0816	3879.5	2986.15
975.4984	2484.4306	3869.85	2976.1
975.6267	2485.7789	3855	2961.05
975.755	2487.1264	3853.45	2959.05
975.8833	2488.4733	3836.15	2944.95
976.0115	2489.8195	3830.2	2932.4
976.1397	2491.165	3808.7	2912.3
976.2678	2492.5097	3811.05	2916.7
976.3959	2493.8538	3779.25	2885.5
976.524	2495.1972	3771.25	2878
976.6521	2496.5398	3768.45	2873.75
976.7801	2497.8818	3756.5	2858.05
976.9081	2499.2231	3736.35	2839.45
977.036	2500.5637	3712.25	2815.15
977.164	2501.9035	3713.35	2815.3
977.2918	2503.2427	3715.6	2817.65
977.4197	2504.5812	3700.4	2804.8
977.5475	2505.919	3701.05	2804.25
977.6753	2507.256	3694.95	2801.85
977.8031	2508.5924	3663.75	2771.3
977.9308	2509.9281	3676.35	2775.2
978.0585	2511.2631	3655.85	2762.35
978.1861	2512.5974	3645.9	2752.6
978.3137	2513.9309	3633.4	2740.35
978.4413	2515.2638	3638.3	2720.75
978.5689	2516.596	3622.35	2727.4
978.6964	2517.9275	3611.25	2714.9
978.8239	2519.2583	3603.35	2710.2
978.9513	2520.5884	3586.65	2691
979.0788	2521.9178	3559.35	2664
979.2062	2523.2465	3543.75	2650.7
979.3335	2524.5745	3554	2662.15
979.4608	2525.9018	3532.45	2639.1
979.5881	2527.2284	3526.55	2633.55
979.7154	2528.5543	3525.1	2633.3
979.8426	2529.8796	3501.8	2608.35
979.9698	2531.2041	3502.2	2610.65
980.0969	2532.5279	3490.3	2598.55
980.224	2533.851	3512.55	2620.35
980.3511	2535.1735	3496.55	2600.45
980.4781	2536.4952	3486.7	2591.85
980.6052	2537.8163	3472.45	2577.05
980.7321	2539.1366	3479.15	2584
980.8591	2540.4562	3455.95	2560.65
980.986	2541.7752	3449.95	2556.55
981.1129	2543.0935	3456.15	2562.6
981.2397	2544.411	3450.25	2554.7
981.3665	2545.7279	3426.2	2532.85
981.4933	2547.0441	3419.2	2520.85
981.62	2548.3596	3430.5	2533.55
981.7467	2549.6744	3428.95	2534.6
981.8734	2550.9885	3411.4	2509.35
982.0001	2552.3019	3394.3	2501.05
982.1267	2553.6146	3406.15	2512.95
982.2532	2554.9266	3392.85	2499.15
982.3798	2556.2379	3380.05	2482.75
982.5063	2557.5485	3367.55	2475.55
982.6327	2558.8585	3364	2462.65
982.7592	2560.1677	3355.65	2457.05
982.8856	2561.4762	3342.65	2445.1
983.0119	2562.7841	3337	2439.5
983.1383	2564.0913	3347.05	2454.5
983.2646	2565.3977	3329.1	2434.85
983.3908	2566.7035	3317.5	2423.4
983.517	2568.0086	3324.75	2427.55
983.6432	2569.313	3320.45	2423.95
983.7694	2570.6167	3321.15	2422.2
983.8955	2571.9197	3301	2405.7
984.0216	2573.222	3296.7	2397.9
984.1476	2574.5236	3297.05	2400.3
984.2737	2575.8246	3284.65	2387.75
984.3996	2577.1248	3279.95	2382
984.5256	2578.4244	3273.7	2379.05
984.6515	2579.7232	3271.35	2378.2
984.7774	2581.0214	3283.1	2358.85
984.9032	2582.3189	3265.6	2371.7
985.029	2583.6157	3258.6	2360.15
985.1548	2584.9118	3245.35	2349.75
985.2806	2586.2072	3239.2	2343.3
985.4063	2587.5019	3226.95	2333.5
985.5319	2588.7959	3223.95	2327.5
985.6576	2590.0893	3238.8	2342.75
985.7832	2591.3819	3224.1	2329.75
985.9087	2592.6739	3205.3	2312.3
986.0343	2593.9652	3212.95	2317.95
986.1597	2595.2557	3192.1	2295.85
986.2852	2596.5456	3191.4	2291.3
986.4106	2597.8348	3185.6	2289.55
986.536	2599.1234	3174.15	2279.95
986.6614	2600.4112	3161.35	2264.7
986.7867	2601.6983	3174	2275.75
986.912	2602.9848	3162.1	2266.95
987.0372	2604.2705	3152.2	2251.25
987.1624	2605.5556	3140.95	2247.55
987.2876	2606.84	3127.15	2234.8
987.4128	2608.1237	3125.8	2230.1
987.5379	2609.4067	3111.1	2217.95
987.6629	2610.689	3104.6	2198.4
987.788	2611.9707	3093.05	2192.55
987.913	2613.2516	3090.85	2190.2
988.0379	2614.5319	3076	2181.95
988.1629	2615.8115	3067.1	2172.3
988.2878	2617.0903	3046.05	2149.95
988.4126	2618.3685	3038.85	2144.8
988.5375	2619.6461	3038.2	2144.9
988.6622	2620.9229	3026.45	2130.25
988.787	2622.199	3021.8	2126.55
988.9117	2623.4745	3022.3	2127.05
989.0364	2624.7493	3018.45	2123.55
989.161	2626.0234	3000	2108
989.2857	2627.2968	2994.25	2101.85
989.4102	2628.5695	2986.65	2090.1
989.5348	2629.8415	2984.4	2092.65
989.6593	2631.1128	2970.15	2075.25
989.7837	2632.3835	2959.55	2067.6
989.9082	2633.6535	2951.7	2057.45
990.0326	2634.9228	2949.25	2056.5
990.1569	2636.1914	2933.9	2041.85
990.2812	2637.4593	2930	2035.75
990.4055	2638.7265	2929.3	2034.65
990.5298	2639.9931	2927.95	2032.1
990.654	2641.259	2920.8	2027.25
990.7782	2642.5242	2909.55	2017.7
990.9023	2643.7887	2894.25	1998.8
991.0264	2645.0525	2901.9	2009.05
991.1505	2646.3156	2892.8	1985.7
991.2745	2647.5781	2880.3	1987.65
991.3985	2648.8398	2858.4	1964.65
991.5225	2650.1009	2881.3	1962.85
991.6464	2651.3613	2864.95	1971.7
991.7703	2652.6211	2858.95	1967.4
991.8942	2653.8801	2837.05	1942.85
992.018	2655.1385	2837.75	1943
992.1418	2656.3961	2837.5	1946.1
992.2655	2657.6531	2843	1949.05
992.3892	2658.9094	2837.5	1946.25
992.5129	2660.1651	2826.55	1934.5
992.6366	2661.42	2811	1920
992.7602	2662.6743	2822.65	1929
992.8837	2663.9279	2812.75	1918.65
993.0073	2665.1808	2800.2	1906.8
993.1307	2666.433	2808.3	1913.6
993.2542	2667.6846	2788.55	1896.65
993.3776	2668.9354	2800.3	1904.95
993.501	2670.1856	2787.35	1893
993.6244	2671.4351	2795.35	1904.95
993.7477	2672.6839	2784.4	1890.5
993.8709	2673.9321	2775.45	1883.4
993.9942	2675.1795	2770.85	1876.55
994.1174	2676.4263	2768.25	1874.15
994.2405	2677.6724	2769.8	1879.65
994.3637	2678.9179	2760.95	1868.6
994.4868	2680.1626	2752	1860.15
994.6098	2681.4067	2750.3	1857.25
994.7328	2682.6501	2746.25	1853.35
994.8558	2683.8928	2738.65	1846.55
994.9788	2685.1348	2730.65	1836.7
995.1017	2686.3761	2728.75	1836.7
995.2245	2687.6168	2713.4	1821.55
995.3474	2688.8568	2705.25	1811.75
995.4702	2690.0961	2720.4	1830.55
995.5929	2691.3348	2683.55	1790.05
995.7156	2692.5727	2689.4	1797.75
995.8383	2693.81	2671.95	1780.6
995.961	2695.0466	2665.8	1774.15
996.0836	2696.2826	2669.8	1776.5
996.2062	2697.5178	2665.95	1770.25
996.3287	2698.7524	2648.45	1753.4
996.4512	2699.9863	2650.95	1756.5
996.5737	2701.2195	2649.45	1757.75
996.6961	2702.452	2650.6	1756.7
996.8185	2703.6839	2649.35	1756.55
996.9408	2704.9151	2638.8	1747.1
997.0631	2706.1456	2632.75	1741.4
997.1854	2707.3755	2634	1741.05
997.3077	2708.6046	2630.2	1733.65
997.4299	2709.8331	2640.85	1747.4
997.552	2711.0609	2627.7	1734
997.6742	2712.2881	2628.25	1737.2
997.7963	2713.5145	2636.95	1742.65
997.9183	2714.7403	2648.35	1757.25
998.0403	2715.9654	2638.45	1746.15
998.1623	2717.1899	2655.6	1751.1
998.2842	2718.4136	2641.6	1750.75
998.4062	2719.6367	2636.9	1744.6
998.528	2720.8591	2646.3	1747.2
998.6498	2722.0809	2642.1	1749.5
998.7716	2723.3019	2650.75	1757.4
998.8934	2724.5223	2660.05	1767.1
999.0151	2725.7421	2637.1	1743.25
999.1368	2726.9611	2642.9	1750.2
999.2584	2728.1795	2636.75	1741.4
999.38	2729.3972	2627.4	1736.7
999.5016	2730.6142	2615.95	1716.95
999.6231	2731.8306	2596	1702.05
999.7446	2733.0462	2583.25	1693.25
999.8661	2734.2612	2570.7	1674.15
999.9875	2735.4756	2555.5	1662.7
1000.1089	2736.6892	2533.8	1642.35
1000.2302	2737.9022	2516.8	1624.85
1000.3515	2739.1145	2502.2	1612.85
1000.4728	2740.3262	2496.5	1597.85
1000.594	2741.5372	2465.2	1573.3
1000.7152	2742.7475	2452	1560.05
1000.8363	2743.9571	2451.1	1558.3
1000.9575	2745.1661	2442.5	1546.15
1001.0785	2746.3744	2426	1535.15
1001.1996	2747.582	2418.25	1529.35
1001.3206	2748.7889	2404.7	1512.3
1001.4415	2749.9952	2402.65	1512.85
1001.5625	2751.2008	2395.4	1503.05
1001.6833	2752.4057	2380.3	1487.55
1001.8042	2753.61	2373.3	1481.4
1001.925	2754.8136	2362.4	1469.05
1002.0458	2756.0165	2363.55	1473
1002.1665	2757.2188	2351.45	1462.25
1002.2872	2758.4204	2354.1	1463.45
1002.4078	2759.6213	2346.45	1456.3
1002.5285	2760.8215	2336.45	1442.75
1002.649	2762.0211	2350.45	1456.95
1002.7696	2763.22	2346.05	1451.1
1002.8901	2764.4182	2337.55	1444.85
1003.0106	2765.6158	2317.05	1425.4
1003.131	2766.8127	2321.1	1429.95
1003.2514	2768.009	2312.55	1424.15
1003.3717	2769.2045	2303.05	1412.85
1003.492	2770.3994	2296.7	1407
1003.6123	2771.5936	2291.1	1399.3
1003.7325	2772.7872	2289.35	1400.45
1003.8527	2773.9801	2281.4	1389.65
1003.9729	2775.1723	2279.55	1373.3
1004.093	2776.3639	2266.2	1376.8
1004.2131	2777.5548	2267.2	1375.2
1004.3331	2778.745	2257.7	1368.25
1004.4531	2779.9346	2256.3	1367.85
1004.5731	2781.1235	2259.1	1367.4
1004.693	2782.3117	2251	1360.95
1004.8129	2783.4992	2251.85	1363.15
1004.9328	2784.6861	2253.05	1363.6
1005.0526	2785.8723	2247.15	1355.85
1005.1723	2787.0579	2241.45	1350.7
1005.2921	2788.2428	2246.15	1358.05
1005.4118	2789.427	2237.8	1349.95
1005.5314	2790.6106	2239.4	1350.65
1005.651	2791.7935	2243.1	1354.65
1005.7706	2792.9757	2245.4	1356.75
1005.8902	2794.1573	2258.6	1367.6
1006.0097	2795.3382	2261.4	1372
1006.1291	2796.5184	2258.45	1370.35
1006.2485	2797.698	2262.65	1372.85
1006.3679	2798.8769	2264.45	1374.5
1006.4873	2800.0551	2276.7	1389.15
1006.6066	2801.2327	2297.3	1406.3
1006.7258	2802.4096	2299.4	1410.65
1006.8451	2803.5859	2308.45	1418.85
1006.9642	2804.7615	2323.25	1432.5
1007.0834	2805.9364	2325.65	1437.6
1007.2025	2807.1106	2331.7	1444.15
1007.3216	2808.2842	2359.15	1468.9
1007.4406	2809.4572	2366.3	1477.8
1007.5596	2810.6294	2396.25	1504.55
1007.6785	2811.801	2419.15	1532.5
1007.7975	2812.972	2443.7	1557.4
1007.9163	2814.1423	2477.8	1589.75
1008.0352	2815.3119	2512.35	1623.05
1008.154	2816.4808	2540.6	1651.6
1008.2727	2817.6491	2576.1	1688.4
1008.3914	2818.8167	2604.5	1715.75
1008.5101	2819.9837	2657.85	1765.45
1008.6288	2821.15	2681.1	1792.55
1008.7474	2822.3157	2708.75	1824.7
1008.8659	2823.4807	2743.15	1854.85
1008.9844	2824.645	2768.15	1880.25
1009.1029	2825.8086	2809.4	1923.25
1009.2214	2826.9716	2849.6	1962.9
1009.3398	2828.134	2886.75	1998.2
1009.4581	2829.2957	2899.35	2012.35
1009.5764	2830.4567	2922.5	2036.15
1009.6947	2831.617	2942.85	2054.95
1009.813	2832.7767	2940.9	2053.3
1009.9312	2833.9358	2941.65	2054.25
1010.0493	2835.0941	2934.8	2046.25
1010.1675	2836.2519	2921.75	2035.65
1010.2855	2837.4089	2905.05	2016.15
1010.4036	2838.5653	2901.3	2013.25
1010.5216	2839.7211	2885.7	1999.1
1010.6396	2840.8761	2883.25	1993.5
1010.7575	2842.0306	2900.95	2013.9
1010.8754	2843.1843	2909.8	2021.6
1010.9932	2844.3374	2939.7	2051.95
1011.111	2845.4899	2975.45	2085.4
1011.2288	2846.6417	3029.6	2142.65
1011.3465	2847.7928	3070.8	2184.4
1011.4642	2848.9433	3126.2	2238.3
1011.5818	2850.0931	3172.4	2287.6
1011.6995	2851.2422	3226.2	2337.9
1011.817	2852.3907	3272.5	2382.85
1011.9345	2853.5385	3317.25	2427.1
1012.052	2854.6857	3350.25	2454.3
1012.1695	2855.8323	3385.1	2499.2
1012.2869	2856.9781	3421.2	2535.75
1012.4042	2858.1233	3446.8	2558.75
1012.5216	2859.2679	3469.4	2581.5
1012.6389	2860.4118	3517	2629.1
1012.7561	2861.555	3560.1	2668.25
1012.8733	2862.6976	3573.3	2684.35
1012.9905	2863.8395	3587.25	2699.8
1013.1076	2864.9808	3616.7	2730
1013.2247	2866.1214	3615.05	2728.9
1013.3417	2867.2614	3636.55	2749.45
1013.4587	2868.4007	3635.5	2746.1
1013.5757	2869.5393	3654.85	2765.55
1013.6926	2870.6773	3649.55	2759.65
1013.8095	2871.8146	3662.3	2772.8
1013.9263	2872.9513	3668.8	2780.95
1014.0431	2874.0874	3654.3	2766.25
1014.1599	2875.2227	3619.95	2733.55
1014.2766	2876.3574	3627.6	2740.9
1014.3933	2877.4915	3597.25	2711.4
1014.51	2878.6249	3579.45	2694.1
1014.6266	2879.7577	3556.45	2667.55
1014.7431	2880.8898	3541.65	2643.9
1014.8596	2882.0212	3521.2	2635.2
1014.9761	2883.152	3498.1	2610.65
1015.0925	2884.2821	3476.55	2592.75
1015.2089	2885.4116	3469.25	2583.5
1015.3253	2886.5405	3479.3	2593.95
1015.4416	2887.6686	3485.3	2597.55
1015.5579	2888.7962	3481.8	2596.15
1015.6741	2889.923	3481	2596.15
1015.7903	2891.0493	3504.8	2618
1015.9065	2892.1748	3498.7	2611.5
1016.0226	2893.2997	3502.95	2615.7
1016.1387	2894.424	3502.4	2618.2
1016.2547	2895.5476	3510.3	2623.85
1016.3707	2896.6706	3526.5	2639.75
1016.4866	2897.7929	3552.65	2667.3
1016.6025	2898.9145	3571.75	2684.35
1016.7184	2900.0355	3580.2	2695.2
1016.8342	2901.1559	3611.5	2725.1
1016.95	2902.2756	3626.45	2740.95
1017.0658	2903.3946	3645.15	2757.65
1017.1815	2904.513	3652.45	2763.6
1017.2971	2905.6308	3677.7	2791.6
1017.4127	2906.7479	3684.6	2797.1
1017.5283	2907.8643	3711.45	2824.75
1017.6439	2908.9801	3701.3	2817.05
1017.7594	2910.0953	3704.6	2820.3
1017.8748	2911.2098	3723.3	2834.45
1017.9902	2912.3236	3713.75	2818.45
1018.1056	2913.4368	3698.85	2808.1
1018.2209	2914.5494	3665.25	2778.65
1018.3362	2915.6613	3656.8	2764.1
1018.4515	2916.7725	3637.15	2750.1
1018.5667	2917.8831	3602.15	2715.15
1018.6819	2918.9931	3586.95	2701.15
1018.797	2920.1024	3553.8	2665.9
1018.9121	2921.211	3532.75	2646.75
1019.0271	2922.319	3511.55	2625.9
1019.1421	2923.4264	3486.05	2601
1019.2571	2924.5331	3485.9	2600.8
1019.372	2925.6391	3477.65	2592.65
1019.4869	2926.7445	3474.4	2590.45
1019.6017	2927.8493	3461.65	2574.95
1019.7165	2928.9534	3474.15	2587.35
1019.8313	2930.0569	3473.5	2584.35
1019.946	2931.1597	3469.4	2583.55
1020.0606	2932.2619	3470.5	2584.4
1020.1753	2933.3634	3454.05	2568.05
1020.2899	2934.4643	3459.55	2565.55
1020.4044	2935.5645	3439.8	2548
1020.5189	2936.6641	3421.15	2529.85
1020.6334	2937.763	3375.9	2492.7
1020.7478	2938.8613	3347.8	2463.15
1020.8622	2939.959	3304.15	2414.95
1020.9765	2941.056	3259.5	2375.5
1021.0908	2942.1523	3191.65	2305.55
1021.2051	2943.248	3139.45	2254.05
1021.3193	2944.3431	3060.55	2175.1
1021.4334	2945.4375	2988.2	2102.65
1021.5476	2946.5313	2908.55	2024.55
1021.6617	2947.6244	2833.9	1947.1
1021.7757	2948.7169	2751.95	1867.8
1021.8897	2949.8087	2687.8	1801.6
1022.0037	2950.8999	2607.3	1720.65
1022.1176	2951.9904	2557	1673.2
1022.2315	2953.0803	2502.8	1618.9
1022.3453	2954.1696	2443.75	1559.95
1022.4591	2955.2582	2411.4	1528.8
1022.5728	2956.3462	2371.65	1486
1022.6865	2957.4335	2331.55	1448.8
1022.8002	2958.5202	2307.55	1420.85
1022.9138	2959.6062	2285.3	1400.25
1023.0274	2960.6916	2259	1375.3
1023.141	2961.7764	2242.5	1357.1
1023.2545	2962.8605	2232.95	1346.65
1023.3679	2963.9439	2221.5	1337.95
1023.4813	2965.0267	2207.05	1320.6
1023.5947	2966.1089	2218.35	1311.4
1023.708	2967.1905	2205.3	1320
1023.8213	2968.2714	2197.1	1315.55
1023.9346	2969.3516	2190.4	1307.3
1024.0478	2970.4312	2203.95	1310.15
1024.1609	2971.5102	2192.7	1308.9
1024.274	2972.5885	2185.9	1302.25
1024.3871	2973.6662	2195.85	1307.4
1024.5002	2974.7432	2180.25	1296.45
1024.6132	2975.8196	2177.95	1293.9
1024.7261	2976.8954	2166.05	1282.2
1024.839	2977.9705	2172.05	1289.9
1024.9519	2979.045	2149.7	1266.75
1025.0647	2980.1188	2126.05	1242.2
1025.1775	2981.192	2117.3	1233.25
1025.2902	2982.2645	2102.7	1218.6
1025.4029	2983.3364	2088.5	1203.15
1025.5156	2984.4077	2066.8	1182.3
1025.6282	2985.4783	2050.85	1161.2
1025.7407	2986.5483	2018.15	1134.55
1025.8532	2987.6177	1988.7	1104.35
1025.9657	2988.6864	1959.3	1075.1
1026.0782	2989.7545	1927	1041.7
1026.1906	2990.8219	1906.1	1022.7
1026.3029	2991.8887	1886.7	1000.1
1026.4152	2992.9548	1864.3	978.7
1026.5275	2994.0204	1837.5	953.05
1026.6397	2995.0852	1806.3	924.85
1026.7519	2996.1495	1786.55	902.55
1026.864	2997.2131	1764.65	880.2
1026.9761	2998.276	1746.85	862.55
1027.0882	2999.3383	1726.85	842.05
1027.2002	3000.4	1720.65	835
1027.3122	3001.4611	1701.2	817.5
1027.4241	3002.5215	1696.95	811.95
1027.536	3003.5812	1677.5	796.25
1027.6478	3004.6404	1660.55	776.7
1027.7596	3005.6989	1661.75	776.65
1027.8714	3006.7567	1657.1	774.7
1027.9831	3007.8139	1651.95	751.1
1028.0947	3008.8705	1629	745.95
1028.2064	3009.9264	1627.45	724.7
1028.3179	3010.9818	1617.75	733.75
1028.4295	3012.0364	1614.2	730.2
1028.541	3013.0905	1606.05	721.7
1028.6524	3014.1439	1606.35	721.15
1028.7638	3015.1966	1598.95	716.15
1028.8752	3016.2487	1591.1	707.7
1028.9865	3017.3002	1599.75	714.65
1029.0978	3018.3511	1582.15	699.55
1029.209	3019.4013	1584.85	701.85
1029.3202	3020.4509	1583.8	703.05
1029.4314	3021.4998	1586.3	703.05
1029.5425	3022.5481	1575.05	692.2
1029.6535	3023.5958	1573.85	690.2
1029.7645	3024.6428	1584.85	700.65
1029.8755	3025.6892	1566.25	685.35
1029.9864	3026.735	1576.5	692.6
1030.0973	3027.7802	1580	696.65
1030.2082	3028.8247	1570.15	687.5
1030.319	3029.8685	1568.75	683.35
1030.4297	3030.9118	1567.95	684.05
1030.5404	3031.9544	1570.15	686.75
1030.6511	3032.9963	1571.8	687.6
1030.7617	3034.0376	1573.4	689
1030.8723	3035.0783	1581.45	694.7
1030.9829	3036.1184	1571.25	686.35
1031.0934	3037.1578	1573	689.65
1031.2038	3038.1966	1578.05	694.2
1031.3142	3039.2348	1571	690.6
1031.4246	3040.2723	1585.4	694.4
1031.5349	3041.3092	1577.1	695.4
1031.6452	3042.3455	1566.75	683.7
1031.7554	3043.3811	1554.65	670.2
1031.8656	3044.4161	1557.25	672.35
1031.9758	3045.4505	1554	670.85
1032.0859	3046.4842	1554.25	670.7
1032.1959	3047.5173	1545.75	663.25
1032.3059	3048.5498	1541.2	658.6
1032.4159	3049.5816	1546.4	663.25
1032.5258	3050.6128	1540	657
1032.6357	3051.6434	1534.6	652.45
1032.7455	3052.6734	1532.3	645.25
1032.8553	3053.7027	1519.35	637
1032.9651	3054.7314	1517.2	634.15
1033.0748	3055.7594	1507.4	624.5
1033.1845	3056.7868	1508.85	627.15
1033.2941	3057.8136	1501.35	616.95
1033.4037	3058.8398	1491.85	610.1
1033.5132	3059.8653	1497.8	616.35
1033.6227	3060.8902	1486.95	604.45
1033.7321	3061.9145	1477.6	594.6
1033.8415	3062.9381	1471.7	590.8
1033.9509	3063.9612	1481.4	584.5
1034.0602	3064.9835	1463.45	581.05
1034.1694	3066.0053	1467.6	582.15
1034.2787	3067.0264	1458.4	576.3
1034.3878	3068.0469	1451.75	567.8
1034.497	3069.0668	1447.3	564.25
1034.6061	3070.086	1437.75	556.5
1034.7151	3071.1046	1435.45	553.95
1034.8241	3072.1226	1433.85	548.85
1034.9331	3073.1399	1423.7	539.2
1035.042	3074.1567	1412.8	527.9
1035.1508	3075.1727	1408.65	524.25
1035.2597	3076.1882	1393.7	511.7
1035.3684	3077.203	1391.85	510.6
1035.4772	3078.2173	1393.5	507.8
1035.5859	3079.2308	1383.6	496.55
1035.6945	3080.2438	1380.95	495.3
1035.8031	3081.2561	1366.25	482.9
1035.9117	3082.2678	1360.8	477.95
1036.0202	3083.2789	1356.35	474.75
1036.1286	3084.2893	1358.8	475.6
1036.2371	3085.2991	1349	464.55
1036.3454	3086.3083	1346	458.75
1036.4538	3087.3169	1337.85	453.25
1036.562	3088.3248	1327.2	445.2
1036.6703	3089.3321	1324.4	440.8
1036.7785	3090.3388	1317.4	435.45
1036.8866	3091.3449	1323.8	442.7
1036.9948	3092.3503	1319.25	434.05
1037.1028	3093.3551	1312.5	431.15
1037.2108	3094.3593	1308.1	427.1
1037.3188	3095.3629	1301.75	421.55
1037.4267	3096.3658	1296	413.3
1037.5346	3097.3681	1295.6	413.9
1037.6425	3098.3698	1298.85	415
1037.7503	3099.3708	1303	415.35
1037.858	3100.3713	1287.15	407.4
1037.9657	3101.3711	1286.65	406.95
1038.0734	3102.3702	1420.9	394.9
1038.181	3103.3688	1283.95	400.85
1038.2886	3104.3667	1264.65	383.65
1038.3961	3105.364	1273.3	391.95
1038.5036	3106.3607	1268.8	384.85
1038.611	3107.3568	1266.65	382.4
1038.7184	3108.3522	1259.8	378.65
1038.8257	3109.347	1261.4	378.25
1038.933	3110.3412	1265.05	378.45
1039.0403	3111.3348	1251.45	370.85
1039.1475	3112.3277	1250.4	368.85
1039.2547	3113.32	1251.5	368.7
1039.3618	3114.3117	1246.75	363.45
1039.4689	3115.3028	1245.45	362.6
1039.5759	3116.2932	1244.6	362.7
1039.6829	3117.2831	1241.7	352.8
1039.7898	3118.2723	1234.6	353.4
1039.8967	3119.2608	1235.2	354.75
1040.0035	3120.2488	1225.75	344.85
1040.1103	3121.2361	1232.85	351.5
1040.2171	3122.2229	1232.45	351.8
1040.3238	3123.209	1225.9	343.45
1040.4305	3124.1944	1219.75	337.75
1040.5371	3125.1793	1223.3	339.35
1040.6437	3126.1635	1217.5	338.5
1040.7502	3127.1471	1216.15	335.9
1040.8567	3128.1301	1215.7	335.65
1040.9631	3129.1125	1211.75	329.05
1041.0695	3130.0942	1208.2	327.25
1041.1759	3131.0753	1216.05	325.7
1041.2822	3132.0558	1216.5	332.45
1041.3884	3133.0357	1205.75	321.7
1041.4946	3134.015	1205.35	323.55
1041.6008	3134.9936	1201.4	317.65
1041.7069	3135.9716	1220.65	319.45
1041.813	3136.949	1194.55	311.95
1041.919	3137.9258	1212.2	313.65
1042.025	3138.902	1201.05	313.8
1042.1309	3139.8775	1196.95	316.15
1042.2368	3140.8524	1189.45	307.85
1042.3427	3141.8267	1188.3	302.55
1042.4485	3142.8004	1189	307.45
1042.5542	3143.7735	1195.8	307.1
1042.6599	3144.7459	1190.15	307.8
1042.7656	3145.7178	1185.6	304.35
1042.8712	3146.689	1183.55	304.3
1042.9768	3147.6596	1182.15	297.45
1043.0823	3148.6295	1178.7	296.2
1043.1878	3149.5989	1175.8	296.3
1043.2932	3150.5676	1172.15	291.25
1043.3986	3151.5357	1173.7	293.75
1043.5039	3152.5032	1166.95	286.9
1043.6092	3153.4701	1168	287.2
1043.7145	3154.4364	1168.75	284.35
1043.8197	3155.402	1170.05	291.05
1043.9248	3156.367	1159.95	277.05
1044.03	3157.3315	1195.25	275.35
1044.135	3158.2952	1157.95	276.95
1044.24	3159.2584	1156.25	275.5
1044.345	3160.221	1154.2	269.35
1044.4499	3161.1829	1151.95	271.8
1044.5548	3162.1442	1152.2	270.75
1044.6596	3163.105	1152.2	270.45
1044.7644	3164.065	1143.5	261.3
1044.8692	3165.0245	1144	262.15
1044.9739	3165.9834	1142.95	263.55
1045.0785	3166.9416	1142.9	261.85
1045.1831	3167.8993	1143.85	262.4
1045.2877	3168.8563	1147.55	266.8
1045.3922	3169.8127	1141.15	259.75
1045.4966	3170.7684	1136.15	255.05
1045.6011	3171.7236	1139.55	256.65
1045.7054	3172.6782	1133.25	252.85
1045.8098	3173.6321	1136.55	254.2
1045.914	3174.5854	1138.6	254.55
1046.0183	3175.5381	1131.8	249.45
1046.1224	3176.4902	1131.85	249.8
1046.2266	3177.4417	1130.05	249.25
1046.3307	3178.3926	1127.75	245.4
1046.4347	3179.3428	1126.3	247.5
1046.5387	3180.2924	1128	246.5
1046.6427	3181.2415	1123.85	241.85
1046.7466	3182.1899	1123.95	242
1046.8504	3183.1377	1123.45	243.05
1046.9542	3184.0848	1122.95	239.8
1047.058	3185.0314	1120.5	237.8
1047.1617	3185.9773	1116.15	235.6
1047.2654	3186.9227	1122.35	239.75
1047.369	3187.8674	1114.8	234.3
1047.4726	3188.8115	1117.35	232
1047.5761	3189.755	1109.95	230
1047.6796	3190.6979	1108.45	228.4
1047.783	3191.6402	1108.55	227.65
1047.8864	3192.5818	1108.35	227.2
1047.9898	3193.5229	1115.3	228.45
1048.0931	3194.4633	1106.6	225.4
1048.1963	3195.4031	1107.25	226.95
1048.2995	3196.3423	1102.05	222.95
1048.4027	3197.2809	1104.55	223.55
1048.5058	3198.2189	1103.95	222.9
1048.6089	3199.1563	1107.6	220.2
1048.7119	3200.0931	1103.05	222.1
1048.8148	3201.0292	1096.3	218.55
1048.9178	3201.9648	1093.95	211.75
1049.0206	3202.8997	1099.95	218.1
1049.1235	3203.834	1092.3	209.35
1049.2262	3204.7677	1089.8	208
1049.329	3205.7008	1092.15	210.1
1049.4317	3206.6333	1092.55	212.25
1049.5343	3207.5652	1091.1	208.95
1049.6369	3208.4964	1088.6	207.7
1049.7394	3209.4271	1089.25	210.05
1049.8419	3210.3571	1087.35	207.3
1049.9444	3211.2865	1089.2	209.6
1050.0468	3212.2154	1086.6	205.3
1050.1491	3213.1436	1083.7	200.7
1050.2514	3214.0712	1089.85	201.35
1050.3537	3214.9982	1081.15	201
1050.4559	3215.9246	1077.45	194.6
1050.5581	3216.8503	1078.25	197.95
1050.6602	3217.7755	1076.2	194.85
1050.7623	3218.7001	1079.6	200.1
1050.8643	3219.624	1077.95	196.2
1050.9663	3220.5473	1074.7	192.6
1051.0682	3221.4701	1077.15	198.6
1051.1701	3222.3922	1075	192.7
1051.2719	3223.3137	1073.4	194.25
1051.3737	3224.2346	1071.05	190.25
1051.4754	3225.1549	1071.85	190.5
1051.5771	3226.0746	1070	191.85
1051.6788	3226.9937	1066.1	184
1051.7804	3227.9121	1065.05	184.95
1051.8819	3228.83	1071.2	191
1051.9834	3229.7473	1067.25	186.45
1052.0849	3230.6639	1063.25	183.7
1052.1863	3231.5799	1060.55	177.9
1052.2876	3232.4954	1061.85	180.7
1052.3889	3233.4102	1056.45	177.65
1052.4902	3234.3244	1058.9	177.9
1052.5914	3235.238	1058.95	180.05
1052.6926	3236.151	1085.6	179
1052.7937	3237.0634	1056.55	177.35
1052.8948	3237.9752	1053.35	170.85
1052.9958	3238.8864	1047.55	168.65
1053.0968	3239.797	1052.4	172.65
1053.1977	3240.7069	1053.85	174.4
1053.2986	3241.6163	1054.45	172.15
1053.3994	3242.5251	1049.9	170.5
1053.5002	3243.4332	1047.5	167.25
1053.6009	3244.3408	1051	172.1
1053.7016	3245.2477	1046.95	164.95
1053.8022	3246.154	1048.5	166.45
1053.9028	3247.0598	1048.05	165.75
1054.0034	3247.9649	1044.05	163.6
1054.1039	3248.8694	1042.7	163.1
1054.2043	3249.7733	1041.65	161.15
1054.3047	3250.6766	1040.95	162.05
1054.4051	3251.5793	1037.7	156.75
1054.5054	3252.4814	1034.15	153.35
1054.6056	3253.3829	1038.9	156.75
1054.7058	3254.2838	1037.4	158.05
1054.806	3255.1841	1031.05	150.4
1054.9061	3256.0838	1034.15	156.65
1055.0061	3256.9829	1033.45	154.15
1055.1062	3257.8814	1031.6	150.75
1055.2061	3258.7792	1029.2	147.95
1055.306	3259.6765	1029.65	148.15
1055.4059	3260.5731	1025.15	146.15
1055.5057	3261.4692	1022.2	141.95
1055.6055	3262.3647	1023.15	142.25
1055.7052	3263.2595	1020.05	142.9
1055.8049	3264.1538	1015.75	135.05
1055.9045	3265.0474	1018.7	138.45
1056.0041	3265.9404	1013.8	135.55
1056.1036	3266.8329	1008.55	127.85
1056.2031	3267.7247	1019.45	129.7
1056.3025	3268.616	1004.45	126.7
1056.4019	3269.5066	1004.1	125.25
1056.5013	3270.3966	1001.15	119.85
1056.6005	3271.286	993.85	114.25
