Software Version:	3.9.2.0
Unit SN:	10000200
Spectrometer SN:	6960
Date:	3/26/2024 1:53:48 PM
Data Line Index:	25
Spectral Points:	2048
Integration time (ms):	125
Averages:	20
Delay (ms):	30000
Sequence Number:	1
Processing:	dark subtract
Laser Power (mW):	305
Laser Current (mA):	822
Laser Diode Temp (C):	25
Laser Case Temp (C):	27.3
System Temp (C):	27.3
Spectrometer Temp (C):	25.2
CCD Temp (C):	0.009
Secondary Temp (C):	20.01
Heatsink Temp (C):	22.503
CCDPCB Temp (C):	36.752
SecondaryPCB Temp (C):	34.395

Wavelength	RamanShift	Raw Counts	Dark Subtracted
787.061	30.1047	602.35	193.15
787.2016	32.3739	609.7	201.35
787.3422	34.6426	622.2	214.2
787.4828	36.9109	638.05	227.6
787.6235	39.1787	656.95	242.85
787.7642	41.4461	677.35	258.2
787.9049	43.7131	698.7	276.25
788.0456	45.9796	713.9	286.65
788.1863	48.2456	740.3	306.95
788.3271	50.5112	755.65	319.05
788.4679	52.7764	775.7	338.5
788.6087	55.0411	810.2	369.25
788.7496	57.3054	835.4	390.55
788.8904	59.5692	856.65	408.05
789.0313	61.8326	886.6	433.85
789.1722	64.0955	921.75	463.2
789.3132	66.3579	965.1	502.6
789.4541	68.6199	1016.75	552.35
789.5951	70.8815	1093.95	628.45
789.7361	73.1426	1273.2	801.25
789.8771	75.4032	1701.5	1223.35
790.0181	77.6634	2787.05	2302.05
790.1592	79.9231	5451.5	4958.95
790.3003	82.1824	11571.6	11062.65
790.4414	84.4412	24030.3	23487.4
790.5825	86.6995	46311.45	45722.55
790.7237	88.9574	58893.5	58264.4
790.8648	91.2148	63062.85	62405.4
791.006	93.4717	63674.5	62998.35
791.1472	95.7282	63892.55	63205.45
791.2885	97.9842	63962.45	63273.85
791.4297	100.2398	63928	63232.2
791.571	102.4949	63875.6	63179.55
791.7123	104.7495	63874.5	63175.7
791.8536	107.0036	63766.1	63069.75
791.9949	109.2573	63832.65	63131.55
792.1363	111.5105	63705.4	63007.45
792.2777	113.7632	63708.25	63006
792.4191	116.0154	63719.4	63005.2
792.5605	118.2672	63759.1	63053
792.7019	120.5185	63746.4	63039.1
792.8434	122.7693	63737.5	63026.8
792.9849	125.0197	63620.7	62908.45
793.1264	127.2696	63805.2	63090.9
793.2679	129.519	63771.1	63049.95
793.4094	131.7679	63830.85	63107.15
793.551	134.0163	63602.35	62875.7
793.6926	136.2642	63694.1	62965.05
793.8342	138.5117	63800.7	63063.95
793.9758	140.7587	63725.2	62992.05
794.1175	143.0052	63706.75	62970.55
794.2591	145.2512	63575.2	62840.35
794.4008	147.4967	63728.2	62989.7
794.5425	149.7417	63677.25	62936.85
794.6842	151.9863	63646.25	62903.75
794.826	154.2304	63568.65	62823.35
794.9677	156.4739	63617.9	62862.35
795.1095	158.717	63702.7	62946.45
795.2513	160.9596	63620.4	62858.9
795.3931	163.2017	63485.7	62729.65
795.535	165.4433	63595.35	62834.1
795.6768	167.6844	63474.3	62713.7
795.8187	169.925	63558.05	62798.55
795.9606	172.1651	63454.95	62694.7
796.1025	174.4047	63468.55	62700.25
796.2445	176.6439	63433.6	62662.8
796.3864	178.8825	63352.55	62579.4
796.5284	181.1206	63516	62740.4
796.6704	183.3582	63464.5	62688.15
796.8124	185.5954	63380.9	62597.2
796.9544	187.832	63386.85	62605.6
797.0965	190.0681	63275.15	62486.95
797.2386	192.3037	63456.5	62666.15
797.3806	194.5388	63584.55	62789.4
797.5228	196.7734	63181.55	62379.85
797.6649	199.0075	63582.7	62782.85
797.807	201.2411	63467.35	62660.4
797.9492	203.4742	63630.15	62824.8
798.0914	205.7068	63599.65	62791.75
798.2336	207.9389	63596.55	62787.75
798.3758	210.1704	63588.1	62779.85
798.518	212.4015	63697.6	62888.85
798.6603	214.632	63559.65	62750.9
798.8025	216.862	63708.9	62905.25
798.9448	219.0915	63633.4	62843.4
799.0871	221.3205	63635.15	62843.55
799.2294	223.549	63742.35	62950.3
799.3718	225.777	63743.5	62956
799.5141	228.0044	63802.9	63010.15
799.6565	230.2314	63778.35	62993.45
799.7989	232.4578	63790.9	63002.9
799.9413	234.6837	63822.3	63022.2
800.0837	236.909	64006.5	63208.25
800.2262	239.1339	63737.35	62914.45
800.3687	241.3582	63836.7	63026.55
800.5111	243.582	63832.05	62996.7
800.6536	245.8053	63843.55	63017.2
800.7961	248.0281	63839.4	63017.35
800.9387	250.2503	63850.45	63023.9
801.0812	252.472	63763.3	62930.35
801.2238	254.6932	63818.2	62984.85
801.3664	256.9139	63786.15	62952.05
801.509	259.134	63976	63139.25
801.6516	261.3536	63758.15	62923.2
801.7942	263.5727	63881.4	63040.25
801.9369	265.7912	63833.7	62997.5
802.0795	268.0092	63858.6	63019.3
802.2222	270.2267	63889.1	63057.4
802.3649	272.4436	63811.45	62975.9
802.5076	274.6601	63884	63038.2
802.6504	276.8759	63912.2	63075.15
802.7931	279.0913	63843.95	63004
802.9359	281.3061	63854.95	63012.3
803.0787	283.5204	63864.55	63013.8
803.2215	285.7341	63854.9	63004.65
803.3643	287.9473	63947.75	63087.95
803.5071	290.16	63884.2	63031
803.6499	292.3721	63940.1	63087.65
803.7928	294.5837	63885.15	63029.55
803.9357	296.7947	63851.9	63001.35
804.0786	299.0052	63983	63130.8
804.2215	301.2152	63919.35	63065.15
804.3644	303.4246	63952.85	63101.85
804.5074	305.6334	63941.15	63091.3
804.6503	307.8418	63804.1	62952.45
804.7933	310.0495	63810.3	62958.6
804.9363	312.2568	63769.2	62911.55
805.0793	314.4635	63748.7	62894.45
805.2223	316.6696	63783.75	62923.85
805.3653	318.8752	63832.5	62968.8
805.5084	321.0802	63640	62783.05
805.6514	323.2847	63727.15	62865.8
805.7945	325.4887	63719.05	62859.1
805.9376	327.692	63669.3	62801.75
806.0807	329.8949	63714.2	62852.4
806.2238	332.0972	63665.05	62799.7
806.367	334.2989	63665.95	62798.85
806.5101	336.5001	63696.55	62829.35
806.6533	338.7007	63553.15	62682.35
806.7965	340.9008	63631.85	62760.05
806.9397	343.1003	63630.7	62759.5
807.0829	345.2992	63669.2	62798.45
807.2261	347.4976	63596.65	62724.8
807.3693	349.6955	63596.85	62720.5
807.5126	351.8927	63572.2	62694.75
807.6559	354.0895	63608.15	62722
807.7991	356.2856	63592.1	62714.05
807.9424	358.4812	63659.6	62782.4
808.0857	360.6763	63566.15	62686.65
808.2291	362.8707	63651.4	62770.2
808.3724	365.0646	63595.95	62714.75
808.5158	367.258	63586.35	62703.85
808.6591	369.4508	63512.05	62622.65
808.8025	371.643	63642.3	62753.95
808.9459	373.8346	63585.05	62696.7
809.0893	376.0257	63580	62686.6
809.2327	378.2162	63544.8	62657
809.3762	380.4062	63484.55	62591.75
809.5196	382.5956	63539.15	62643.9
809.6631	384.7844	63521.4	62631.95
809.8066	386.9726	63536.6	62642.05
809.9501	389.1603	63513.5	62620.65
810.0936	391.3474	63438.65	62507.35
810.2371	393.5339	63496.7	62608.4
810.3806	395.7199	63393.25	62506
810.5241	397.9052	63413.8	62528.75
810.6677	400.09	63434.55	62556.2
810.8113	402.2743	63493.8	62612.65
810.9548	404.4579	63415.45	62533.95
811.0984	406.641	63436.35	62550.6
811.2421	408.8235	63488.25	62608
811.3857	411.0054	63509.7	62628.35
811.5293	413.1868	63523.6	62637.75
811.673	415.3675	63509.55	62621.3
811.8166	417.5477	63523.45	62632.5
811.9603	419.7273	63525.3	62632.15
812.104	421.9064	63506.5	62609.95
812.2477	424.0848	63500.95	62606.1
812.3914	426.2627	63523.15	62630.85
812.5351	428.4399	63429.9	62537.5
812.6788	430.6166	63309.25	62406.4
812.8226	432.7928	63392.1	62492
812.9663	434.9683	63288.3	62388.8
813.1101	437.1432	63260.8	62364.3
813.2539	439.3176	63304.4	62411.5
813.3977	441.4914	63141.75	62250.7
813.5415	443.6645	63196.25	62300.4
813.6853	445.8371	63206.95	62306.95
813.8291	448.0091	63108.15	62210.8
813.973	450.1806	63034.75	62138.25
814.1168	452.3514	63065.25	62169.15
814.2607	454.5216	62957	62054.85
814.4046	456.6913	63066.7	62164.5
814.5485	458.8603	63112.3	62214.7
814.6924	461.0288	62952.75	62057.9
814.8363	463.1967	63100.55	62210
814.9802	465.3639	63069	62170.6
815.1241	467.5306	62781.25	61882.65
815.2681	469.6967	62974.45	62078.75
815.412	471.8622	63055.85	62164.65
815.556	474.0271	62960.3	62064.7
815.7	476.1914	62969.8	62064.8
815.844	478.3551	63004.95	62105
815.988	480.5182	63148.25	62249.5
816.132	482.6807	62934.15	62039.45
816.276	484.8426	62990.1	62104.2
816.4201	487.0039	63182.55	62290.65
816.5641	489.1647	63208.1	62311.25
816.7082	491.3248	63038.65	62137.25
816.8522	493.4843	63253.15	62356.05
816.9963	495.6432	63258.35	62360.65
817.1404	497.8015	63010.85	62104.7
817.2845	499.9592	63156.25	62251.1
817.4286	502.1163	63124.15	62214.75
817.5727	504.2728	63075.65	62170.25
817.7168	506.4287	63029.85	62134.25
817.861	508.5839	62881.45	61985.05
818.0051	510.7386	62982.85	62083.65
818.1493	512.8927	62977.3	62069.55
818.2935	515.0461	62913.95	62010.1
818.4377	517.199	63029.8	62122.85
818.5818	519.3512	62883.6	61975.9
818.726	521.5029	62894.85	61985.25
818.8703	523.6539	62914.8	62007.8
819.0145	525.8043	62724.65	61813.7
819.1587	527.9541	62899.95	61988.45
819.303	530.1033	62920.25	62013.45
819.4472	532.2519	62805.6	61898.9
819.5915	534.3999	62961.1	62050.4
819.7357	536.5472	63015.5	62108.4
819.88	538.694	62804.5	61898.15
820.0243	540.8401	62989.8	62082.05
820.1686	542.9856	63062.85	62142.45
820.3129	545.1305	63123.6	62203.65
820.4572	547.2748	62961	62038.75
820.6016	549.4185	62919.4	61991.9
820.7459	551.5615	63035.8	62115.25
820.8902	553.704	62975.9	62054.3
821.0346	555.8458	62863.6	61948.1
821.1789	557.987	62905.95	61991.6
821.3233	560.1276	62968.45	62051.25
821.4677	562.2675	62920.5	61999.4
821.6121	564.4069	62972	62053.25
821.7565	566.5456	63074.35	62162.7
821.9009	568.6837	62890.6	61972.85
822.0453	570.8212	62900.2	61982.45
822.1897	572.958	62627.1	61714.05
822.3342	575.0942	62772	61859.75
822.4786	577.2299	62587.5	61679.75
822.6231	579.3648	62544.35	61641.55
822.7675	581.4992	62482.2	61584.85
822.912	583.6329	62485.7	61592.1
823.0565	585.766	62515.6	61615.3
823.201	587.8985	62571	61666.65
823.3454	590.0304	62313.05	61378.45
823.4899	592.1616	62547	61632.95
823.6345	594.2922	62393.15	61472.6
823.779	596.4222	62198.2	61277.35
823.9235	598.5515	62233.7	61313.45
824.068	600.6802	62357.85	61439.05
824.2126	602.8083	62063.85	61145.85
824.3571	604.9358	62028.3	61107.85
824.5017	607.0626	62215.05	61294.85
824.6462	609.1888	61829.7	60904.55
824.7908	611.3144	62119.3	61193.5
824.9354	613.4393	61987.1	61059.1
825.08	615.5636	61735.8	60808.1
825.2246	617.6873	62000.45	61077.6
825.3692	619.8103	61635.1	60712.25
825.5138	621.9327	61985.65	61061.9
825.6584	624.0544	61977.25	61059.95
825.803	626.1756	61769.85	60851.95
825.9477	628.2961	61741.95	60823.75
826.0923	630.4159	61574.45	60653.55
826.237	632.5351	61465.2	60541.05
826.3816	634.6537	61989.75	61066.5
826.5263	636.7716	61411.9	60483.6
826.6709	638.8889	61568.9	60635.9
826.8156	641.0056	61509.25	60578.4
826.9603	643.1216	61619.65	60688.4
827.105	645.237	61754.1	60826.1
827.2497	647.3518	61375.8	60455.65
827.3944	649.4659	61489.75	60570.1
827.5391	651.5793	61494.6	60575.25
827.6838	653.6922	61605.5	60686.85
827.8285	655.8043	61137.75	60217.8
827.9733	657.9159	61694.95	60774.05
828.118	660.0268	60704.3	59784.05
828.2627	662.137	61277.05	60348.3
828.4075	664.2466	61363	60435.25
828.5522	666.3556	61137.85	60210.2
828.697	668.4639	61284.05	60354.55
828.8418	670.5716	61050.25	60129.8
828.9865	672.6786	61255.6	60327.95
829.1313	674.785	60939.4	60008.45
829.2761	676.8907	60979.7	60051.4
829.4209	678.9958	61125.85	60201.2
829.5657	681.1002	61171	60245.35
829.7105	683.204	60855.75	59921.9
829.8553	685.3072	60703.7	59771.85
830.0001	687.4097	60788.6	59859.1
830.1449	689.5115	60656.5	59724.7
830.2898	691.6127	60964.55	60039.05
830.4346	693.7132	60658.35	59734.6
830.5794	695.8131	60750.55	59809.2
830.7243	697.9123	60797.05	59864.65
830.8691	700.0109	60806.65	59873.45
831.014	702.1089	60418.05	59490.8
831.1588	704.2061	60554.1	59623.15
831.3037	706.3028	60581.2	59651.55
831.4486	708.3987	60669.5	59736.05
831.5935	710.4941	60498.85	59567.1
831.7383	712.5887	60716.35	59789.4
831.8832	714.6827	60609.8	59679.25
832.0281	716.7761	60830.7	59906.55
832.173	718.8688	60930.7	60000.15
832.3179	720.9608	60669.1	59736.05
832.4628	723.0522	60716.2	59777.65
832.6077	725.1429	60471.1	59536.1
832.7527	727.233	61138.7	60205.05
832.8976	729.3224	60017.85	59086.6
833.0425	731.4112	60374.15	59445.6
833.1874	733.4993	60326.75	59393.95
833.3324	735.5867	60292.25	59362.35
833.4773	737.6735	60024.25	59091.95
833.6222	739.7596	59709.75	58775.95
833.7672	741.845	59689.6	58758.6
833.9122	743.9298	60059.15	59122.65
834.0571	746.014	59668.35	58738.15
834.2021	748.0974	59344.05	58407.8
834.347	750.1802	59943.25	59004.3
834.492	752.2624	59157	58223.1
834.637	754.3439	59257.45	58321.7
834.782	756.4247	59459.7	58514.45
834.9269	758.5048	59196.85	58262.6
835.0719	760.5843	59412.8	58472.1
835.2169	762.6631	59609.85	58674.7
835.3619	764.7413	59613.7	58678.95
835.5069	766.8188	59809.1	58871.7
835.6519	768.8956	60098.25	59160.85
835.7969	770.9718	60094.85	59160.8
835.9419	773.0473	59938.4	59001.3
836.0869	775.1221	59488.6	58555.5
836.232	777.1962	59436.65	58500.95
836.377	779.2697	58968	58028.5
836.522	781.3426	59243.25	58294.8
836.667	783.4147	59357.2	58417.85
836.8121	785.4862	59274.75	58340.65
836.9571	787.557	58924.6	57989.35
837.1021	789.6271	59203.45	58267
837.2472	791.6966	58642.9	57707.05
837.3922	793.7654	58091.4	57152.55
837.5373	795.8335	58008.25	57074.05
837.6823	797.901	57982.65	57044.05
837.8274	799.9678	57723.1	56780.35
837.9724	802.0339	57638.8	56704.5
838.1175	804.0993	57704.55	56755.15
838.2626	806.1641	57515.05	56576.35
838.4076	808.2282	57381.75	56444.9
838.5527	810.2916	57278.6	56336.45
838.6978	812.3544	57474.2	56540.05
838.8428	814.4164	56912.75	55978.2
838.9879	816.4778	57070.8	56128.85
839.133	818.5385	57034.95	56092.15
839.2781	820.5986	57052.7	56108.35
839.4232	822.658	57173.75	56232
839.5682	824.7166	57291.7	56355.05
839.7133	826.7747	57008.15	56071.5
839.8584	828.832	57332.4	56395.4
840.0035	830.8886	57614.95	56675.35
840.1486	832.9446	57614.7	56672
840.2937	834.9999	56881.65	55944.55
840.4388	837.0545	57149.45	56209.75
840.5839	839.1085	57201.6	56259.7
840.729	841.1618	56956.55	56015.05
840.8741	843.2143	56452.2	55515.65
841.0192	845.2662	56313.6	55376.15
841.1643	847.3175	56480.75	55544.8
841.3095	849.368	55875.05	54937.5
841.4546	851.4179	56237.6	55299.35
841.5997	853.467	55802.1	54864.05
841.7448	855.5155	55945.4	55007.45
841.8899	857.5633	55565.05	54624.6
842.0351	859.6105	55333.55	54395.65
842.1802	861.6569	55515.6	54576.6
842.3253	863.7027	55035.35	54094.75
842.4704	865.7478	55231.8	54290.25
842.6156	867.7922	55077.6	54139.05
842.7607	869.8359	55256.55	54319.75
842.9058	871.8789	54757.05	53813.1
843.0509	873.9212	55088.5	54117.85
843.1961	875.9629	55143.4	54203.65
843.3412	878.0039	55101.9	54159.05
843.4863	880.0441	54988.95	54049.6
843.6315	882.0837	54963.7	54022.75
843.7766	884.1226	54951.85	54010
843.9218	886.1609	54857.65	53917.9
844.0669	888.1984	54637.1	53700.05
844.212	890.2352	55037.2	54097.2
844.3572	892.2714	54550.8	53603.8
844.5023	894.3069	54683.6	53745.1
844.6475	896.3416	54387	53447.8
844.7926	898.3757	54277	53337.6
844.9377	900.4091	53760.8	52817.2
845.0829	902.4418	54269	53322.55
845.228	904.4739	53921.05	52973.75
845.3732	906.5052	54058.05	53114.4
845.5183	908.5358	53726.9	52783.5
845.6635	910.5658	53486	52542.25
845.8086	912.595	53360.3	52419.15
845.9538	914.6236	52746.05	51801.55
846.0989	916.6515	53446.7	52506.7
846.2441	918.6786	52513.6	51569.55
846.3892	920.7051	52714	51768.35
846.5344	922.7309	52701.6	51760.55
846.6795	924.756	52759.65	51818.95
846.8246	926.7804	52537.35	51592.55
846.9698	928.8041	51918.2	50978.15
847.1149	930.8272	52302.95	51359.2
847.2601	932.8495	52187.9	51242.3
847.4052	934.8711	51750.35	50807.75
847.5504	936.892	51486.2	50544.5
847.6955	938.9123	51561.75	50618.6
847.8407	940.9318	51278.35	50336.55
847.9858	942.9506	51146.2	50205.1
848.131	944.9688	51114.7	50171.05
848.2761	946.9862	50525.95	49585.4
848.4213	949.003	50563.45	49619.75
848.5664	951.019	50113.6	49173.55
848.7115	953.0344	50120.25	49181.15
848.8567	955.0491	50045.35	49100
849.0018	957.063	50152.35	49209.8
849.147	959.0763	50292.9	49347.2
849.2921	961.0888	49938.95	48996.1
849.4373	963.1007	50187.35	49248.25
849.5824	965.1119	50070.95	49135.5
849.7275	967.1223	49840.7	48911.85
849.8727	969.1321	49991.3	49059.65
850.0178	971.1412	49651.8	48718.1
850.1629	973.1495	49468.6	48529.1
850.3081	975.1572	49616.55	48637.1
850.4532	977.1641	49454.05	48512.15
850.5983	979.1704	49249.95	48308.1
850.7435	981.1759	49186.7	48243.25
850.8886	983.1808	49022.2	48081.35
851.0337	985.1849	48987.1	48035.8
851.1788	987.1884	49011.75	48071.35
851.324	989.1911	49194.9	48255.05
851.4691	991.1932	48822.85	47883.9
851.6142	993.1945	48783.25	47845.9
851.7593	995.1951	48702.85	47760.4
851.9045	997.1951	48495.45	47545.9
852.0496	999.1943	48228.75	47288.5
852.1947	1001.1928	48089.35	47151.65
852.3398	1003.1906	48073.45	47134.7
852.4849	1005.1877	47851.85	46911.2
852.63	1007.1841	47675.3	46737.5
852.7751	1009.1798	47576.4	46635.75
852.9202	1011.1748	47385.7	46447.2
853.0653	1013.1691	47111.05	46170
853.2104	1015.1627	46576	45636.15
853.3555	1017.1556	46282.4	45349.1
853.5006	1019.1477	46284.25	45347.7
853.6457	1021.1392	45811.7	44879.8
853.7908	1023.1299	45541.95	44611.55
853.9359	1025.12	45531.6	44604.4
854.081	1027.1093	45348.25	44429.1
854.2261	1029.0979	45335.6	44417.95
854.3712	1031.0859	45224.9	44302.75
854.5163	1033.0731	45011.35	44080.3
854.6613	1035.0596	44901.2	43969.15
854.8064	1037.0454	44605.95	43672.85
854.9515	1039.0304	44408.8	43468.95
855.0965	1041.0148	44053.8	43116.4
855.2416	1042.9985	43918.25	42982.35
855.3867	1044.9814	43878.8	42943.5
855.5317	1046.9636	43608.7	42674.55
855.6768	1048.9452	43504.65	42566.5
855.8219	1050.926	43471.95	42538.55
855.9669	1052.9061	43393.1	42457.7
856.112	1054.8855	43300.45	42361.1
856.257	1056.8642	43188.5	42253.25
856.4021	1058.8421	43144.35	42202.2
856.5471	1060.8194	43043.65	42103.9
856.6921	1062.7959	42976.4	42037.6
856.8372	1064.7717	42996.55	42058.05
856.9822	1066.7469	42871.05	41933.9
857.1272	1068.7213	42796.1	41857.8
857.2723	1070.695	42753.25	41817.35
857.4173	1072.6679	42546.35	41610.25
857.5623	1074.6402	42437.7	41499.7
857.7073	1076.6117	42417.3	41476.3
857.8523	1078.5826	42284.4	41346.8
857.9973	1080.5527	42086.15	41147.8
858.1423	1082.5221	41999.85	41063.85
858.2873	1084.4908	42034.95	41099.05
858.4323	1086.4587	41976.75	41039.15
858.5773	1088.426	42023.75	41088.5
858.7223	1090.3925	41802.05	40857.7
858.8673	1092.3584	41773.45	40838.3
859.0123	1094.3235	41481.8	40546.05
859.1573	1096.2879	41393.25	40456.6
859.3022	1098.2515	41371.05	40433.15
859.4472	1100.2145	41451.05	40514.55
859.5922	1102.1767	41323.1	40388
859.7371	1104.1382	41472.85	40535.8
859.8821	1106.099	41530.4	40596.9
860.027	1108.0591	41581.6	40647.8
860.172	1110.0185	41585.35	40648.15
860.3169	1111.9771	41613.85	40678.2
860.4619	1113.9351	41252.85	40317.9
860.6068	1115.8923	40975	40041.45
860.7517	1117.8488	40710	39769.3
860.8967	1119.8045	40328.3	39393.65
861.0416	1121.7596	40206.15	39271.35
861.1865	1123.7139	40038.7	39106.45
861.3314	1125.6675	39931.1	38999.7
861.4763	1127.6204	39969.85	39037.4
861.6212	1129.5726	39761.65	38824.5
861.7661	1131.524	39694.65	38759.55
861.911	1133.4748	39575.15	38639.4
862.0559	1135.4248	39324.45	38387.2
862.2008	1137.3741	39216.45	38281.95
862.3457	1139.3226	39055.1	38119.4
862.4905	1141.2705	39000.4	38067.45
862.6354	1143.2176	38726.45	37785.25
862.7803	1145.164	38701.3	37768.3
862.9251	1147.1097	38554.75	37620.85
863.07	1149.0546	38453.35	37517.1
863.2148	1150.9989	38327.7	37393.7
863.3597	1152.9424	38246.2	37310.45
863.5045	1154.8852	38001.2	37067.6
863.6493	1156.8272	37973.65	37038.7
863.7942	1158.7686	37923.25	36978
863.939	1160.7092	37768.2	36831.5
864.0838	1162.6491	37655.8	36718.1
864.2286	1164.5883	37676.6	36742.1
864.3734	1166.5267	37619.75	36685.7
864.5182	1168.4644	37701.8	36766.75
864.663	1170.4014	37762.6	36826.8
864.8078	1172.3377	37985.2	37054.5
864.9526	1174.2732	38109.35	37174.25
865.0974	1176.2081	38282.45	37349.35
865.2421	1178.1421	38488.25	37546.55
865.3869	1180.0755	38791.5	37860.55
865.5317	1182.0082	38771.35	37838.55
865.6764	1183.9401	38825.4	37892.65
865.8212	1185.8713	38624.15	37696.2
865.9659	1187.8017	38321.8	37395.8
866.1106	1189.7315	38034.9	37116.2
866.2554	1191.6605	37557.1	36636.85
866.4001	1193.5888	37257.9	36332.05
866.5448	1195.5163	37086.65	36158.55
866.6895	1197.4432	36920.05	35987.95
866.8342	1199.3693	36786.25	35856.65
866.9789	1201.2947	36636.05	35703.8
867.1236	1203.2193	36467	35536.9
867.2683	1205.1432	36451.65	35519.95
867.413	1207.0664	36327.85	35398.35
867.5576	1208.9889	36270	35335.05
867.7023	1210.9106	36104.4	35173.3
867.847	1212.8316	36000.8	35067.7
867.9916	1214.7519	35996.85	35058.4
868.1363	1216.6715	35868.4	34939.5
868.2809	1218.5903	35834.6	34903.1
868.4255	1220.5084	35766.85	34835.65
868.5701	1222.4257	35809.35	34879.65
868.7148	1224.3424	35599.65	34675.4
868.8594	1226.2583	35623.75	34688.9
869.004	1228.1735	35645.95	34715.2
869.1486	1230.0879	35565.4	34634.25
869.2932	1232.0016	35650	34721
869.4377	1233.9146	35598.95	34668.8
869.5823	1235.8269	35434.35	34502.7
869.7269	1237.7384	35306.9	34378.65
869.8715	1239.6492	35050.75	34121.85
870.016	1241.5592	34996.55	34066
870.1606	1243.4686	34864	33931.7
870.3051	1245.3772	34833.25	33906.2
870.4496	1247.285	34732.6	33803.45
870.5941	1249.1922	34776.7	33847.65
870.7387	1251.0986	34722.75	33793.3
870.8832	1253.0042	34597.45	33667.6
871.0277	1254.9092	34592.25	33662.4
871.1722	1256.8134	34601.25	33674.4
871.3167	1258.7169	34666.9	33738.3
871.4611	1260.6196	34688.85	33760.6
871.6056	1262.5216	34880.2	33951.8
871.7501	1264.4229	34944.1	34014.35
871.8945	1266.3234	35058.55	34130.25
872.039	1268.2232	35104.45	34174.45
872.1834	1270.1223	35009.65	34080.5
872.3278	1272.0207	34937.4	34005.5
872.4723	1273.9183	34856.7	33921.75
872.6167	1275.8151	34682.9	33753.35
872.7611	1277.7113	34640.6	33711.6
872.9055	1279.6067	34515.55	33588.55
873.0499	1281.5014	34481.1	33551.95
873.1943	1283.3953	34570.05	33639.1
873.3386	1285.2885	34724.75	33800
873.483	1287.181	34850.8	33922.25
873.6274	1289.0727	35100.05	34175.5
873.7717	1290.9637	35114.1	34186.45
873.9161	1292.854	35271.45	34344.85
874.0604	1294.7435	35191.85	34264.25
874.2047	1296.6323	35140.9	34210.7
874.349	1298.5204	35139.75	34207.3
874.4933	1300.4077	35103.35	34175.7
874.6376	1302.2943	35018.3	34092.2
874.7819	1304.1802	34915	33985.65
874.9262	1306.0653	34614.35	33683.9
875.0705	1307.9497	34275.35	33350.8
875.2147	1309.8333	34003.2	33077.05
875.359	1311.7162	33819.85	32890.7
875.5032	1313.5984	33708.45	32776.75
875.6475	1315.4798	33529.1	32583.9
875.7917	1317.3605	33494.3	32552.1
875.9359	1319.2405	33501.65	32572.85
876.0801	1321.1197	33357.55	32427.85
876.2243	1322.9982	33104.35	32171.45
876.3685	1324.876	32950.7	32026.5
876.5127	1326.753	32707.05	31779.6
876.6569	1328.6293	32631	31698.95
876.801	1330.5048	32580.05	31647.8
876.9452	1332.3796	32383.6	31458.5
877.0893	1334.2537	32338.3	31385.15
877.2335	1336.127	32181.05	31254.65
877.3776	1337.9996	32121.95	31195.1
877.5217	1339.8714	32077.95	31151.1
877.6658	1341.7426	31996.45	31025.15
877.8099	1343.6129	31953.9	31023
877.954	1345.4826	31870.6	30943.35
878.0981	1347.3515	31878.6	30948.9
878.2422	1349.2196	31775.8	30847.65
878.3862	1351.087	31761.7	30834.5
878.5303	1352.9537	31714.85	30785.8
878.6743	1354.8197	31780.8	30852.45
878.8184	1356.6849	31911.7	30983.15
878.9624	1358.5493	31907.45	30977.95
879.1064	1360.4131	31995.55	31068.4
879.2504	1362.276	31952.7	31028.7
879.3944	1364.1383	31825.75	30901.4
879.5384	1365.9998	31590.9	30658.25
879.6823	1367.8606	31223.75	30296.4
879.8263	1369.7206	30890.5	29963.4
879.9702	1371.5799	30601.15	29674.2
880.1142	1373.4384	30343.15	29417.95
880.2581	1375.2962	30159.25	29231.6
880.402	1377.1533	29758.6	28832.45
880.5459	1379.0096	29378.05	28453.8
880.6898	1380.8652	29107.25	28184.55
880.8337	1382.7201	28811.7	27889.3
880.9776	1384.5742	28466.25	27542.3
881.1215	1386.4275	28274.45	27346.1
881.2653	1388.2802	28090.55	27164.8
881.4092	1390.132	27906.05	26978.15
881.553	1391.9832	27817.95	26891.55
881.6968	1393.8336	27647.9	26723.8
881.8406	1395.6832	27513.15	26585.4
881.9844	1397.5322	27373.85	26448
882.1282	1399.3803	27286.15	26354.45
882.272	1401.2278	27147.8	26222.5
882.4158	1403.0745	27153.35	26226.55
882.5595	1404.9204	26969.65	26046.3
882.7033	1406.7656	26984.5	26057.4
882.847	1408.6101	26919.35	25993.55
882.9908	1410.4538	26808	25883.8
883.1345	1412.2968	26806.7	25881.65
883.2782	1414.139	26725.5	25804.8
883.4219	1415.9805	26737.75	25813.75
883.5656	1417.8213	26741.75	25796.5
883.7092	1419.6613	26717.9	25794.3
883.8529	1421.5006	26795.65	25872.65
883.9965	1423.3391	26932.1	26007.35
884.1402	1425.1769	27093	26167.75
884.2838	1427.0139	27464.85	26541.35
884.4274	1428.8502	27868.45	26944.9
884.571	1430.6858	28209.8	27286.5
884.7146	1432.5206	28445.9	27521.25
884.8582	1434.3547	28648.3	27721.7
885.0018	1436.188	28657.55	27732.65
885.1453	1438.0206	28560.35	27634.35
885.2889	1439.8524	28289.8	27365.85
885.4324	1441.6835	28196.05	27269.2
885.5759	1443.5139	28078.55	27153
885.7194	1445.3435	27905.9	26981.15
885.8629	1447.1724	27874.7	26952
886.0064	1449.0005	27752.9	26829.7
886.1499	1450.8279	27625.6	26704.8
886.2933	1452.6545	27599.65	26677.6
886.4368	1454.4804	27627.55	26709.3
886.5802	1456.3056	27535.7	26608.3
886.7237	1458.13	27410.7	26489.2
886.8671	1459.9536	27295.9	26374.2
887.0105	1461.7766	27006.35	26085.9
887.1539	1463.5987	26617.45	25694.55
887.2972	1465.4202	26279.6	25356.9
887.4406	1467.2409	25942.5	25021.8
887.584	1469.0608	25688	24766.9
887.7273	1470.88	25380.85	24455.9
887.8706	1472.6984	25203.65	24284.95
888.0139	1474.5161	24945.4	24020.45
888.1572	1476.3331	24774.7	23854.15
888.3005	1478.1493	24638.25	23712.45
888.4438	1479.9648	24575.75	23655.45
888.5871	1481.7795	24457.3	23534.9
888.7303	1483.5935	24407	23483.75
888.8736	1485.4067	24296.55	23376.1
889.0168	1487.2192	24199.65	23278.05
889.16	1489.031	24138.75	23217.35
889.3032	1490.842	24075.9	23155.35
889.4464	1492.6522	23992.55	23070.7
889.5896	1494.4618	23901.05	22979.8
889.7327	1496.2705	23866.1	22944.75
889.8759	1498.0785	23841.2	22921.75
890.019	1499.8858	23732.55	22812.4
890.1622	1501.6924	23674.7	22754.3
890.3053	1503.4981	23662	22741.8
890.4484	1505.3032	23563.8	22642.95
890.5914	1507.1075	23487.25	22568.25
890.7345	1508.911	23468.5	22549.45
890.8776	1510.7138	23364.6	22442.85
891.0206	1512.5159	23247.25	22326.55
891.1637	1514.3172	23151.5	22231.75
891.3067	1516.1178	23078.45	22159.65
891.4497	1517.9176	23059.65	22134.7
891.5927	1519.7166	22962.55	22042.95
891.7357	1521.515	22876.65	21951.9
891.8786	1523.3126	22794.15	21873.5
892.0216	1525.1094	22722.3	21802.55
892.1645	1526.9055	22641.6	21724.95
892.3074	1528.7008	22593.4	21675.45
892.4503	1530.4954	22442.05	21518.25
892.5932	1532.2893	22395.9	21479.85
892.7361	1534.0824	22289.5	21367.05
892.879	1535.8747	22257.1	21340.25
893.0218	1537.6663	22174.1	21257.75
893.1647	1539.4572	22102.25	21186.15
893.3075	1541.2473	22070.45	21153.1
893.4503	1543.0367	22022.65	21106.6
893.5931	1544.8253	21939.8	21019.05
893.7359	1546.6132	21944.25	21022.45
893.8787	1548.4003	21866.55	20941.4
894.0214	1550.1867	21838.35	20913.85
894.1642	1551.9723	21821.6	20904.4
894.3069	1553.7572	21873.25	20959
894.4496	1555.5414	21848.75	20933.4
894.5923	1557.3247	21874.7	20961.95
894.735	1559.1074	21918.8	21010.3
894.8777	1560.8893	21941.95	21032.85
895.0204	1562.6705	21996.65	21084.8
895.163	1564.4509	22018.85	21108.35
895.3056	1566.2305	21998.15	21089.35
895.4482	1568.0094	22056.35	21148
895.5908	1569.7876	22079.8	21171.4
895.7334	1571.565	22003.45	21092.8
895.876	1573.3417	21968	21058.55
896.0186	1575.1176	21934.6	21025.45
896.1611	1576.8928	21903.95	20995.9
896.3036	1578.6672	21795.05	20891.55
896.4461	1580.4409	21643.15	20738.85
896.5886	1582.2138	21595.8	20686.05
896.7311	1583.986	21547.2	20637.95
896.8736	1585.7575	21520.8	20612.35
897.0161	1587.5282	21433.75	20527.65
897.1585	1589.2981	21472.35	20568.25
897.3009	1591.0673	21405.2	20502.95
897.4433	1592.8358	21386.5	20482.45
897.5857	1594.6035	21423	20513.15
897.7281	1596.3704	21361.3	20451.1
897.8705	1598.1366	21417.1	20509.45
898.0128	1599.9021	21411.45	20505.95
898.1551	1601.6668	21369.1	20463.5
898.2975	1603.4308	21415.15	20505.2
898.4398	1605.194	21528.6	20617.5
898.5821	1606.9564	21553.8	20650
898.7243	1608.7182	21702.8	20799.85
898.8666	1610.4791	21837.6	20940.5
899.0088	1612.2394	21978.45	21081.1
899.1511	1613.9988	22113.15	21216.9
899.2933	1615.7576	22301.75	21401.45
899.4355	1617.5156	22437.7	21526.1
899.5776	1619.2728	22567.25	21657.95
899.7198	1621.0293	22557.2	21650.25
899.862	1622.785	22444.4	21540.9
900.0041	1624.54	22189	21288.35
900.1462	1626.2942	21966.6	21065.45
900.2883	1628.0477	21639.1	20735
900.4304	1629.8005	21347.9	20442.8
900.5725	1631.5525	21151.1	20249.95
900.7145	1633.3037	20911.7	20011.05
900.8566	1635.0542	20737.3	19836.55
900.9986	1636.804	20615.8	19713.8
901.1406	1638.553	20524.05	19571.5
901.2826	1640.3013	20385	19483.55
901.4245	1642.0488	20324.3	19422.6
901.5665	1643.7955	20324.35	19425.2
901.7085	1645.5416	20337.35	19436.7
901.8504	1647.2868	20369.65	19470.2
901.9923	1649.0313	20379.55	19475.6
902.1342	1650.7751	20491	19586.75
902.2761	1652.5181	20601.75	19702.45
902.4179	1654.2604	20682.6	19785.4
902.5598	1656.0019	20863.45	19962.45
902.7016	1657.7427	20977.4	20077.6
902.8434	1659.4828	21218.3	20315.65
902.9852	1661.222	21356.35	20452.65
903.127	1662.9606	21314.4	20412.7
903.2687	1664.6984	21082.8	20177.05
903.4105	1666.4354	20735.35	19826.7
903.5522	1668.1717	20257.1	19351.2
903.6939	1669.9072	19735.7	18829.8
903.8356	1671.642	19349.3	18444.35
903.9773	1673.3761	18984.55	18080.75
904.119	1675.1094	18716.35	17812.55
904.2606	1676.8419	18466.85	17563.8
904.4022	1678.5737	18265.95	17361.55
904.5439	1680.3048	18128.25	17223.9
904.6855	1682.0351	17956.4	17052.2
904.827	1683.7646	17827.75	16921.3
904.9686	1685.4934	17711.4	16810.4
905.1101	1687.2215	17633.2	16731.4
905.2517	1688.9488	17526.55	16625.15
905.3932	1690.6754	17396.45	16496.75
905.5347	1692.4012	17358.7	16455.75
905.6761	1694.1263	17289.6	16387.05
905.8176	1695.8506	17245.55	16342.55
905.9591	1697.5742	17170.25	16269.7
906.1005	1699.297	17092.85	16195.05
906.2419	1701.0191	17001.15	16106.4
906.3833	1702.7404	16920.4	16024.15
906.5246	1704.461	16823.25	15923.6
906.666	1706.1808	16773.2	15872.05
906.8073	1707.8999	16703.9	15802.65
906.9487	1709.6182	16644.45	15746.7
907.09	1711.3358	16611.5	15717.6
907.2313	1713.0527	16515.7	15622.85
907.3725	1714.7688	16461.55	15559.65
907.5138	1716.4841	16386.9	15483.1
907.655	1718.1987	16395.6	15491.3
907.7962	1719.9126	16338.5	15442.25
907.9374	1721.6257	16245.3	15348.75
908.0786	1723.338	16209.95	15314.3
908.2198	1725.0496	16145.15	15248.05
908.3609	1726.7605	16097.45	15196.55
908.502	1728.4706	16030.65	15131.45
908.6431	1730.18	15963.15	15068
908.7842	1731.8886	15927.75	15031.75
908.9253	1733.5964	15898.25	14982.1
909.0664	1735.3036	15845.75	14946.3
909.2074	1737.0099	15803.15	14907.85
909.3484	1738.7156	15766.6	14872.4
909.4894	1740.4204	15700.35	14803.25
909.6304	1742.1246	15676.3	14780.1
909.7714	1743.8279	15617.85	14719.65
909.9123	1745.5306	15569.65	14675.05
910.0532	1747.2325	15549.65	14654.95
910.1941	1748.9336	15464.35	14566.6
910.335	1750.634	15433	14535
910.4759	1752.3336	15353.4	14458.5
910.6168	1754.0325	15362.6	14472
910.7576	1755.7307	15317.2	14424.7
910.8984	1757.4281	15313.55	14416.25
911.0392	1759.1247	15284.75	14379.75
911.18	1760.8206	15206.4	14301.9
911.3208	1762.5158	15229.45	14328.2
911.4615	1764.2102	15133.15	14235.15
911.6022	1765.9039	15103.65	14209.4
911.7429	1767.5968	15074	14179.05
911.8836	1769.289	15030	14134.8
912.0243	1770.9804	14988.2	14092.65
912.1649	1772.6711	14968.05	14070.3
912.3056	1774.361	14914.4	14015.65
912.4462	1776.0502	14890.75	13992.9
912.5868	1777.7386	14892.05	13990.9
912.7274	1779.4263	14818.7	13921.4
912.8679	1781.1132	14787.8	13896.7
913.0084	1782.7994	14769	13877.2
913.149	1784.4849	14748.7	13856.2
913.2895	1786.1696	14696.85	13797.25
913.4299	1787.8535	14672.25	13781.8
913.5704	1789.5367	14621.75	13729.85
913.7108	1791.2192	14602.55	13708.4
913.8513	1792.9009	14518.8	13597.75
913.9917	1794.5818	14484.05	13586.25
914.132	1796.2621	14470	13577.2
914.2724	1797.9415	14412.25	13516.55
914.4128	1799.6202	14361.5	13466.8
914.5531	1801.2982	14362.7	13466.4
914.6934	1802.9755	14356.8	13460.9
914.8337	1804.6519	14307.9	13412.45
914.9739	1806.3277	14227.4	13333.4
915.1142	1808.0027	14179.5	13289.25
915.2544	1809.6769	14179	13288.1
915.3946	1811.3504	14126.75	13234
915.5348	1813.0231	14100	13208.05
915.675	1814.6951	14085.9	13192.9
915.8151	1816.3664	14077.2	13179.8
915.9553	1818.0369	14045.1	13148.05
916.0954	1819.7067	13989.05	13095.2
916.2355	1821.3757	13996.5	13100.1
916.3755	1823.044	13997.45	13102.3
916.5156	1824.7115	13947.7	13051.3
916.6556	1826.3783	13867.25	12969.7
916.7956	1828.0443	13821.25	12927.4
916.9356	1829.7096	13785	12889.85
917.0756	1831.3741	13797.45	12899.75
917.2155	1833.0379	13734.85	12841.6
917.3555	1834.701	13734.25	12841.25
917.4954	1836.3633	13680.4	12789.6
917.6353	1838.0248	13630.3	12735.6
917.7751	1839.6856	13635.8	12740.4
917.915	1841.3457	13617.65	12723.7
918.0548	1843.005	13586.4	12690.65
918.1946	1844.6636	13577.8	12683.95
918.3344	1846.3214	13548.9	12654.6
918.4742	1847.9785	13524.15	12632.55
918.6139	1849.6349	13499.35	12603.7
918.7537	1851.2904	13446.2	12540.85
918.8934	1852.9453	13437.8	12542.45
919.0331	1854.5994	13362.5	12465.05
919.1727	1856.2528	13402.85	12502.65
919.3124	1857.9054	13349.1	12453.25
919.452	1859.5572	13355.25	12462.95
919.5916	1861.2083	13311	12413.9
919.7312	1862.8587	13306.15	12411.55
919.8708	1864.5084	13268.7	12369.05
920.0103	1866.1572	13237.1	12340.25
920.1498	1867.8054	13169.7	12273.45
920.2893	1869.4528	13174.7	12277.95
920.4288	1871.0994	13118.05	12221.3
920.5683	1872.7453	13102.35	12204.7
920.7077	1874.3905	13050.85	12149.15
920.8471	1876.0349	12998.7	12101.65
920.9865	1877.6786	13013.85	12116.5
921.1259	1879.3215	12995.25	12102.45
921.2653	1880.9637	12987.35	12092.05
921.4046	1882.6051	12938.5	12045.5
921.5439	1884.2458	12879.4	11984.95
921.6832	1885.8858	12864.85	11970.85
921.8225	1887.525	12857.6	11963
921.9617	1889.1634	12789.9	11895.25
922.101	1890.8011	12756.65	11858.2
922.2402	1892.4381	12725.8	11833
922.3794	1894.0743	12717.2	11820.6
922.5185	1895.7098	12678.35	11783.8
922.6577	1897.3446	12684.55	11789.15
922.7968	1898.9786	12636.25	11738.65
922.9359	1900.6118	12615.55	11721.65
923.075	1902.2443	12569.1	11672.8
923.214	1903.8761	12550.1	11656.9
923.3531	1905.5071	12473.55	11577.95
923.4921	1907.1374	12438.1	11543.45
923.6311	1908.7669	12398.6	11504.2
923.77	1910.3957	12412.35	11518.45
923.909	1912.0237	12314.45	11422.7
924.0479	1913.651	12282.6	11388.2
924.1868	1915.2776	12261.6	11370.8
924.3257	1916.9034	12222.3	11331.15
924.4646	1918.5285	12183.45	11293.25
924.6034	1920.1528	12129.6	11235.7
924.7422	1921.7764	12136.8	11242.4
924.881	1923.3992	12076.55	11183.7
925.0198	1925.0213	11978.6	11087.25
925.1586	1926.6427	11956.3	11062.25
925.2973	1928.2633	11990.75	11027.85
925.436	1929.8832	11923.1	11026.35
925.5747	1931.5023	11838.65	10942.8
925.7134	1933.1207	11816.3	10922.2
925.852	1934.7383	11800.75	10907.25
925.9906	1936.3552	11751.25	10860.75
926.1292	1937.9714	11736.3	10844.85
926.2678	1939.5868	11695.65	10800.95
926.4064	1941.2015	11619.9	10724.15
926.5449	1942.8154	11576.05	10681.75
926.6834	1944.4286	11544.05	10648.7
926.8219	1946.041	11542.1	10628.05
926.9604	1947.6528	11439.95	10541.05
927.0988	1949.2637	11404.65	10509.8
927.2372	1950.8739	11378.65	10486.15
927.3756	1952.4834	11333.7	10442.1
927.514	1954.0921	11353.55	10461.85
927.6523	1955.7001	11331.05	10435.55
927.7907	1957.3074	11279.3	10389.9
927.929	1958.9139	11227.3	10337.65
928.0673	1960.5197	11225.9	10334.3
928.2055	1962.1247	11165.7	10277.35
928.3438	1963.729	11124.9	10234.8
928.482	1965.3325	11068.85	10156.5
928.6202	1966.9353	11032.75	10145.45
928.7584	1968.5374	11012.7	10122.8
928.8965	1970.1387	10965.35	10075.8
929.0346	1971.7393	10939.3	10049.65
929.1727	1973.3392	10892.8	10004.15
929.3108	1974.9383	10870.15	9981.45
929.4489	1976.5366	10829.55	9940.95
929.5869	1978.1342	10841.05	9949.65
929.7249	1979.7311	10800.25	9910.15
929.8629	1981.3273	10761.2	9872.6
930.0009	1982.9227	10726.6	9837.05
930.1388	1984.5173	10671.4	9785.9
930.2767	1986.1112	10635.85	9747.8
930.4146	1987.7044	10633	9744.8
930.5525	1989.2968	10590.6	9701.3
930.6904	1990.8885	10563.95	9674.25
930.8282	1992.4795	10523.3	9633.4
930.966	1994.0697	10505.85	9620.1
931.1038	1995.6592	10487.65	9600.15
931.2415	1997.2479	10468.65	9583.2
931.3793	1998.8359	10430.6	9546.35
931.517	2000.4232	10367.85	9484.55
931.6547	2002.0097	10358.85	9476.5
931.7923	2003.5955	10299.4	9415.05
931.93	2005.1805	10329.3	9441.75
932.0676	2006.7648	10278.15	9394.15
932.2052	2008.3484	10229.65	9342.8
932.3427	2009.9312	10248.45	9361.5
932.4803	2011.5133	10218.45	9336.4
932.6178	2013.0946	10178.2	9293.55
932.7553	2014.6752	10144.7	9260.85
932.8928	2016.2551	10105.4	9221.8
933.0302	2017.8342	10074.95	9189
933.1676	2019.4126	10040.65	9157.95
933.305	2020.9902	9987.45	9103.15
933.4424	2022.5672	10000.3	9115.95
933.5798	2024.1433	9989.7	9100.25
933.7171	2025.7188	9965.9	9084.35
933.8544	2027.2935	9920.1	9036.6
933.9917	2028.8674	9891.95	9007.45
934.129	2030.4406	9849.6	8967.75
934.2662	2032.0131	9798.75	8916
934.4034	2033.5849	9763.65	8873.75
934.5406	2035.1559	9786.8	8906.35
934.6778	2036.7261	9750.7	8866.15
934.8149	2038.2957	9742.95	8858.1
934.952	2039.8645	9707.45	8820.55
935.0891	2041.4325	9716.95	8828.1
935.2262	2042.9998	9665.05	8779.75
935.3632	2044.5664	9634.15	8747.5
935.5002	2046.1323	9603.8	8721.45
935.6372	2047.6974	9570.1	8686.7
935.7742	2049.2617	9527.95	8645.8
935.9111	2050.8254	9558.7	8652.55
936.048	2052.3883	9534.1	8648.2
936.1849	2053.9504	9509.35	8625.55
936.3218	2055.5118	9466.05	8580.15
936.4586	2057.0725	9412.75	8525.25
936.5955	2058.6325	9397.5	8513
936.7323	2060.1917	9383.9	8500.75
936.869	2061.7502	9367.55	8481.55
937.0058	2063.3079	9325	8444.05
937.1425	2064.8649	9286.9	8398.75
937.2792	2066.4212	9291.05	8404.15
937.4159	2067.9767	9260	8376.5
937.5525	2069.5315	9244.3	8359.45
937.6891	2071.0856	9190.9	8308.05
937.8257	2072.6389	9146.85	8262
937.9623	2074.1915	9084.5	8202.45
938.0989	2075.7433	9079.4	8195.45
938.2354	2077.2945	9050.45	8165.65
938.3719	2078.8448	9049	8163.8
938.5084	2080.3945	9017.4	8130.95
938.6448	2081.9434	8989.45	8105.15
938.7812	2083.4916	8990.65	8103.75
938.9176	2085.039	8934.95	8042.7
939.054	2086.5857	8923.15	8032.5
939.1903	2088.1317	8923.65	8032.7
939.3267	2089.677	8887.55	7998
939.463	2091.2215	8855.75	7966.3
939.5992	2092.7652	8832.65	7942.8
939.7355	2094.3083	8829.3	7939.15
939.8717	2095.8506	8810.45	7922.35
940.0079	2097.3921	8793.7	7907.05
940.1441	2098.933	8781.45	7894
940.2802	2100.4731	8753.4	7866.9
940.4163	2102.0124	8736.95	7842.9
940.5524	2103.5511	8720	7832.3
940.6885	2105.089	8715.25	7827.4
940.8245	2106.6261	8661.6	7775.15
940.9606	2108.1626	8660.6	7774
941.0965	2109.6983	8636.8	7722.7
941.2325	2111.2332	8626.75	7737.75
941.3684	2112.7675	8597.6	7710.7
941.5044	2114.301	8570.6	7681.6
941.6403	2115.8337	8537.75	7649.3
941.7761	2117.3657	8544.5	7657.35
941.912	2118.897	8520.85	7633.15
942.0478	2120.4276	8500.35	7606.55
942.1835	2121.9575	8435.15	7547.3
942.3193	2123.4866	8463.95	7572.95
942.455	2125.0149	8416.2	7524.2
942.5907	2126.5426	8361.9	7477.15
942.7264	2128.0695	8350.65	7461.3
942.8621	2129.5956	8362.55	7480.35
942.9977	2131.1211	8314.4	7425.8
943.1333	2132.6458	8296.95	7411.1
943.2689	2134.1698	8278.95	7390.35
943.4044	2135.693	8245.3	7353.9
943.54	2137.2155	8244.1	7353
943.6755	2138.7373	8237.1	7350.8
943.8109	2140.2584	8212.6	7326.65
943.9464	2141.7787	8167.2	7279.55
944.0818	2143.2983	8162.2	7280.9
944.2172	2144.8171	8101.95	7218.4
944.3526	2146.3353	8094.3	7208.3
944.4879	2147.8527	8056.55	7171.9
944.6232	2149.3693	8066.85	7179.55
944.7585	2150.8853	8059.7	7171
944.8938	2152.4005	8002.3	7112.95
945.029	2153.9149	7988.4	7099.1
945.1642	2155.4287	8035.2	7043.95
945.2994	2156.9417	7989.3	7099.15
945.4346	2158.454	7947.8	7058.6
945.5697	2159.9655	7920.7	7034
945.7048	2161.4764	7890.8	7005.65
945.8399	2162.9865	7854.6	6970.15
945.9749	2164.4958	7847.45	6960.4
946.1099	2166.0045	7819.1	6929.85
946.2449	2167.5124	7798.6	6911.5
946.3799	2169.0195	7782.55	6895.9
946.5148	2170.526	7781.4	6894.75
946.6498	2172.0317	7749.15	6861.15
946.7846	2173.5367	7753.15	6864.7
946.9195	2175.0409	7698	6811.8
947.0543	2176.5445	7711.5	6826.4
947.1891	2178.0473	7654.05	6766.25
947.3239	2179.5494	7654.25	6762.75
947.4587	2181.0507	7632.2	6744.35
947.5934	2182.5513	7607.35	6719.7
947.7281	2184.0512	7604.8	6717.65
947.8628	2185.5504	7566.15	6680.65
947.9974	2187.0488	7542.15	6656.1
948.132	2188.5465	7515.45	6631.65
948.2666	2190.0435	7493.15	6606.25
948.4012	2191.5397	7480.3	6592.25
948.5357	2193.0353	7461.4	6573.75
948.6702	2194.5301	7420.15	6530.3
948.8047	2196.0241	7366	6477.75
948.9392	2197.5175	7379.7	6488.45
949.0736	2199.0101	7353.6	6462.45
949.208	2200.502	7316.8	6431.3
949.3424	2201.9931	7279.35	6393.5
949.4767	2203.4835	7262.75	6378.65
949.611	2204.9733	7276.25	6374.2
949.7453	2206.4622	7249.3	6366.4
949.8796	2207.9505	7199.55	6312.05
950.0138	2209.438	7175.6	6294.2
950.148	2210.9248	7155.9	6269.3
950.2822	2212.4109	7146.3	6260.8
950.4164	2213.8962	7097.1	6207.1
950.5505	2215.3809	7119.95	6227.65
950.6846	2216.8648	7125.75	6237
950.8186	2218.3479	7088.25	6192.1
950.9527	2219.8304	7063.55	6169.4
951.0867	2221.3121	7028.5	6137.4
951.2207	2222.7931	7011.55	6122.8
951.3546	2224.2733	6992.05	6105.95
951.4886	2225.7529	6970.45	6084.65
951.6225	2227.2317	6955.8	6064.55
951.7563	2228.7098	6936.7	6049.3
951.8902	2230.1872	6880.15	5996.25
952.024	2231.6638	6877.55	5991.9
952.1578	2233.1397	6863.2	5973.4
952.2916	2234.6149	6829.1	5943.6
952.4253	2236.0894	6810.05	5923.55
952.559	2237.5632	6785.7	5898.05
952.6927	2239.0362	6771	5885.65
952.8263	2240.5085	6781.4	5896.6
952.9599	2241.9801	6754.05	5866.75
953.0935	2243.4509	6712.05	5824.15
953.2271	2244.921	6692.4	5803.65
953.3606	2246.3904	6678.8	5786.25
953.4941	2247.8591	6660.25	5772.8
953.6276	2249.3271	6645.45	5758.75
953.7611	2250.7943	6617.35	5730
953.8945	2252.2608	6585.15	5698.7
954.0279	2253.7266	6573	5684.9
954.1612	2255.1917	6570.45	5685.2
954.2946	2256.656	6555.3	5666.4
954.4279	2258.1197	6530.35	5643.05
954.5612	2259.5826	6504.75	5617.6
954.6944	2261.0447	6496.8	5606.95
954.8276	2262.5062	6487.35	5598.3
954.9608	2263.9669	6477.95	5585.8
955.094	2265.4269	6474.8	5587.7
955.2271	2266.8862	6439.45	5551.7
955.3602	2268.3448	6420.1	5532.5
955.4933	2269.8026	6413.1	5527.1
955.6264	2271.2598	6389.1	5502.8
955.7594	2272.7162	6373.8	5487.7
955.8924	2274.1719	6382.75	5494.5
956.0253	2275.6268	6332.3	5442.15
956.1583	2277.0811	6340.3	5451.6
956.2912	2278.5346	6295.9	5409.5
956.4241	2279.9874	6291.4	5405.55
956.5569	2281.4395	6295.15	5410.25
956.6897	2282.8908	6260.05	5370.75
956.8225	2284.3414	6258.35	5370.55
956.9553	2285.7914	6221.7	5336.5
957.088	2287.2406	6228.05	5338.85
957.2207	2288.689	6207.25	5317.9
957.3534	2290.1368	6193.05	5301.55
957.486	2291.5838	6177.5	5283.1
957.6186	2293.0302	6166.3	5275.9
957.7512	2294.4758	6112.2	5220.8
957.8838	2295.9206	6122.15	5232.65
958.0163	2297.3648	6090.65	5204.85
958.1488	2298.8082	6096.95	5208.1
958.2813	2300.251	6061.7	5174.5
958.4137	2301.693	6033.5	5141.85
958.5461	2303.1343	6037.2	5147.15
958.6785	2304.5748	6020.1	5132.55
958.8108	2306.0147	5997.45	5110.35
958.9432	2307.4538	5987.95	5098.85
959.0754	2308.8922	5958.85	5076.6
959.2077	2310.3299	5940.05	5052.75
959.3399	2311.7669	5919.25	5033.5
959.4721	2313.2031	5896.4	5010.1
959.6043	2314.6387	5880.25	4992.3
959.7365	2316.0735	5873.3	4986.35
959.8686	2317.5076	5846.25	4957.55
960.0006	2318.941	5837.3	4948.7
960.1327	2320.3737	5829.2	4939.45
960.2647	2321.8056	5823.95	4931.35
960.3967	2323.2369	5818.55	4929.65
960.5287	2324.6674	5781.1	4892.2
960.6606	2326.0972	5766.75	4876.75
960.7925	2327.5263	5741.9	4855.3
960.9244	2328.9547	5735.8	4846.2
961.0562	2330.3823	5724.35	4835.45
961.1881	2331.8092	5715.05	4822.25
961.3198	2333.2355	5703.45	4813.9
961.4516	2334.661	5674.7	4783.85
961.5833	2336.0858	5684.65	4794.05
961.715	2337.5098	5657.55	4765.8
961.8467	2338.9332	5658.05	4768.45
961.9783	2340.3558	5629.8	4737.2
962.1099	2341.7778	5616.55	4729.95
962.2415	2343.199	5592.75	4704.5
962.373	2344.6195	5577.05	4690.6
962.5045	2346.0393	5591.95	4705
962.636	2347.4583	5564.5	4675.6
962.7675	2348.8767	5542.4	4652.9
962.8989	2350.2943	5540.6	4651.1
963.0303	2351.7113	5525.9	4635.6
963.1617	2353.1275	5501.95	4611.55
963.293	2354.543	5512.05	4598.4
963.4243	2355.9578	5477.35	4587.65
963.5556	2357.3718	5446.9	4558.75
963.6868	2358.7852	5424.8	4535.7
963.818	2360.1978	5401	4512.6
963.9492	2361.6098	5402.3	4516.7
964.0803	2363.021	5384.65	4491.55
964.2114	2364.4315	5373.25	4485.65
964.3425	2365.8413	5350.15	4458.95
964.4736	2367.2504	5330.6	4443.1
964.6046	2368.6587	5338.4	4450.15
964.7356	2370.0664	5288.25	4398.95
964.8666	2371.4733	5274	4385.6
964.9975	2372.8795	5264.55	4374.7
965.1284	2374.285	5266.65	4377.55
965.2593	2375.6899	5241.05	4352.2
965.3901	2377.0939	5216.75	4327.7
965.5209	2378.4973	5179.3	4294.85
965.6517	2379.9	5166.05	4276.65
965.7825	2381.3019	5173.2	4286.4
965.9132	2382.7032	5147.85	4260.7
966.0439	2384.1037	5134.4	4250.4
966.1745	2385.5035	5132.2	4246.35
966.3051	2386.9027	5129.25	4243.8
966.4357	2388.3011	5130.1	4239.45
966.5663	2389.6987	5094.45	4207.65
966.6968	2391.0957	5078.9	4192.95
966.8273	2392.492	5057.45	4172.45
966.9578	2393.8876	5022.1	4135.2
967.0882	2395.2824	5011.05	4122.4
967.2186	2396.6765	4990.55	4102.4
967.349	2398.07	4977.15	4090.5
967.4793	2399.4627	4974.4	4082.1
967.6097	2400.8547	4967.4	4078.55
967.7399	2402.246	4956.9	4063.2
967.8702	2403.6366	4916.2	4027.6
968.0004	2405.0265	4895.2	4007.55
968.1306	2406.4156	4905.8	4014.7
968.2607	2407.8041	4872.5	3983
968.3909	2409.1918	4866.25	3973.85
968.521	2410.5789	4841.15	3949.1
968.651	2411.9652	4826.8	3935.85
968.781	2413.3508	4824.6	3935.95
968.911	2414.7358	4806.1	3915.2
969.041	2416.12	4790.55	3902.9
969.1709	2417.5035	4778.45	3890.15
969.3008	2418.8863	4776.05	3886.15
969.4307	2420.2684	4759.8	3871
969.5606	2421.6497	4729.45	3841.05
969.6904	2423.0304	4693.85	3805.05
969.8201	2424.4104	4686.25	3797.75
969.9499	2425.7896	4685.1	3793.5
970.0796	2427.1682	4668.45	3781.95
970.2093	2428.546	4657.45	3769.55
970.3389	2429.9232	4659.7	3769.05
970.4685	2431.2996	4646.85	3757.95
970.5981	2432.6753	4628.75	3740.95
970.7277	2434.0503	4624.85	3735.25
970.8572	2435.4246	4588.25	3699.05
970.9867	2436.7982	4581.8	3688.6
971.1161	2438.1711	4566.05	3676.95
971.2456	2439.5433	4567.9	3679.8
971.375	2440.9148	4544.3	3650.7
971.5043	2442.2856	4519.2	3631.4
971.6336	2443.6557	4515.35	3624.05
971.7629	2445.025	4494	3606.25
971.8922	2446.3937	4500.75	3610
972.0214	2447.7617	4489.05	3600.9
972.1506	2449.1289	4469.4	3578.8
972.2798	2450.4955	4465.95	3573.7
972.4089	2451.8613	4444.55	3557.05
972.538	2453.2265	4432.7	3545.35
972.6671	2454.5909	4420.15	3531
972.7961	2455.9546	4407.4	3518.7
972.9251	2457.3177	4393.75	3506.35
973.0541	2458.68	4388.85	3499.1
973.1831	2460.0416	4390.65	3500.25
973.312	2461.4025	4383.85	3494.5
973.4408	2462.7627	4379.85	3482.65
973.5697	2464.1222	4356.45	3470.2
973.6985	2465.4811	4343.55	3456.25
973.8273	2466.8392	4351.85	3463.8
973.956	2468.1966	4344.5	3454.1
974.0847	2469.5533	4328.35	3437.5
974.2134	2470.9093	4304.35	3416.55
974.3421	2472.2645	4296.1	3409.1
974.4707	2473.6191	4294.95	3407
974.5993	2474.973	4254	3364.15
974.7278	2476.3262	4258.7	3368.15
974.8563	2477.6787	4241.65	3355.35
974.9848	2479.0305	4222.4	3333.5
975.1132	2480.3816	4204.5	3315.5
975.2417	2481.7319	4209.3	3320.45
975.37	2483.0816	4180.9	3290.9
975.4984	2484.4306	4188.15	3302.85
975.6267	2485.7789	4163.8	3277.45
975.755	2487.1264	4156.65	3267.7
975.8833	2488.4733	4152.05	3268.15
976.0115	2489.8195	4131.7	3236.1
976.1397	2491.165	4113.45	3221.3
976.2678	2492.5097	4099.5	3209.35
976.3959	2493.8538	4099.05	3212
976.524	2495.1972	4068.35	3180.3
976.6521	2496.5398	4059.3	3169.65
976.7801	2497.8818	4049.9	3157.8
976.9081	2499.2231	4041.15	3151.65
977.036	2500.5637	4025.05	3134.2
977.164	2501.9035	4021.05	3131.95
977.2918	2503.2427	3998.8	3106.1
977.4197	2504.5812	3984.35	3095.5
977.5475	2505.919	3984.05	3094.25
977.6753	2507.256	3987.75	3099.75
977.8031	2508.5924	3975.25	3086.8
977.9308	2509.9281	3955.15	3061
978.0585	2511.2631	3936.6	3050.05
978.1861	2512.5974	3926.25	3039.6
978.3137	2513.9309	3911.15	3023.6
978.4413	2515.2638	3919.9	3005.6
978.5689	2516.596	3887.7	3001.05
978.6964	2517.9275	3884.1	2994.1
978.8239	2519.2583	3870.65	2982.85
978.9513	2520.5884	3871.8	2983.2
979.0788	2521.9178	3849.35	2960.3
979.2062	2523.2465	3836.85	2950.15
979.3335	2524.5745	3839	2951.7
979.4608	2525.9018	3814.6	2925.15
979.5881	2527.2284	3808.45	2921.15
979.7154	2528.5543	3805.25	2919.75
979.8426	2529.8796	3803.3	2914.15
979.9698	2531.2041	3789.6	2900.55
980.0969	2532.5279	3783.8	2897.5
980.224	2533.851	3758.6	2872.15
980.3511	2535.1735	3762.75	2873.1
980.4781	2536.4952	3757.3	2869.8
980.6052	2537.8163	3751.05	2861
980.7321	2539.1366	3749.9	2860.8
980.8591	2540.4562	3726.8	2836.05
980.986	2541.7752	3728.8	2839.2
981.1129	2543.0935	3731.3	2845.1
981.2397	2544.411	3709.8	2818.85
981.3665	2545.7279	3708.3	2818.75
981.4933	2547.0441	3705.1	2816.95
981.62	2548.3596	3693.25	2801.95
981.7467	2549.6744	3666.25	2778.25
981.8734	2550.9885	3680.8	2789.05
982.0001	2552.3019	3666.05	2778.55
982.1267	2553.6146	3672.35	2782.55
982.2532	2554.9266	3657.4	2768.95
982.3798	2556.2379	3643.2	2753.85
982.5063	2557.5485	3622.05	2735.8
982.6327	2558.8585	3626.95	2730.25
982.7592	2560.1677	3628.25	2735.25
982.8856	2561.4762	3604.45	2714.7
983.0119	2562.7841	3615	2723
983.1383	2564.0913	3609.45	2723.25
983.2646	2565.3977	3590.05	2699.95
983.3908	2566.7035	3584.6	2695.15
983.517	2568.0086	3586.8	2695.5
983.6432	2569.313	3572.85	2681.6
983.7694	2570.6167	3578.8	2687.95
983.8955	2571.9197	3574	2685.45
984.0216	2573.222	3557.75	2665.55
984.1476	2574.5236	3550.2	2659
984.2737	2575.8246	3541.25	2650.45
984.3996	2577.1248	3542.55	2650.4
984.5256	2578.4244	3532.85	2644.7
984.6515	2579.7232	3516.65	2628.15
984.7774	2581.0214	3556.75	2641.95
984.9032	2582.3189	3525.4	2636.6
985.029	2583.6157	3519.2	2626.15
985.1548	2584.9118	3491.15	2600.1
985.2806	2586.2072	3490.1	2601.75
985.4063	2587.5019	3481.5	2592.7
985.5319	2588.7959	3476.85	2587.3
985.6576	2590.0893	3470.35	2579.6
985.7832	2591.3819	3470.15	2582.05
985.9087	2592.6739	3463.95	2574.4
986.0343	2593.9652	3454.45	2563.8
986.1597	2595.2557	3443.45	2554.8
986.2852	2596.5456	3431.95	2539.25
986.4106	2597.8348	3424.3	2534.55
986.536	2599.1234	3415	2526.3
986.6614	2600.4112	3407.7	2518.95
986.7867	2601.6983	3400.15	2509.1
986.912	2602.9848	3392.35	2502.95
987.0372	2604.2705	3401.8	2507.75
987.1624	2605.5556	3381.05	2491.4
987.2876	2606.84	3375.85	2486.65
987.4128	2608.1237	3364.7	2474.65
987.5379	2609.4067	3343.4	2454.9
987.6629	2610.689	3336.7	2440.7
987.788	2611.9707	3325.4	2432.45
987.913	2613.2516	3328.7	2436.3
988.0379	2614.5319	3301.7	2413.85
988.1629	2615.8115	3290.2	2401.8
988.2878	2617.0903	3280.15	2391.65
988.4126	2618.3685	3279.45	2390.3
988.5375	2619.6461	3258.25	2369.7
988.6622	2620.9229	3266.25	2378.95
988.787	2622.199	3255.4	2367.05
988.9117	2623.4745	3258.7	2368.95
989.0364	2624.7493	3235.35	2347.35
989.161	2626.0234	3233.2	2343.2
989.2857	2627.2968	3219.4	2332.15
989.4102	2628.5695	3200.8	2312.85
989.5348	2629.8415	3198.5	2312.15
989.6593	2631.1128	3207.3	2317.1
989.7837	2632.3835	3190.1	2301.35
989.9082	2633.6535	3173.25	2285.6
990.0326	2634.9228	3176.85	2289.45
990.1569	2636.1914	3151.35	2264.85
990.2812	2637.4593	3154.4	2264.6
990.4055	2638.7265	3141.4	2252.55
990.5298	2639.9931	3142.2	2255.65
990.654	2641.259	3132.1	2241.6
990.7782	2642.5242	3118.05	2229.4
990.9023	2643.7887	3113.25	2228
991.0264	2645.0525	3097.95	2210.05
991.1505	2646.3156	3110.1	2206.5
991.2745	2647.5781	3099.3	2211.05
991.3985	2648.8398	3087.85	2199.85
991.5225	2650.1009	3094.25	2182.75
991.6464	2651.3613	3063.55	2176.6
991.7703	2652.6211	3058.35	2170.55
991.8942	2653.8801	3055.25	2167.45
992.018	2655.1385	3039.85	2150.3
992.1418	2656.3961	3035.65	2147.5
992.2655	2657.6531	3027.25	2140.15
992.3892	2658.9094	3028.1	2139.55
992.5129	2660.1651	3031.1	2143.9
992.6366	2661.42	3021.2	2133.05
992.7602	2662.6743	3015.2	2126.2
992.8837	2663.9279	3013.95	2127.25
993.0073	2665.1808	3018	2129.7
993.1307	2666.433	2999.9	2110.6
993.2542	2667.6846	3001.9	2114.1
993.3776	2668.9354	3003.65	2113.4
993.501	2670.1856	2994.85	2107.35
993.6244	2671.4351	2994.75	2107.8
993.7477	2672.6839	2994.05	2102.9
993.8709	2673.9321	2979.55	2091.85
993.9942	2675.1795	2972.15	2085.55
994.1174	2676.4263	2965.8	2076.9
994.2405	2677.6724	2966.6	2080.7
994.3637	2678.9179	2957.5	2068.65
994.4868	2680.1626	2950.65	2063.65
994.6098	2681.4067	2942.25	2053.8
994.7328	2682.6501	2945.65	2056.55
994.8558	2683.8928	2922.3	2035.25
994.9788	2685.1348	2912.4	2026.65
995.1017	2686.3761	2910.8	2024.4
995.2245	2687.6168	2907.25	2018.9
995.3474	2688.8568	2906.9	2019.05
995.4702	2690.0961	2884.55	1997
995.5929	2691.3348	2874.95	1987.1
995.7156	2692.5727	2884.45	1997.7
995.8383	2693.81	2858.05	1969.2
995.961	2695.0466	2859.4	1972.35
996.0836	2696.2826	2857.55	1968.9
996.2062	2697.5178	2847.3	1958.9
996.3287	2698.7524	2825.55	1938.25
996.4512	2699.9863	2828.45	1940.55
996.5737	2701.2195	2828.05	1940.8
996.6961	2702.452	2834.45	1945.5
996.8185	2703.6839	2830.15	1943.05
996.9408	2704.9151	2828.45	1941.8
997.0631	2706.1456	2825.75	1939
997.1854	2707.3755	2820.5	1933.1
997.3077	2708.6046	2830.7	1941.05
997.4299	2709.8331	2813.15	1925
997.552	2711.0609	2814.85	1928.15
997.6742	2712.2881	2809.25	1922.95
997.7963	2713.5145	2816.85	1928.45
997.9183	2714.7403	2823.3	1937.8
998.0403	2715.9654	2824.2	1935.15
998.1623	2717.1899	2826.25	1925.5
998.2842	2718.4136	2815.1	1925.55
998.4062	2719.6367	2819.8	1932
998.528	2720.8591	2828.5	1934.7
998.6498	2722.0809	2815.5	1924.25
998.7716	2723.3019	2825.9	1935.4
998.8934	2724.5223	2836.55	1947.45
999.0151	2725.7421	2839.05	1951.55
999.1368	2726.9611	2824.4	1936.15
999.2584	2728.1795	2821.15	1930.6
999.38	2729.3972	2815.8	1928.2
999.5016	2730.6142	2798.85	1904.4
999.6231	2731.8306	2763.85	1875.35
999.7446	2733.0462	2759.9	1871.35
999.8661	2734.2612	2752.4	1860.1
999.9875	2735.4756	2727.85	1839
1000.1089	2736.6892	2709.9	1823.55
1000.2302	2737.9022	2695.65	1810.75
1000.3515	2739.1145	2682.5	1794.5
1000.4728	2740.3262	2664.5	1770.6
1000.594	2741.5372	2649.4	1764.15
1000.7152	2742.7475	2619.45	1730.6
1000.8363	2743.9571	2615.05	1725.65
1000.9575	2745.1661	2595.65	1705.35
1001.0785	2746.3744	2585.5	1698.2
1001.1996	2747.582	2589.85	1704.7
1001.3206	2748.7889	2573.85	1686.35
1001.4415	2749.9952	2556.35	1668.15
1001.5625	2751.2008	2551	1666.4
1001.6833	2752.4057	2542.15	1653.45
1001.8042	2753.61	2531.95	1645.45
1001.925	2754.8136	2532.2	1642.6
1002.0458	2756.0165	2516.15	1627.65
1002.1665	2757.2188	2509.55	1625.05
1002.2872	2758.4204	2501.25	1615.7
1002.4078	2759.6213	2502.5	1615.4
1002.5285	2760.8215	2505.9	1615.15
1002.649	2762.0211	2506.85	1619.05
1002.7696	2763.22	2492.15	1603.25
1002.8901	2764.4182	2481.3	1594.65
1003.0106	2765.6158	2470.8	1584.8
1003.131	2766.8127	2470.6	1583.8
1003.2514	2768.009	2463	1577.9
1003.3717	2769.2045	2452.5	1565.5
1003.492	2770.3994	2461.95	1573.7
1003.6123	2771.5936	2439.9	1553.3
1003.7325	2772.7872	2445.8	1559.65
1003.8527	2773.9801	2430.45	1544.3
1003.9729	2775.1723	2436.7	1533.95
1004.093	2776.3639	2406.55	1520.3
1004.2131	2777.5548	2405.65	1517.6
1004.3331	2778.745	2405.5	1519.65
1004.4531	2779.9346	2395.5	1510.95
1004.5731	2781.1235	2404.4	1517.9
1004.693	2782.3117	2400.7	1513.65
1004.8129	2783.4992	2382.55	1497.55
1004.9328	2784.6861	2391.8	1506.3
1005.0526	2785.8723	2407.75	1519.05
1005.1723	2787.0579	2384.3	1496.1
1005.2921	2788.2428	2389.95	1503.8
1005.4118	2789.427	2400.75	1513.85
1005.5314	2790.6106	2382.95	1497.4
1005.651	2791.7935	2395.15	1507.6
1005.7706	2792.9757	2402.6	1518.5
1005.8902	2794.1573	2397.85	1510.15
1006.0097	2795.3382	2408.05	1522.1
1006.1291	2796.5184	2402.8	1518.5
1006.2485	2797.698	2420.15	1532.35
1006.3679	2798.8769	2410.95	1525.1
1006.4873	2800.0551	2415.4	1530.35
1006.6066	2801.2327	2427.5	1540.3
1006.7258	2802.4096	2435.75	1551.05
1006.8451	2803.5859	2436.05	1551.05
1006.9642	2804.7615	2455.8	1569.9
1007.0834	2805.9364	2467.05	1581.75
1007.2025	2807.1106	2480.95	1597.5
1007.3216	2808.2842	2494.95	1608.1
1007.4406	2809.4572	2517.8	1630.4
1007.5596	2810.6294	2547.45	1659.75
1007.6785	2811.801	2568.85	1685.45
1007.7975	2812.972	2599.6	1715.2
1007.9163	2814.1423	2621.7	1737.2
1008.0352	2815.3119	2654.75	1769
1008.154	2816.4808	2676.15	1791.6
1008.2727	2817.6491	2727.45	1841.1
1008.3914	2818.8167	2753.15	1869.15
1008.5101	2819.9837	2818.8	1928.85
1008.6288	2821.15	2842.9	1955
1008.7474	2822.3157	2868.05	1984.75
1008.8659	2823.4807	2923.6	2037
1008.9844	2824.645	2971.2	2086.65
1009.1029	2825.8086	2991.8	2106.45
1009.2214	2826.9716	3032	2146.45
1009.3398	2828.134	3073.25	2189.85
1009.4581	2829.2957	3112.25	2225.65
1009.5764	2830.4567	3126.65	2243.3
1009.6947	2831.617	3145.05	2260.25
1009.813	2832.7767	3154.8	2269.05
1009.9312	2833.9358	3149.15	2264.95
1010.0493	2835.0941	3138.65	2251.25
1010.1675	2836.2519	3120.2	2236.7
1010.2855	2837.4089	3115.45	2229.35
1010.4036	2838.5653	3099.4	2213.1
1010.5216	2839.7211	3092.6	2207.85
1010.6396	2840.8761	3089.4	2200.4
1010.7575	2842.0306	3095.6	2211.75
1010.8754	2843.1843	3112.3	2225.8
1010.9932	2844.3374	3153.2	2269.5
1011.111	2845.4899	3175.85	2292.45
1011.2288	2846.6417	3224.4	2341.3
1011.3465	2847.7928	3285.4	2402.45
1011.4642	2848.9433	3332	2446.95
1011.5818	2850.0931	3373	2488.3
1011.6995	2851.2422	3441.25	2555.1
1011.817	2852.3907	3484.05	2600.05
1011.9345	2853.5385	3534.9	2647.5
1012.052	2854.6857	3583.35	2690.2
1012.1695	2855.8323	3608.95	2722.8
1012.2869	2856.9781	3653.15	2767.2
1012.4042	2858.1233	3676.95	2793
1012.5216	2859.2679	3711.25	2826.65
1012.6389	2860.4118	3746.75	2861.2
1012.7561	2861.555	3786.45	2895.25
1012.8733	2862.6976	3815.25	2926.45
1012.9905	2863.8395	3826.4	2942.45
1013.1076	2864.9808	3855.9	2970.25
1013.2247	2866.1214	3875.4	2992.5
1013.3417	2867.2614	3879.65	2993.35
1013.4587	2868.4007	3879	2995.2
1013.5757	2869.5393	3906.5	3020.5
1013.6926	2870.6773	3896.15	3008.6
1013.8095	2871.8146	3921.15	3035.45
1013.9263	2872.9513	3922.35	3034
1014.0431	2874.0874	3902.25	3017.85
1014.1599	2875.2227	3878.6	2993.15
1014.2766	2876.3574	3870.2	2984.35
1014.3933	2877.4915	3848.8	2965.05
1014.51	2878.6249	3824.95	2941.95
1014.6266	2879.7577	3799.55	2914.8
1014.7431	2880.8898	3790.05	2894.7
1014.8596	2882.0212	3770.4	2886.4
1014.9761	2883.152	3745.5	2861.95
1015.0925	2884.2821	3738.05	2855.15
1015.2089	2885.4116	3723.9	2840.55
1015.3253	2886.5405	3713.6	2827.8
1015.4416	2887.6686	3722.15	2836.85
1015.5579	2888.7962	3720.85	2839.25
1015.6741	2889.923	3713.9	2830.35
1015.7903	2891.0493	3729.9	2848.65
1015.9065	2892.1748	3737.2	2852.3
1016.0226	2893.2997	3748.05	2862.35
1016.1387	2894.424	3742.1	2859.1
1016.2547	2895.5476	3760.75	2879.1
1016.3707	2896.6706	3773.45	2890.9
1016.4866	2897.7929	3775.9	2892.15
1016.6025	2898.9145	3807.5	2922.85
1016.7184	2900.0355	3828.05	2942.7
1016.8342	2901.1559	3852.55	2968.5
1016.95	2902.2756	3876.05	2990.25
1017.0658	2903.3946	3889.8	3007.4
1017.1815	2904.513	3902.1	3015.15
1017.2971	2905.6308	3916.35	3034
1017.4127	2906.7479	3937.95	3053.75
1017.5283	2907.8643	3958.2	3074.05
1017.6439	2908.9801	3965.2	3082.45
1017.7594	2910.0953	3975.55	3092.7
1017.8748	2911.2098	3962.55	3074.6
1017.9902	2912.3236	3963.45	3072.25
1018.1056	2913.4368	3955.8	3069.05
1018.2209	2914.5494	3920.3	3036.1
1018.3362	2915.6613	3891	3001.65
1018.4515	2916.7725	3867.4	2980.6
1018.5667	2917.8831	3845.2	2960.65
1018.6819	2918.9931	3835.3	2948.5
1018.797	2920.1024	3786.65	2902.4
1018.9121	2921.211	3780.3	2894.7
1019.0271	2922.319	3751.45	2869
1019.1421	2923.4264	3735.35	2852
1019.2571	2924.5331	3723.6	2841.1
1019.372	2925.6391	3721.75	2838.35
1019.4869	2926.7445	3702.1	2820.1
1019.6017	2927.8493	3709.3	2826.3
1019.7165	2928.9534	3714	2829.6
1019.8313	2930.0569	3709.45	2824.45
1019.946	2931.1597	3702.9	2818.05
1020.0606	2932.2619	3686.3	2803.55
1020.1753	2933.3634	3705.45	2821.85
1020.2899	2934.4643	3705	2814.95
1020.4044	2935.5645	3684.3	2792.45
1020.5189	2936.6641	3653.7	2765.35
1020.6334	2937.763	3613.2	2731.3
1020.7478	2938.8613	3581.65	2695.75
1020.8622	2939.959	3560.4	2671.35
1020.9765	2941.056	3485.95	2602.8
1021.0908	2942.1523	3403.4	2519.45
1021.2051	2943.248	3355.65	2472.7
1021.3193	2944.3431	3277.65	2395.85
1021.4334	2945.4375	3192.55	2308.35
1021.5476	2946.5313	3119.6	2237.55
1021.6617	2947.6244	3026.05	2144.05
1021.7757	2948.7169	2936.15	2050.9
1021.8897	2949.8087	2870.1	1986.15
1022.0037	2950.8999	2785.55	1901.35
1022.1176	2951.9904	2714.15	1831.65
1022.2315	2953.0803	2658.65	1775
1022.3453	2954.1696	2617.5	1733.9
1022.4591	2955.2582	2558.8	1674.75
1022.5728	2956.3462	2520	1636.05
1022.6865	2957.4335	2479.4	1596.35
1022.8002	2958.5202	2444.05	1558.7
1022.9138	2959.6062	2436.25	1553.15
1023.0274	2960.6916	2413.25	1530.95
1023.141	2961.7764	2394.95	1509.35
1023.2545	2962.8605	2370.55	1487.65
1023.3679	2963.9439	2352.45	1468.95
1023.4813	2965.0267	2340.5	1457.15
1023.5947	2966.1089	2352.4	1446.25
1023.708	2967.1905	2334.6	1452.55
1023.8213	2968.2714	2325.6	1443.7
1023.9346	2969.3516	2332.45	1449.65
1024.0478	2970.4312	2319.6	1428.75
1024.1609	2971.5102	2331.6	1448.35
1024.274	2972.5885	2323.95	1442.7
1024.3871	2973.6662	2319.5	1430.5
1024.5002	2974.7432	2317.8	1432.8
1024.6132	2975.8196	2319.65	1436.2
1024.7261	2976.8954	2297.8	1414.75
1024.839	2977.9705	2289.6	1406.45
1024.9519	2979.045	2277.45	1393.65
1025.0647	2980.1188	2267.95	1386.35
1025.1775	2981.192	2251.1	1370.1
1025.2902	2982.2645	2228.75	1344.85
1025.4029	2983.3364	2211.4	1330.25
1025.5156	2984.4077	2169.65	1286.1
1025.6282	2985.4783	2168.6	1280.25
1025.7407	2986.5483	2129.7	1248.9
1025.8532	2987.6177	2101.05	1217.5
1025.9657	2988.6864	2075.95	1193.15
1026.0782	2989.7545	2042.45	1158.3
1026.1906	2990.8219	2014.35	1131.35
1026.3029	2991.8887	1998.85	1114.3
1026.4152	2992.9548	1964.85	1082.25
1026.5275	2994.0204	1933.65	1051.3
1026.6397	2995.0852	1914	1033.8
1026.7519	2996.1495	1890.45	1004.55
1026.864	2997.2131	1858.85	977.9
1026.9761	2998.276	1842.7	958.05
1027.0882	2999.3383	1827.7	940.8
1027.2002	3000.4	1810.8	927.45
1027.3122	3001.4611	1791.9	910.2
1027.4241	3002.5215	1777.85	896.8
1027.536	3003.5812	1757.3	875.05
1027.6478	3004.6404	1748.4	864.95
1027.7596	3005.6989	1744.35	859.9
1027.8714	3006.7567	1731.55	848.95
1027.9831	3007.8139	1730.95	833.65
1028.0947	3008.8705	1706.85	824
1028.2064	3009.9264	1711.05	813.25
1028.3179	3010.9818	1700.25	817.5
1028.4295	3012.0364	1687	804.1
1028.541	3013.0905	1680.75	798.5
1028.6524	3014.1439	1673.5	792.05
1028.7638	3015.1966	1664.15	781.65
1028.8752	3016.2487	1662.55	781.15
1028.9865	3017.3002	1662.8	774.85
1029.0978	3018.3511	1660.35	778.75
1029.209	3019.4013	1654.8	772.1
1029.3202	3020.4509	1651.4	770.05
1029.4314	3021.4998	1654.45	770.8
1029.5425	3022.5481	1646.05	762.5
1029.6535	3023.5958	1647.55	764.35
1029.7645	3024.6428	1648.4	765.05
1029.8755	3025.6892	1635.8	752.65
1029.9864	3026.735	1645.9	762.3
1030.0973	3027.7802	1644.95	762.2
1030.2082	3028.8247	1633.65	752.85
1030.319	3029.8685	1636.15	753.7
1030.4297	3030.9118	1639.1	757.55
1030.5404	3031.9544	1639.4	757.65
1030.6511	3032.9963	1641.75	760.35
1030.7617	3034.0376	1636.15	752.9
1030.8723	3035.0783	1644.6	760.1
1030.9829	3036.1184	1635.05	750.6
1031.0934	3037.1578	1643.5	761.5
1031.2038	3038.1966	1645.75	762.1
1031.3142	3039.2348	1631.65	750.95
1031.4246	3040.2723	1642.7	754.3
1031.5349	3041.3092	1634.55	752.75
1031.6452	3042.3455	1631.9	750.5
1031.7554	3043.3811	1625.8	742.85
1031.8656	3044.4161	1625.55	743.6
1031.9758	3045.4505	1622.25	741.85
1032.0859	3046.4842	1619.55	736.3
1032.1959	3047.5173	1617.8	736.7
1032.3059	3048.5498	1602.9	721.55
1032.4159	3049.5816	1601.45	719.7
1032.5258	3050.6128	1593.35	709.6
1032.6357	3051.6434	1592.55	707.85
1032.7455	3052.6734	1595.4	711.55
1032.8553	3053.7027	1584.4	702.05
1032.9651	3054.7314	1577.3	695.65
1033.0748	3055.7594	1575.2	693.6
1033.1845	3056.7868	1573.55	689.7
1033.2941	3057.8136	1574	694.75
1033.4037	3058.8398	1564.65	683.7
1033.5132	3059.8653	1549.35	666.65
1033.6227	3060.8902	1544.05	661.95
1033.7321	3061.9145	1550.05	666.4
1033.8415	3062.9381	1538.2	655.6
1033.9509	3063.9612	1557.7	659.65
1034.0602	3064.9835	1525.7	643.1
1034.1694	3066.0053	1532.65	648.6
1034.2787	3067.0264	1522.65	640.35
1034.3878	3068.0469	1511.75	630.1
1034.497	3069.0668	1510.15	622.7
1034.6061	3070.086	1495.55	614.25
1034.7151	3071.1046	1500.95	619.3
1034.8241	3072.1226	1493	608.9
1034.9331	3073.1399	1476.9	594.7
1035.042	3074.1567	1473.6	590.05
1035.1508	3075.1727	1475.6	590.8
1035.2597	3076.1882	1452.35	570.75
1035.3684	3077.203	1456.8	572.35
1035.4772	3078.2173	1445.1	561.95
1035.5859	3079.2308	1440.5	556.4
1035.6945	3080.2438	1424.6	540.25
1035.8031	3081.2561	1427.7	545.95
1035.9117	3082.2678	1419.9	539.05
1036.0202	3083.2789	1405.15	522.8
1036.1286	3084.2893	1401.2	520.1
1036.2371	3085.2991	1399.7	517.75
1036.3454	3086.3083	1396.95	509.9
1036.4538	3087.3169	1381.05	499.45
1036.562	3088.3248	1379.3	497.15
1036.6703	3089.3321	1378.1	494.75
1036.7785	3090.3388	1370.15	488.85
1036.8866	3091.3449	1369.3	486.45
1036.9948	3092.3503	1359.65	475.7
1037.1028	3093.3551	1359.7	478.6
1037.2108	3094.3593	1357.65	476.7
1037.3188	3095.3629	1345.3	466.4
1037.4267	3096.3658	1348.5	465.5
1037.5346	3097.3681	1350.5	470.25
1037.6425	3098.3698	1343.15	458.65
1037.7503	3099.3708	1340.3	452.7
1037.858	3100.3713	1329.9	448.55
1037.9657	3101.3711	1323.3	441.8
1038.0734	3102.3702	1459.55	437.9
1038.181	3103.3688	1329.25	447.8
1038.2886	3104.3667	1311.9	432.95
1038.3961	3105.364	1314.1	432.75
1038.5036	3106.3607	1313.75	432.65
1038.611	3107.3568	1310.95	427
1038.7184	3108.3522	1306.9	425.95
1038.8257	3109.347	1306.2	422.95
1038.933	3110.3412	1299.55	413.65
1039.0403	3111.3348	1297.85	417.55
1039.1475	3112.3277	1292.55	411.75
1039.2547	3113.32	1294.1	415.3
1039.3618	3114.3117	1294.2	412.75
1039.4689	3115.3028	1283.9	403.85
1039.5759	3116.2932	1280.95	399.05
1039.6829	3117.2831	1287.9	400.05
1039.7898	3118.2723	1275.75	393.65
1039.8967	3119.2608	1272.05	391.5
1040.0035	3120.2488	1274.35	392.35
1040.1103	3121.2361	1266.55	383.95
1040.2171	3122.2229	1266.1	386.1
1040.3238	3123.209	1267.1	384.25
1040.4305	3124.1944	1258.95	380.3
1040.5371	3125.1793	1262.75	379.45
1040.6437	3126.1635	1253.8	374.15
1040.7502	3127.1471	1254.75	374.05
1040.8567	3128.1301	1248.65	368.65
1040.9631	3129.1125	1251.2	371.15
1041.0695	3130.0942	1249	365.05
1041.1759	3131.0753	1252.05	361.15
1041.2822	3132.0558	1243.75	361.05
1041.3884	3133.0357	1247.4	364.2
1041.4946	3134.015	1239	358.6
1041.6008	3134.9936	1244.5	361.55
1041.7069	3135.9716	1256.65	354.7
1041.813	3136.949	1235.05	353
1041.919	3137.9258	1247.15	348.65
1042.025	3138.902	1237.85	351.7
1042.1309	3139.8775	1229	348.8
1042.2368	3140.8524	1228.4	346.25
1042.3427	3141.8267	1228.25	346.6
1042.4485	3142.8004	1227.85	346.05
1042.5542	3143.7735	1222.3	334.9
1042.6599	3144.7459	1220.1	337.95
1042.7656	3145.7178	1222.35	342.3
1042.8712	3146.689	1215.45	334.9
1042.9768	3147.6596	1211.6	327.1
1043.0823	3148.6295	1209.3	327.95
1043.1878	3149.5989	1210.3	329.65
1043.2932	3150.5676	1203.9	325.5
1043.3986	3151.5357	1203.45	323.1
1043.5039	3152.5032	1204.25	323
1043.6092	3153.4701	1201.3	320.3
1043.7145	3154.4364	1197.65	312.25
1043.8197	3155.402	1190.5	311.55
1043.9248	3156.367	1192.2	310.1
1044.03	3157.3315	1234.75	317
1044.135	3158.2952	1191.3	309.15
1044.24	3159.2584	1187.85	308
1044.345	3160.221	1186.7	304.95
1044.4499	3161.1829	1186.2	306.85
1044.5548	3162.1442	1179.15	299.65
1044.6596	3163.105	1182.45	300.85
1044.7644	3164.065	1179.75	297.3
1044.8692	3165.0245	1179.1	297.2
1044.9739	3165.9834	1175.35	296
1045.0785	3166.9416	1171	291.45
1045.1831	3167.8993	1170.45	287.85
1045.2877	3168.8563	1167.5	286.6
1045.3922	3169.8127	1171.65	292.1
1045.4966	3170.7684	1168.95	289.05
1045.6011	3171.7236	1167.1	284.65
1045.7054	3172.6782	1161.9	280.8
1045.8098	3173.6321	1164.35	282.45
1045.914	3174.5854	1162	274.35
1046.0183	3175.5381	1161.95	282.1
1046.1224	3176.4902	1150.9	269.55
1046.2266	3177.4417	1154.9	275.45
1046.3307	3178.3926	1161.2	281.95
1046.4347	3179.3428	1150.55	271.3
1046.5387	3180.2924	1148.4	269.9
1046.6427	3181.2415	1153.25	272.1
1046.7466	3182.1899	1151.75	269.75
1046.8504	3183.1377	1140.95	259.65
1046.9542	3184.0848	1146.65	262
1047.058	3185.0314	1143.6	263.35
1047.1617	3185.9773	1145	266.2
1047.2654	3186.9227	1144.25	259.55
1047.369	3187.8674	1141.1	261.45
1047.4726	3188.8115	1141.85	257.05
1047.5761	3189.755	1136.25	256.65
1047.6796	3190.6979	1131.45	250.9
1047.783	3191.6402	1135.4	255.55
1047.8864	3192.5818	1135.85	254.45
1047.9898	3193.5229	1140.75	254.05
1048.0931	3194.4633	1131.55	250.95
1048.1963	3195.4031	1130.6	249.15
1048.2995	3196.3423	1126.45	245.75
1048.4027	3197.2809	1127.8	246.95
1048.5058	3198.2189	1120.35	239.75
1048.6089	3199.1563	1131.4	241.9
1048.7119	3200.0931	1120.2	242.3
1048.8148	3201.0292	1120.8	240.5
1048.9178	3201.9648	1119.55	236.25
1049.0206	3202.8997	1121.85	237.05
1049.1235	3203.834	1119.25	238.9
1049.2262	3204.7677	1117.95	237.8
1049.329	3205.7008	1115.4	231.75
1049.4317	3206.6333	1111.75	232.05
1049.5343	3207.5652	1117.8	235.8
1049.6369	3208.4964	1113.1	230.85
1049.7394	3209.4271	1105.45	226.65
1049.8419	3210.3571	1109.55	229
1049.9444	3211.2865	1114	232.85
1050.0468	3212.2154	1105.1	220.7
1050.1491	3213.1436	1110.25	226
1050.2514	3214.0712	1110.7	225.4
1050.3537	3214.9982	1105.45	226.4
1050.4559	3215.9246	1103.15	221.85
1050.5581	3216.8503	1098.4	218.7
1050.6602	3217.7755	1103.7	223.65
1050.7623	3218.7001	1099.35	221.05
1050.8643	3219.624	1096.3	214.65
1050.9663	3220.5473	1096.65	216.55
1051.0682	3221.4701	1092.1	208.4
1051.1701	3222.3922	1095.45	214.1
1051.2719	3223.3137	1092.65	213.3
1051.3737	3224.2346	1093.8	213.35
1051.4754	3225.1549	1089.35	210.4
1051.5771	3226.0746	1093.2	213.3
1051.6788	3226.9937	1087.55	206.75
1051.7804	3227.9121	1086	206.85
1051.8819	3228.83	1087.35	208.15
1051.9834	3229.7473	1092.35	213.5
1052.0849	3230.6639	1087.85	207.1
1052.1863	3231.5799	1087.05	207.65
1052.2876	3232.4954	1081.95	201.95
1052.3889	3233.4102	1081.85	200.65
1052.4902	3234.3244	1078.2	196.85
1052.5914	3235.238	1075.25	193.15
1052.6926	3236.151	1100.4	193.55
1052.7937	3237.0634	1074.35	194.25
1052.8948	3237.9752	1076.25	198.05
1052.9958	3238.8864	1072.5	190.55
1053.0968	3239.797	1067.4	187.95
1053.1977	3240.7069	1075.2	195.1
1053.2986	3241.6163	1070.1	187.5
1053.3994	3242.5251	1070.65	190.85
1053.5002	3243.4332	1064.85	187.6
1053.6009	3244.3408	1063.8	183.05
1053.7016	3245.2477	1065.45	183.5
1053.8022	3246.154	1069.25	188.7
1053.9028	3247.0598	1062.05	179.25
1054.0034	3247.9649	1061.75	181.6
1054.1039	3248.8694	1060	180.35
1054.2043	3249.7733	1056.9	175.95
1054.3047	3250.6766	1060.05	180.45
1054.4051	3251.5793	1057.2	175.85
1054.5054	3252.4814	1056.25	175.3
1054.6056	3253.3829	1054.75	175.35
1054.7058	3254.2838	1051.8	171.95
1054.806	3255.1841	1054.3	174.25
1054.9061	3256.0838	1049.5	168.55
1055.0061	3256.9829	1049.15	172.1
1055.1062	3257.8814	1051.15	169.85
1055.2061	3258.7792	1050.3	170.25
1055.306	3259.6765	1046.8	165.6
1055.4059	3260.5731	1041	162.65
1055.5057	3261.4692	1041.05	160.4
1055.6055	3262.3647	1040.5	161.35
1055.7052	3263.2595	1034.3	153.95
1055.8049	3264.1538	1035.05	155.25
1055.9045	3265.0474	1030	147.85
1056.0041	3265.9404	1024.05	145.95
1056.1036	3266.8329	1023.45	143.85
1056.2031	3267.7247	1035.45	145.3
1056.3025	3268.616	1019.9	142.45
1056.4019	3269.5066	1017.55	136.65
1056.5013	3270.3966	1017.5	135.8
1056.6005	3271.286	1010.3	132.55
