Software Version:	3.9.2.0
Unit SN:	10000200
Spectrometer SN:	6960
Date:	3/26/2024 2:54:37 PM
Data Line Index:	25
Spectral Points:	2048
Integration time (ms):	125
Averages:	20
Delay (ms):	30000
Sequence Number:	1
Processing:	dark subtract
Laser Power (mW):	305
Laser Current (mA):	821
Laser Diode Temp (C):	25.1
Laser Case Temp (C):	28
System Temp (C):	28.1
Spectrometer Temp (C):	25.9
CCD Temp (C):	0.002
Secondary Temp (C):	20.013
Heatsink Temp (C):	23.753
CCDPCB Temp (C):	37.385
SecondaryPCB Temp (C):	34.217

Wavelength	RamanShift	Raw Counts	Dark Subtracted
787.061	30.1047	622.85	213.25
787.2016	32.3739	628.45	221.35
787.3422	34.6426	650.55	240.4
787.4828	36.9109	663.5	252.3
787.6235	39.1787	684	268.25
787.7642	41.4461	707.65	285.85
787.9049	43.7131	725.4	301.3
788.0456	45.9796	754.55	328
788.1863	48.2456	777.05	345.5
788.3271	50.5112	794.95	362.45
788.4679	52.7764	824.25	385.75
788.6087	55.0411	856.3	415.45
788.7496	57.3054	881.95	435.95
788.8904	59.5692	911.9	463.95
789.0313	61.8326	947.6	496.2
789.1722	64.0955	982.95	526.25
789.3132	66.3579	1027	565.5
789.4541	68.6199	1085.05	621.15
789.5951	70.8815	1172.95	705.5
789.7361	73.1426	1358.9	888.3
789.8771	75.4032	1835.15	1359.45
790.0181	77.6634	3008.35	2525.25
790.1592	79.9231	5994.6	5504.25
790.3003	82.1824	12819.35	12313.55
790.4414	84.4412	27399.1	26864.5
790.5825	86.6995	53848.4	53277.4
790.7237	88.9574	65291.5	64685.2
790.8648	91.2148	65535	64906.85
791.006	93.4717	65535	64888.6
791.1472	95.7282	65535	64876.45
791.2885	97.9842	65535	64873.1
791.4297	100.2398	65535	64871.2
791.571	102.4949	65535	64869.35
791.7123	104.7495	65535	64865.15
791.8536	107.0036	65535	64868.45
791.9949	109.2573	65535	64865.55
792.1363	111.5105	65535	64865.6
792.2777	113.7632	65535	64863.35
792.4191	116.0154	65535	64852.35
792.5605	118.2672	65535	64858.8
792.7019	120.5185	65535	64856.55
792.8434	122.7693	65535	64855.5
792.9849	125.0197	65535	64850.5
793.1264	127.2696	65535	64847.55
793.2679	129.519	65535	64843.95
793.4094	131.7679	65535	64841.3
793.551	134.0163	65535	64836
793.6926	136.2642	65535	64835.75
793.8342	138.5117	65535	64831.4
793.9758	140.7587	65535	64825.15
794.1175	143.0052	65535	64825.85
794.2591	145.2512	65535	64823.55
794.4008	147.4967	65535	64827.15
794.5425	149.7417	65535	64824.05
794.6842	151.9863	65535	64823.35
794.826	154.2304	65535	64818.55
794.9677	156.4739	65535	64814.95
795.1095	158.717	65535	64809.85
795.2513	160.9596	65535	64808.25
795.3931	163.2017	65535	64805.25
795.535	165.4433	65535	64804.25
795.6768	167.6844	65535	64802.2
795.8187	169.925	65535	64803
795.9606	172.1651	65535	64799.15
796.1025	174.4047	65535	64798.35
796.2445	176.6439	65535	64797.8
796.3864	178.8825	65535	64792.95
796.5284	181.1206	65535	64786.85
796.6704	183.3582	65535	64784.05
796.8124	185.5954	65535	64778.6
796.9544	187.832	65535	64775.55
797.0965	190.0681	65535	64777.55
797.2386	192.3037	65535	64772.05
797.3806	194.5388	65535	64772.1
797.5228	196.7734	65535	64765
797.6649	199.0075	65535	64764.65
797.807	201.2411	65535	64757.85
797.9492	203.4742	65535	64760.75
798.0914	205.7068	65535	64758.85
798.2336	207.9389	65535	64758.5
798.3758	210.1704	65535	64756.1
798.518	212.4015	65535	64756.8
798.6603	214.632	65535	64759.8
798.8025	216.862	65535	64763.25
798.9448	219.0915	65535	64773.35
799.0871	221.3205	65535	64770.75
799.2294	223.549	65535	64772.45
799.3718	225.777	65535	64777.45
799.5141	228.0044	65535	64770.45
799.6565	230.2314	65535	64776.9
799.7989	232.4578	65535	64772.2
799.9413	234.6837	65535	64767.15
800.0837	236.909	65535	64764.25
800.2262	239.1339	65535	64742.1
800.3687	241.3582	65535	64753.6
800.5111	243.582	65535	64724.15
800.6536	245.8053	65535	64743
800.7961	248.0281	65535	64742.95
800.9387	250.2503	65535	64740.35
801.0812	252.472	65535	64731.55
801.2238	254.6932	65535	64730.35
801.3664	256.9139	65535	64729.65
801.509	259.134	65535	64722.7
801.6516	261.3536	65535	64727.7
801.7942	263.5727	65535	64725.35
801.9369	265.7912	65535	64725.45
802.0795	268.0092	65535	64730.2
802.2222	270.2267	65535	64727.05
802.3649	272.4436	65535	64724.35
802.5076	274.6601	65535	64721.85
802.6504	276.8759	65535	64724.05
802.7931	279.0913	65535	64721.7
802.9359	281.3061	65535	64719.5
803.0787	283.5204	65535	64714.55
803.2215	285.7341	65535	64711.55
803.3643	287.9473	65535	64699.45
803.5071	290.16	65535	64701.2
803.6499	292.3721	65535	64712.65
803.7928	294.5837	65535	64709.6
803.9357	296.7947	65535	64713.95
804.0786	299.0052	65535	64711.65
804.2215	301.2152	65535	64711.55
804.3644	303.4246	65535	64713.75
804.5074	305.6334	65535	64712.6
804.6503	307.8418	65535	64710.9
804.7933	310.0495	65535	64711.8
804.9363	312.2568	65535	64710.55
805.0793	314.4635	65535	64708.6
805.2223	316.6696	65535	64703.4
805.3653	318.8752	65535	64694
805.5084	321.0802	65535	64702.25
805.6514	323.2847	65535	64700
805.7945	325.4887	65535	64703.05
805.9376	327.692	65535	64702.1
806.0807	329.8949	65535	64700.65
806.2238	332.0972	65535	64699.85
806.367	334.2989	65535	64695.45
806.5101	336.5001	65535	64694.1
806.6533	338.7007	65535	64697.8
806.7965	340.9008	65535	64693.7
806.9397	343.1003	65535	64692.8
807.0829	345.2992	65535	64690.5
807.2261	347.4976	65535	64693.6
807.3693	349.6955	65535	64687.35
807.5126	351.8927	65535	64687.5
807.6559	354.0895	65535	64675.15
807.7991	356.2856	65535	64687.15
807.9424	358.4812	65535	64683.4
808.0857	360.6763	65535	64684.25
808.2291	362.8707	65535	64683.6
808.3724	365.0646	65535	64686
808.5158	367.258	65535	64682.65
808.6591	369.4508	65535	64675.6
808.8025	371.643	65535	64675.75
808.9459	373.8346	65535	64671.25
809.0893	376.0257	65535	64672.3
809.2327	378.2162	65535	64671.95
809.3762	380.4062	65535	64670.85
809.5196	382.5956	65535	64667.05
809.6631	384.7844	65535	64671
809.8066	386.9726	65535	64672.2
809.9501	389.1603	65535	64669.9
810.0936	391.3474	65535	64630.65
810.2371	393.5339	65535	64667.2
810.3806	395.7199	65535	64677.3
810.5241	397.9052	65535	64672.6
810.6677	400.09	65535	64677.85
810.8113	402.2743	65535	64677.8
810.9548	404.4579	65535	64682.5
811.0984	406.641	65535	64676.4
811.2421	408.8235	65535	64679.55
811.3857	411.0054	65535	64679.5
811.5293	413.1868	65535	64674.6
811.673	415.3675	65535	64673.3
811.8166	417.5477	65535	64673.15
811.9603	419.7273	65535	64669.95
812.104	421.9064	65535	64663.65
812.2477	424.0848	65535	64669.8
812.3914	426.2627	65535	64663.95
812.5351	428.4399	65535	64664.15
812.6788	430.6166	65535	64661.05
812.8226	432.7928	65535	64658.4
812.9663	434.9683	65535	64663.2
813.1101	437.1432	65535	64662.2
813.2539	439.3176	65535	64663.5
813.3977	441.4914	65535	64662.25
813.5415	443.6645	65535	64661.25
813.6853	445.8371	65535	64662.4
813.8291	448.0091	65535	64661.85
813.973	450.1806	65535	64664.3
814.1168	452.3514	65535	64658
814.2607	454.5216	65535	64652.4
814.4046	456.6913	65535	64660.7
814.5485	458.8603	65535	64659.55
814.6924	461.0288	65535	64661.9
814.8363	463.1967	65535	64661.4
814.9802	465.3639	65535	64655.2
815.1241	467.5306	65535	64658
815.2681	469.6967	65535	64661.4
815.412	471.8622	65535	64660.6
815.556	474.0271	65535	64660.65
815.7	476.1914	65535	64658.05
815.844	478.3551	65535	64658.5
815.988	480.5182	65535	64660.9
816.132	482.6807	65535	64659.6
816.276	484.8426	65535	64664.35
816.4201	487.0039	65535	64662.2
816.5641	489.1647	65535	64656.1
816.7082	491.3248	65535	64654.85
816.8522	493.4843	65535	64658.7
816.9963	495.6432	65535	64657.55
817.1404	497.8015	65535	64650.25
817.2845	499.9592	65535	64653.85
817.4286	502.1163	65535	64652
817.5727	504.2728	65535	64650.4
817.7168	506.4287	65535	64657.95
817.861	508.5839	65535	64660.7
818.0051	510.7386	65535	64653.4
818.1493	512.8927	65535	64648.95
818.2935	515.0461	65535	64650.2
818.4377	517.199	65535	64653.1
818.5818	519.3512	65535	64649.05
818.726	521.5029	65535	64645.6
818.8703	523.6539	65535	64647.3
819.0145	525.8043	65535	64647.85
819.1587	527.9541	65535	64645.5
819.303	530.1033	65535	64650.55
819.4472	532.2519	65535	64645.85
819.5915	534.3999	65535	64646.45
819.7357	536.5472	65535	64649.65
819.88	538.694	65535	64647.85
820.0243	540.8401	65535	64643.1
820.1686	542.9856	65535	64641
820.3129	545.1305	65535	64637.3
820.4572	547.2748	65535	64635.9
820.6016	549.4185	65535	64630.45
820.7459	551.5615	65535	64633.75
820.8902	553.704	65535	64636.45
821.0346	555.8458	65535	64640.95
821.1789	557.987	65535	64639.85
821.3233	560.1276	65535	64634.15
821.4677	562.2675	65535	64636.15
821.6121	564.4069	65535	64637.25
821.7565	566.5456	65535	64638.8
821.9009	568.6837	65535	64638.75
822.0453	570.8212	65535	64641.45
822.1897	572.958	65535	64642.9
822.3342	575.0942	65535	64641.75
822.4786	577.2299	65535	64646.2
822.6231	579.3648	65535	64654.25
822.7675	581.4992	65535	64657.3
822.912	583.6329	65535	64658.05
823.0565	585.766	65535	64654.1
823.201	587.8985	65535	64649.25
823.3454	590.0304	65535	64635.3
823.4899	592.1616	65535	64641.7
823.6345	594.2922	65535	64637.95
823.779	596.4222	65535	64635.25
823.9235	598.5515	65535	64636.65
824.068	600.6802	65535	64638.7
824.2126	602.8083	65535	64641.75
824.3571	604.9358	65535	64637.6
824.5017	607.0626	65535	64633.5
824.6462	609.1888	65533.65	64630
824.7908	611.3144	65535	64631.95
824.9354	613.4393	65535	64628.95
825.08	615.5636	65524.05	64622.95
825.2246	617.6873	65535	64634.65
825.3692	619.8103	65519.95	64618.1
825.5138	621.9327	65535	64632.9
825.6584	624.0544	65535	64634.2
825.803	626.1756	65529.05	64628.1
825.9477	628.2961	65527.25	64626.35
826.0923	630.4159	65521.3	64622.85
826.237	632.5351	65516.5	64611.65
826.3816	634.6537	65535	64633.6
826.5263	636.7716	65505.05	64598.4
826.6709	638.8889	65521.45	64618.9
826.8156	641.0056	65521.65	64611.5
826.9603	643.1216	65521.65	64614.75
827.105	645.237	65526.75	64620.85
827.2497	647.3518	65508.05	64607.6
827.3944	649.4659	65520.3	64622.75
827.5391	651.5793	65520.7	64619.85
827.6838	653.6922	65523.8	64624.05
827.8285	655.8043	65451.5	64549.7
827.9733	657.9159	65526	64624.35
828.118	660.0268	65304.2	64398.5
828.2627	662.137	65507.3	64605.4
828.4075	664.2466	65508.45	64599.3
828.5522	666.3556	65442.65	64535.8
828.697	668.4639	65496.85	64589
828.8418	670.5716	65415.1	64514.6
828.9865	672.6786	65479.3	64575.45
829.1313	674.785	65411.55	64501.55
829.2761	676.8907	65430.55	64528.65
829.4209	678.9958	65484.5	64581.65
829.5657	681.1002	65480.85	64573.45
829.7105	683.204	65391.75	64479.6
829.8553	685.3072	65282	64372.8
830.0001	687.4097	65368.25	64462.75
830.1449	689.5115	65245.2	64333.9
830.2898	691.6127	65420.45	64514.65
830.4346	693.7132	65253.75	64348.85
830.5794	695.8131	65245.05	64315.95
830.7243	697.9123	65302.7	64392.05
830.8691	700.0109	65291.25	64380
831.014	702.1089	65014.05	64104
831.1588	704.2061	65103.25	64191.85
831.3037	706.3028	65164.65	64253.55
831.4486	708.3987	65240	64329.55
831.5935	710.4941	65095.65	64187.9
831.7383	712.5887	65323.9	64413.05
831.8832	714.6827	65205.5	64295.5
832.0281	716.7761	65375.05	64468
832.173	718.8688	65433.9	64526.65
832.3179	720.9608	65320	64403.3
832.4628	723.0522	65313.15	64396.95
832.6077	725.1429	65091.55	64179.8
832.7527	727.233	65433.35	64524.45
832.8976	729.3224	64353.45	63441.5
833.0425	731.4112	64787.7	63872.7
833.1874	733.4993	64758.25	63844.7
833.3324	735.5867	64769.3	63857.3
833.4773	737.6735	64422.95	63506.9
833.6222	739.7596	64122.9	63207.95
833.7672	741.845	64074.65	63160.4
833.9122	743.9298	64603.75	63689.65
834.0571	746.014	64049.75	63137.8
834.2021	748.0974	63711.4	62795.1
834.347	750.1802	64425.95	63507.05
834.492	752.2624	63545.15	62632.5
834.637	754.3439	63640.8	62722.55
834.782	756.4247	63866.5	62944.55
834.9269	758.5048	63516.55	62601.05
835.0719	760.5843	63707.7	62789.9
835.2169	762.6631	63925.4	63009.4
835.3619	764.7413	63843.15	62929.45
835.5069	766.8188	64019.05	63106
835.6519	768.8956	64433.85	63515.7
835.7969	770.9718	64376.55	63462.6
835.9419	773.0473	64165.55	63250.35
836.0869	775.1221	63570.5	62654.4
836.232	777.1962	63460.05	62547.2
836.377	779.2697	62760.55	61844.8
836.522	781.3426	63268.2	62343.3
836.667	783.4147	63537.55	62618.25
836.8121	785.4862	63523.65	62608.7
836.9571	787.557	62919.35	62003.2
837.1021	789.6271	63409.75	62494.45
837.2472	791.6966	62636.3	61718.4
837.3922	793.7654	61742.4	60823.9
837.5373	795.8335	61691.75	60774.3
837.6823	797.901	61839.35	60921.8
837.8274	799.9678	61326.9	60406.2
837.9724	802.0339	61235.35	60316.5
838.1175	804.0993	61350.9	60422.2
838.2626	806.1641	61088.25	60169.8
838.4076	808.2282	60866.5	59952.9
838.5527	810.2916	60622.3	59704.2
838.6978	812.3544	60955.45	60040.2
838.8428	814.4164	59997	59078.65
838.9879	816.4778	60076.5	59155.25
839.133	818.5385	60119.2	59202.6
839.2781	820.5986	60011.45	59093.25
839.4232	822.658	60112.45	59197.5
839.5682	824.7166	60067.4	59152.9
839.7133	826.7747	59294.55	58376.95
839.8584	828.832	59620.1	58700.95
840.0035	830.8886	60061.15	59143.65
840.1486	832.9446	60085.1	59166.4
840.2937	834.9999	58972.3	58054.9
840.4388	837.0545	59659.5	58738.15
840.5839	839.1085	60039.55	59119.7
840.729	841.1618	59784.5	58860.1
840.8741	843.2143	58890.55	57972.25
841.0192	845.2662	58837.5	57917.1
841.1643	847.3175	59035.7	58113.2
841.3095	849.368	57995.75	57078.3
841.4546	851.4179	58616.25	57695.35
841.5997	853.467	57888.95	56970.1
841.7448	855.5155	58089.3	57169.7
841.8899	857.5633	57431.4	56513.25
842.0351	859.6105	56993.15	56073.05
842.1802	861.6569	57292.15	56373.25
842.3253	863.7027	56623.05	55703.25
842.4704	865.7478	56821.3	55901.75
842.6156	867.7922	56604.35	55681.95
842.7607	869.8359	56966.45	56047.65
842.9058	871.8789	56296.4	55374.55
843.0509	873.9212	56840.6	55887.65
843.1961	875.9629	56768.55	55846.95
843.3412	878.0039	56852.65	55930.65
843.4863	880.0441	56653.95	55733.95
843.6315	882.0837	56563.25	55641.45
843.7766	884.1226	56409.55	55488.55
843.9218	886.1609	56141.95	55223.75
844.0669	888.1984	55762.15	54841.95
844.212	890.2352	56047.65	55131.65
844.3572	892.2714	55368	54445.8
844.5023	894.3069	55504.15	54582.6
844.6475	896.3416	55189.55	54269.5
844.7926	898.3757	55061.65	54141.65
844.9377	900.4091	54591.65	53671.2
845.0829	902.4418	55049.3	54122.4
845.228	904.4739	54534.65	53609.1
845.3732	906.5052	54699.45	53775.9
845.5183	908.5358	54270.1	53351
845.6635	910.5658	53940.8	53015.85
845.8086	912.595	53731.65	52808.85
845.9538	914.6236	53210.7	52290.4
846.0989	916.6515	53801.7	52880.4
846.2441	918.6786	52931.15	52008.15
846.3892	920.7051	53157.75	52233.1
846.5344	922.7309	53169.5	52246.65
846.6795	924.756	53186	52264.4
846.8246	926.7804	52947.2	52023.75
846.9698	928.8041	52402.2	51477.15
847.1149	930.8272	52595.4	51671.6
847.2601	932.8495	52365.75	51441
847.4052	934.8711	52006.2	51083.1
847.5504	936.892	51667.95	50747.1
847.6955	938.9123	51417.85	50496.6
847.8407	940.9318	51134.3	50208.7
847.9858	942.9506	50793.7	49867.35
848.131	944.9688	50662.1	49737.65
848.2761	946.9862	50172.65	49248.35
848.4213	949.003	50133.7	49209.25
848.5664	951.019	49843.3	48919.55
848.7115	953.0344	49858.7	48937.45
848.8567	955.0491	49725.65	48804.65
849.0018	957.063	49852.05	48928.3
849.147	959.0763	49887.45	48960.6
849.2921	961.0888	49696	48769.8
849.4373	963.1007	49758.25	48838.05
849.5824	965.1119	49633.65	48718.05
849.7275	967.1223	49514.2	48599.25
849.8727	969.1321	49567	48650.75
850.0178	971.1412	49301.15	48382
850.1629	973.1495	49217.65	48297.55
850.3081	975.1572	49184.55	48229.35
850.4532	977.1641	49092.55	48173.3
850.5983	979.1704	48911	47988.1
850.7435	981.1759	48767.35	47841.4
850.8886	983.1808	48726	47800.8
851.0337	985.1849	48649	47716.25
851.1788	987.1884	48684.7	47760.7
851.324	989.1911	48883.3	47961.95
851.4691	991.1932	48784.65	47863.35
851.6142	993.1945	48636.45	47714.8
851.7593	995.1951	48452.6	47531.35
851.9045	997.1951	48332.5	47402.5
852.0496	999.1943	48009	47085.15
852.1947	1001.1928	47792.7	46868.95
852.3398	1003.1906	47624.6	46703.05
852.4849	1005.1877	47500.65	46578.25
852.63	1007.1841	47215.95	46291.85
852.7751	1009.1798	46956.95	46037.75
852.9202	1011.1748	46552.3	45630.5
853.0653	1013.1691	46157.15	45234.15
853.2104	1015.1627	45839.15	44916.65
853.3555	1017.1556	45351.95	44430.3
853.5006	1019.1477	45169.75	44251
853.6457	1021.1392	44858.35	43938.55
853.7908	1023.1299	44616.55	43701.1
853.9359	1025.12	44518.85	43602.1
854.081	1027.1093	44361.4	43455.2
854.2261	1029.0979	44341.9	43437.9
854.3712	1031.0859	44186.7	43276.95
854.5163	1033.0731	43969.45	43055.05
854.6613	1035.0596	43782.85	42865.65
854.8064	1037.0454	43379.4	42461.25
854.9515	1039.0304	43215.9	42297.1
855.0965	1041.0148	42847.5	41930.3
855.2416	1042.9985	42643.05	41723.9
855.3867	1044.9814	42635.15	41714.6
855.5317	1046.9636	42378.05	41456.65
855.6768	1048.9452	42242.8	41325.3
855.8219	1050.926	42109.7	41188.5
855.9669	1052.9061	41922.2	41002.65
856.112	1054.8855	41748.3	40827.35
856.257	1056.8642	41710.4	40790.45
856.4021	1058.8421	41647.1	40724.05
856.5471	1060.8194	41526.2	40603.2
856.6921	1062.7959	41409.55	40490.15
856.8372	1064.7717	41340.75	40422.25
856.9822	1066.7469	41233.35	40313.8
857.1272	1068.7213	41095.15	40171.65
857.2723	1070.695	40965.85	40046.55
857.4173	1072.6679	40657.55	39737.45
857.5623	1074.6402	40518.75	39598.15
857.7073	1076.6117	40451.55	39524.45
857.8523	1078.5826	40465.35	39544.3
857.9973	1080.5527	40319.4	39398.55
858.1423	1082.5221	40298.05	39375.2
858.2873	1084.4908	40514.35	39592.3
858.4323	1086.4587	40592.25	39671.8
858.5773	1088.426	40658.35	39738.35
858.7223	1090.3925	40496.2	39568.45
858.8673	1092.3584	40401.55	39481.4
859.0123	1094.3235	40003.9	39087.05
859.1573	1096.2879	39761.9	38842.85
859.3022	1098.2515	39605.6	38684.55
859.4472	1100.2145	39556.1	38635.5
859.5922	1102.1767	39440.55	38519.65
859.7371	1104.1382	39495.8	38574.6
859.8821	1106.099	39567.1	38646.8
860.027	1108.0591	39580.6	38663.75
860.172	1110.0185	39644.55	38724.4
860.3169	1111.9771	39638.2	38717.1
860.4619	1113.9351	39261.25	38345.2
860.6068	1115.8923	38762.25	37842.35
860.7517	1117.8488	38288.9	37368.4
860.8967	1119.8045	37816.4	36898.45
861.0416	1121.7596	37622.8	36704.4
861.1865	1123.7139	37421.95	36507.75
861.3314	1125.6675	37327.4	36407.85
861.4763	1127.6204	37415.4	36497.25
861.6212	1129.5726	37293.55	36373
861.7661	1131.524	37242.6	36324.3
861.911	1133.4748	37200.8	36280.95
862.0559	1135.4248	37083.7	36160.7
862.2008	1137.3741	37052.1	36135.05
862.3457	1139.3226	36932.9	36011.75
862.4905	1141.2705	36871.05	35950.2
862.6354	1143.2176	36651.45	35726.45
862.7803	1145.164	36625.5	35706.55
862.9251	1147.1097	36549.4	35628
863.07	1149.0546	36495.35	35573.15
863.2148	1150.9989	36299.2	35377.3
863.3597	1152.9424	36104.3	35183.95
863.5045	1154.8852	35812.3	34891.15
863.6493	1156.8272	35580.85	34660.85
863.7942	1158.7686	35421.5	34493.6
863.939	1160.7092	35243.8	34322.95
864.0838	1162.6491	35095.25	34173.85
864.2286	1164.5883	35177.95	34260.5
864.3734	1166.5267	35143.05	34218.6
864.5182	1168.4644	35174.15	34253.85
864.663	1170.4014	35304.95	34387.55
864.8078	1172.3377	35496.75	34579.7
864.9526	1174.2732	35577.4	34661.1
865.0974	1176.2081	35707.8	34789.65
865.2421	1178.1421	35766	34843
865.3869	1180.0755	35862.45	34944.35
865.5317	1182.0082	35695.7	34778.4
865.6764	1183.9401	35568.55	34652.2
865.8212	1185.8713	35238.15	34321.85
865.9659	1187.8017	34890.7	33978.1
866.1106	1189.7315	34641.85	33732.6
866.2554	1191.6605	34172.15	33265.2
866.4001	1193.5888	33871.55	32958.55
866.5448	1195.5163	33738.75	32824.95
866.6895	1197.4432	33481.8	32566.6
866.8342	1199.3693	33356.15	32441.25
866.9789	1201.2947	33155.95	32231.4
867.1236	1203.2193	33024.15	32107.25
867.2683	1205.1432	32970.3	32049.7
867.413	1207.0664	32934.4	32016.6
867.5576	1208.9889	32898.65	31977.6
867.7023	1210.9106	32865.1	31948.2
867.847	1212.8316	32807.9	31891.6
867.9916	1214.7519	32827	31901.55
868.1363	1216.6715	32791.3	31874.7
868.2809	1218.5903	32593.6	31675.55
868.4255	1220.5084	32490	31572.35
868.5701	1222.4257	32385.6	31466.4
868.7148	1224.3424	32173.65	31256.85
868.8594	1226.2583	32111.8	31192.45
869.004	1228.1735	32155.3	31238.75
869.1486	1230.0879	32137	31218.7
869.2932	1232.0016	32157.25	31240.5
869.4377	1233.9146	32118.5	31203
869.5823	1235.8269	31928.45	31011.75
869.7269	1237.7384	31765	30849.2
869.8715	1239.6492	31420.3	30504.2
870.016	1241.5592	31278.3	30361.65
870.1606	1243.4686	31045.75	30128.35
870.3051	1245.3772	30905.7	29988.35
870.4496	1247.285	30739.8	29825.2
870.5941	1249.1922	30600	29683.1
870.7387	1251.0986	30553.9	29637.65
870.8832	1253.0042	30392.55	29473.2
871.0277	1254.9092	30401.95	29488.7
871.1722	1256.8134	30423.4	29509.85
871.3167	1258.7169	30538.6	29623.25
871.4611	1260.6196	30570.4	29653.5
871.6056	1262.5216	30747.35	29831.55
871.7501	1264.4229	30777.7	29866.65
871.8945	1266.3234	30847.85	29932.3
872.039	1268.2232	30882.35	29965.15
872.1834	1270.1223	30756.55	29838.2
872.3278	1272.0207	30683.45	29766.6
872.4723	1273.9183	30521.8	29600.65
872.6167	1275.8151	30388.3	29471.8
872.7611	1277.7113	30254.25	29340.5
872.9055	1279.6067	29995.15	29080.4
873.0499	1281.5014	29767.4	28851.05
873.1943	1283.3953	29526.25	28611.5
873.3386	1285.2885	29365.7	28451.7
873.483	1287.181	29254.25	28338.55
873.6274	1289.0727	29226.35	28314.45
873.7717	1290.9637	29174.15	28260.1
873.9161	1292.854	29254.85	28340.45
874.0604	1294.7435	29309.15	28393.7
874.2047	1296.6323	29489.15	28571.9
874.349	1298.5204	29687.3	28768.25
874.4933	1300.4077	29882.75	28968.6
874.6376	1302.2943	30038.05	29122.6
874.7819	1304.1802	30100	29185.3
874.9262	1306.0653	29908.6	28992.45
875.0705	1307.9497	29745.4	28830.15
875.2147	1309.8333	29633	28718
875.359	1311.7162	29567.7	28652.9
875.5032	1313.5984	29630.6	28714.05
875.6475	1315.4798	29675.2	28742.65
875.7917	1317.3605	29796.1	28874.9
875.9359	1319.2405	29963.05	29046.95
876.0801	1321.1197	29922.15	29005.25
876.2243	1322.9982	29808.75	28890.7
876.3685	1324.876	29836.7	28920.4
876.5127	1326.753	29680.95	28764.95
876.6569	1328.6293	29652.15	28735.45
876.801	1330.5048	29688	28770.75
876.9452	1332.3796	29584.25	28669.95
877.0893	1334.2537	29563.1	28625.75
877.2335	1336.127	29406.35	28491.15
877.3776	1337.9996	29334.8	28420.85
877.5217	1339.8714	29151.9	28235.1
877.6658	1341.7426	29055.8	28096.05
877.8099	1343.6129	28939.45	28022.6
877.954	1345.4826	28778.2	27864
878.0981	1347.3515	28759.15	27842.1
878.2422	1349.2196	28605.55	27689.55
878.3862	1351.087	28585.75	27669.5
878.5303	1352.9537	28562.05	27645.95
878.6743	1354.8197	28630.75	27713.7
878.8184	1356.6849	28787.6	27874.5
878.9624	1358.5493	28787.65	27875.6
879.1064	1360.4131	28732.15	27814.9
879.2504	1362.276	28572.05	27658.25
879.3944	1364.1383	28331	27416.05
879.5384	1365.9998	28016.6	27099.7
879.6823	1367.8606	27674.95	26760.85
879.8263	1369.7206	27384.6	26469.1
879.9702	1371.5799	27134.75	26218.05
880.1142	1373.4384	26912.35	26000.5
880.2581	1375.2962	26838.4	25924.95
880.402	1377.1533	26477.55	25563.45
880.5459	1379.0096	26066.25	25155.3
880.6898	1380.8652	25731.2	24818.05
880.8337	1382.7201	25479.9	24566.75
880.9776	1384.5742	25136.9	24223.95
881.1215	1386.4275	24926.5	24011.05
881.2653	1388.2802	24739.95	23826.95
881.4092	1390.132	24561.55	23647.65
881.553	1391.9832	24504.25	23588.1
881.6968	1393.8336	24303.85	23390.85
881.8406	1395.6832	24214.9	23300.25
881.9844	1397.5322	24085.2	23173
882.1282	1399.3803	23997.4	23078.4
882.272	1401.2278	23885.1	22969.8
882.4158	1403.0745	23837.75	22927.25
882.5595	1404.9204	23736.55	22825
882.7033	1406.7656	23696.25	22786.35
882.847	1408.6101	23615.3	22702.7
882.9908	1410.4538	23586.05	22671.85
883.1345	1412.2968	23507.25	22594.65
883.2782	1414.139	23481.75	22567.8
883.4219	1415.9805	23505.2	22594.35
883.5656	1417.8213	23483.2	22550.5
883.7092	1419.6613	23547.4	22636.65
883.8529	1421.5006	23676.8	22763.85
883.9965	1423.3391	23889.85	22975.2
884.1402	1425.1769	24172.45	23257.45
884.2838	1427.0139	24653.2	23740.2
884.4274	1428.8502	25249.9	24335.1
884.571	1430.6858	25788.8	24874.35
884.7146	1432.5206	26100.3	25186.85
884.8582	1434.3547	26386.5	25474.1
885.0018	1436.188	26389.4	25477.9
885.1453	1438.0206	26271.9	25359.75
885.2889	1439.8524	26022.8	25109.55
885.4324	1441.6835	25942.1	25029.05
885.5759	1443.5139	25823.5	24906.65
885.7194	1445.3435	25655.5	24743.6
885.8629	1447.1724	25558.05	24648
886.0064	1449.0005	25463.65	24549.95
886.1499	1450.8279	25315.75	24403.4
886.2933	1452.6545	25217.1	24307
886.4368	1454.4804	25229.55	24319.7
886.5802	1456.3056	25168.85	24253.45
886.7237	1458.13	25057.4	24148.9
886.8671	1459.9536	24835.35	23924.75
887.0105	1461.7766	24396.15	23483.75
887.1539	1463.5987	23926.1	23010.8
887.2972	1465.4202	23464.35	22552.6
887.4406	1467.2409	23082.3	22170.95
887.584	1469.0608	22802.6	21892.65
887.7273	1470.88	22461	21549.75
887.8706	1472.6984	22212.45	21302.7
888.0139	1474.5161	21903.3	20990.55
888.1572	1476.3331	21679.3	20769.25
888.3005	1478.1493	21545.85	20634.1
888.4438	1479.9648	21465.4	20554.65
888.5871	1481.7795	21309.55	20399.4
888.7303	1483.5935	21225.8	20313.05
888.8736	1485.4067	21092.5	20182.4
889.0168	1487.2192	21041.9	20132.8
889.16	1489.031	20979.05	20063.7
889.3032	1490.842	20888.05	19979.95
889.4464	1492.6522	20836.25	19925.95
889.5896	1494.4618	20762.25	19851.15
889.7327	1496.2705	20709.65	19799.6
889.8759	1498.0785	20671.5	19760.65
890.019	1499.8858	20578.7	19667.9
890.1622	1501.6924	20492.9	19583
890.3053	1503.4981	20477.4	19567.5
890.4484	1505.3032	20434.7	19524.55
890.5914	1507.1075	20353.15	19442.3
890.7345	1508.911	20281	19370.65
890.8776	1510.7138	20230.05	19318.6
891.0206	1512.5159	20110.4	19203.3
891.1637	1514.3172	20043.55	19133.6
891.3067	1516.1178	19921.5	19016.25
891.4497	1517.9176	19911.2	18998
891.5927	1519.7166	19822.65	18913.85
891.7357	1521.515	19738.95	18824.6
891.8786	1523.3126	19659.2	18751.1
892.0216	1525.1094	19611.05	18700.2
892.1645	1526.9055	19524.95	18619.5
892.3074	1528.7008	19460.35	18551.6
892.4503	1530.4954	19369.35	18455.55
892.5932	1532.2893	19282.3	18377.4
892.7361	1534.0824	19205	18295.35
892.879	1535.8747	19186.35	18281.05
893.0218	1537.6663	19101.6	18195.7
893.1647	1539.4572	18975.05	18067.75
893.3075	1541.2473	18982	18076.7
893.4503	1543.0367	18933.95	18027.05
893.5931	1544.8253	18826.6	17915.2
893.7359	1546.6132	18830.75	17922.3
893.8787	1548.4003	18743.35	17826.65
894.0214	1550.1867	18759.5	17844.8
894.1642	1551.9723	18728.45	17818.85
894.3069	1553.7572	18690.45	17786.6
894.4496	1555.5414	18662.15	17756.85
894.5923	1557.3247	18640.95	17735
894.735	1559.1074	18631.95	17731.7
894.8777	1560.8893	18582.4	17680.2
895.0204	1562.6705	18575.1	17673.65
895.163	1564.4509	18613.6	17712.1
895.3056	1566.2305	18633.5	17734.8
895.4482	1568.0094	18727.35	17827.35
895.5908	1569.7876	18785.5	17884.6
895.7334	1571.565	18833.05	17930.1
895.876	1573.3417	18872.5	17970.15
896.0186	1575.1176	18847.85	17943.8
896.1611	1576.8928	18784.8	17887.5
896.3036	1578.6672	18649.65	17752.65
896.4461	1580.4409	18489.2	17594.2
896.5886	1582.2138	18319.2	17418.45
896.7311	1583.986	18162.75	17260.95
896.8736	1585.7575	18033.05	17132.85
897.0161	1587.5282	17861.55	16963.75
897.1585	1589.2981	17796.05	16900.15
897.3009	1591.0673	17673.65	16777.15
897.4433	1592.8358	17657.35	16758.3
897.5857	1594.6035	17623.4	16722.6
897.7281	1596.3704	17531.5	16631.8
897.8705	1598.1366	17462.35	16563.4
898.0128	1599.9021	17440.1	16541.95
898.1551	1601.6668	17429.2	16527.2
898.2975	1603.4308	17428.25	16526.55
898.4398	1605.194	17488.45	16583.5
898.5821	1606.9564	17482.6	16585.65
898.7243	1608.7182	17550.95	16654.9
898.8666	1610.4791	17627.1	16736.2
899.0088	1612.2394	17772.4	16881.35
899.1511	1613.9988	17859.85	16967.4
899.2933	1615.7576	18071.55	17176.5
899.4355	1617.5156	18295.1	17390.15
899.5776	1619.2728	18504.55	17606.2
899.7198	1621.0293	18654.65	17756.2
899.862	1622.785	18683.9	17786.15
900.0041	1624.54	18561.7	17664.65
900.1462	1626.2942	18422.1	17524.6
900.2883	1628.0477	18096.55	17196.45
900.4304	1629.8005	17836.65	16937.7
900.5725	1631.5525	17533.15	16639.25
900.7145	1633.3037	17280.75	16387.85
900.8566	1635.0542	17079.15	16185.8
900.9986	1636.804	16898.65	16003.35
901.1406	1638.553	16857.05	15889.5
901.2826	1640.3013	16661.05	15765.3
901.4245	1642.0488	16592.3	15692.6
901.5665	1643.7955	16521.4	15630.25
901.7085	1645.5416	16472.25	15578.05
901.8504	1647.2868	16496.25	15605.4
901.9923	1649.0313	16482.95	15588.35
902.1342	1650.7751	16599.3	15700.75
902.2761	1652.5181	16782.45	15889.15
902.4179	1654.2604	16935.5	16041.7
902.5598	1656.0019	17209.05	16314.05
902.7016	1657.7427	17580.1	16685.15
902.8434	1659.4828	17876.05	16979.5
902.9852	1661.222	18132.05	17235.25
903.127	1662.9606	18162.9	17266.95
903.2687	1664.6984	17958.75	17061.3
903.4105	1666.4354	17638.05	16739.55
903.5522	1668.1717	17160.05	16261.25
903.6939	1669.9072	16677.95	15780.75
903.8356	1671.642	16239.35	15339.1
903.9773	1673.3761	15960.1	15064.2
904.119	1675.1094	15698.9	14802.9
904.2606	1676.8419	15455.15	14561.05
904.4022	1678.5737	15290.05	14395.4
904.5439	1680.3048	15150.75	14254.75
904.6855	1682.0351	15018.4	14123.05
904.827	1683.7646	14897.2	13999.25
904.9686	1685.4934	14840.1	13944.6
905.1101	1687.2215	14763.15	13867.4
905.2517	1688.9488	14640.15	13748.75
905.3932	1690.6754	14573.45	13678.05
905.5347	1692.4012	14532.5	13637.7
905.6761	1694.1263	14488.7	13594.55
905.8176	1695.8506	14431.05	13534.85
905.9591	1697.5742	14357.7	13464.95
906.1005	1699.297	14298.85	13405.2
906.2419	1701.0191	14185.55	13293.35
906.3833	1702.7404	14147.4	13257.3
906.5246	1704.461	14061.6	13167.3
906.666	1706.1808	13986	13092
906.8073	1707.8999	13965.95	13072.85
906.9487	1709.6182	13931.85	13041.1
907.09	1711.3358	13901	13011.35
907.2313	1713.0527	13835.95	12948.45
907.3725	1714.7688	13799.1	12904.95
907.5138	1716.4841	13719.75	12825.75
907.655	1718.1987	13718.55	12820.45
907.7962	1719.9126	13646.3	12755.7
907.9374	1721.6257	13579.1	12685.5
908.0786	1723.338	13552	12664.55
908.2198	1725.0496	13462.55	12572.15
908.3609	1726.7605	13446.6	12555.85
908.502	1728.4706	13405.2	12515.4
908.6431	1730.18	13326.1	12434.3
908.7842	1731.8886	13265	12376.55
908.9253	1733.5964	13278.45	12365.55
909.0664	1735.3036	13228.15	12334.1
909.2074	1737.0099	13188.3	12298.45
909.3484	1738.7156	13159.55	12271.8
909.4894	1740.4204	13091	12199.15
909.6304	1742.1246	13050.8	12159.85
909.7714	1743.8279	13038.55	12149.15
909.9123	1745.5306	13005.05	12117
910.0532	1747.2325	12970.6	12082.95
910.1941	1748.9336	12898.5	12008.4
910.335	1750.634	12890.3	11997.45
910.4759	1752.3336	12838	11947.05
910.6168	1754.0325	12800.75	11913.95
910.7576	1755.7307	12768.85	11880.85
910.8984	1757.4281	12764.05	11875.5
911.0392	1759.1247	12725.35	11826.6
911.18	1760.8206	12723.55	11829.95
911.3208	1762.5158	12699.5	11806.65
911.4615	1764.2102	12621.45	11734.1
911.6022	1765.9039	12569.85	11682.05
911.7429	1767.5968	12548.5	11661.8
911.8836	1769.289	12537.85	11651.25
912.0243	1770.9804	12463	11572.05
912.1649	1772.6711	12467.65	11574.9
912.3056	1774.361	12412.15	11521.6
912.4462	1776.0502	12395.3	11504.05
912.5868	1777.7386	12383.7	11489
912.7274	1779.4263	12342.8	11455.4
912.8679	1781.1132	12302.85	11415.65
913.0084	1782.7994	12257.3	11370.65
913.149	1784.4849	12229.5	11342.9
913.2895	1786.1696	12209.15	11305.5
913.4299	1787.8535	12173.4	11285.2
913.5704	1789.5367	12164.55	11278.7
913.7108	1791.2192	12122.8	11236.4
913.8513	1792.9009	12081.45	11165.95
913.9917	1794.5818	12052.5	11162.65
914.132	1796.2621	12006.85	11120.05
914.2724	1797.9415	11969.3	11080.2
914.4128	1799.6202	11946.3	11058.4
914.5531	1801.2982	11907.1	11017.3
914.6934	1802.9755	11899.6	11011.05
914.8337	1804.6519	11871.8	10984.5
914.9739	1806.3277	11822.35	10934.5
915.1142	1808.0027	11769.95	10884.7
915.2544	1809.6769	11760	10873.6
915.3946	1811.3504	11729.25	10843.75
915.5348	1813.0231	11703.4	10815.65
915.675	1814.6951	11665.7	10777.8
915.8151	1816.3664	11667	10777.6
915.9553	1818.0369	11628.9	10742.3
916.0954	1819.7067	11587.15	10698.85
916.2355	1821.3757	11559.45	10668.15
916.3755	1823.044	11571.3	10680
916.5156	1824.7115	11555.1	10667.45
916.6556	1826.3783	11472.2	10584.25
916.7956	1828.0443	11461.25	10573.95
916.9356	1829.7096	11407.9	10517.8
917.0756	1831.3741	11404.15	10511.75
917.2155	1833.0379	11391.9	10506.35
917.3555	1834.701	11354.5	10468.35
917.4954	1836.3633	11317.6	10431.55
917.6353	1838.0248	11312.2	10424.5
917.7751	1839.6856	11271.55	10383.65
917.915	1841.3457	11227.4	10339.7
918.0548	1843.005	11188.3	10301.4
918.1946	1844.6636	11198.15	10310.75
918.3344	1846.3214	11153.2	10266.3
918.4742	1847.9785	11149.2	10260.5
918.6139	1849.6349	11139.65	10248.55
918.7537	1851.2904	11110.9	10213.1
918.8934	1852.9453	11088.85	10198.2
919.0331	1854.5994	11064.85	10175.05
919.1727	1856.2528	11077.9	10183.65
919.3124	1857.9054	11023.55	10135.95
919.452	1859.5572	10996.8	10110.15
919.5916	1861.2083	10980.4	10092.8
919.7312	1862.8587	10952.4	10064.6
919.8708	1864.5084	10962.25	10071.8
920.0103	1866.1572	10902.9	10015.25
920.1498	1867.8054	10857.25	9967.3
920.2893	1869.4528	10842.45	9952.85
920.4288	1871.0994	10831.25	9943.2
920.5683	1872.7453	10796.6	9908.4
920.7077	1874.3905	10733.9	9839.9
920.8471	1876.0349	10701.35	9811.1
920.9865	1877.6786	10712.5	9821.4
921.1259	1879.3215	10711.75	9826
921.2653	1880.9637	10675.15	9787.2
921.4046	1882.6051	10658.4	9768.8
921.5439	1884.2458	10634.5	9744.3
921.6832	1885.8858	10594.55	9705.65
921.8225	1887.525	10559	9669.8
921.9617	1889.1634	10523.65	9635.85
922.101	1890.8011	10482.85	9593.65
922.2402	1892.4381	10453.45	9566.8
922.3794	1894.0743	10450.1	9564.35
922.5185	1895.7098	10420.4	9531.2
922.6577	1897.3446	10397.85	9508.65
922.7968	1898.9786	10397.45	9504.8
922.9359	1900.6118	10361.7	9473.85
923.075	1902.2443	10285.45	9397.2
923.214	1903.8761	10266.3	9375.75
923.3531	1905.5071	10217.15	9328.4
923.4921	1907.1374	10205.1	9317.1
923.6311	1908.7669	10177.55	9293.05
923.77	1910.3957	10153.75	9266.1
923.909	1912.0237	10090.75	9203.55
924.0479	1913.651	10085	9196.45
924.1868	1915.2776	10051	9165
924.3257	1916.9034	10003.45	9118.2
924.4646	1918.5285	9968.9	9082.1
924.6034	1920.1528	9939.25	9052
924.7422	1921.7764	9933.65	9046.9
924.881	1923.3992	9888.2	9000.8
925.0198	1925.0213	9816.55	8930.55
925.1586	1926.6427	9774.7	8887.9
925.2973	1928.2633	9826.3	8869
925.436	1929.8832	9752.05	8865.35
925.5747	1931.5023	9712.85	8826.45
925.7134	1933.1207	9697.35	8812.6
925.852	1934.7383	9673.15	8785.25
925.9906	1936.3552	9640.45	8753.65
926.1292	1937.9714	9612.8	8726.55
926.2678	1939.5868	9582.35	8693.7
926.4064	1941.2015	9531	8642.25
926.5449	1942.8154	9498.2	8610.2
926.6834	1944.4286	9450.7	8563.65
926.8219	1946.041	9426.1	8518.9
926.9604	1947.6528	9372.9	8479.5
927.0988	1949.2637	9350.35	8465.1
927.2372	1950.8739	9313.9	8427.6
927.3756	1952.4834	9281.7	8392.9
927.514	1954.0921	9270.8	8384.9
927.6523	1955.7001	9250.35	8358.65
927.7907	1957.3074	9217.8	8332.95
927.929	1958.9139	9170.75	8288.5
928.0673	1960.5197	9137.65	8251.5
928.2055	1962.1247	9112.7	8228.7
928.3438	1963.729	9065.3	8178.9
928.482	1965.3325	9049.25	8141.75
928.6202	1966.9353	9018.05	8133
928.7584	1968.5374	8999.8	8115.1
928.8965	1970.1387	8953.2	8067.65
929.0346	1971.7393	8922.6	8034.7
929.1727	1973.3392	8926.25	8042.25
929.3108	1974.9383	8898.5	8014.95
929.4489	1976.5366	8845.65	7960.35
929.5869	1978.1342	8826.95	7940.8
929.7249	1979.7311	8794.7	7910.45
929.8629	1981.3273	8758.1	7875.1
930.0009	1982.9227	8725.9	7841.6
930.1388	1984.5173	8683.15	7798.85
930.2767	1986.1112	8659.05	7775
930.4146	1987.7044	8634.15	7751.8
930.5525	1989.2968	8617.75	7732.65
930.6904	1990.8885	8633.4	7747.15
930.8282	1992.4795	8599.95	7716.9
930.966	1994.0697	8568.75	7684.9
931.1038	1995.6592	8532.75	7651.4
931.2415	1997.2479	8520	7635.45
931.3793	1998.8359	8489.25	7606.8
931.517	2000.4232	8456.95	7574.9
931.6547	2002.0097	8438.85	7558.75
931.7923	2003.5955	8401.35	7520.35
931.93	2005.1805	8394.3	7512.25
932.0676	2006.7648	8387.35	7506.45
932.2052	2008.3484	8343.5	7461.2
932.3427	2009.9312	8362.95	7480.45
932.4803	2011.5133	8308.6	7429.95
932.6178	2013.0946	8301	7421.85
932.7553	2014.6752	8262	7380.2
932.8928	2016.2551	8260.45	7375.9
933.0302	2017.8342	8210.25	7328.1
933.1676	2019.4126	8181	7301.7
933.305	2020.9902	8142.05	7262.15
933.4424	2022.5672	8126.9	7245.85
933.5798	2024.1433	8128.55	7241.5
933.7171	2025.7188	8100.8	7224.2
933.8544	2027.2935	8067.85	7185.6
933.9917	2028.8674	8044.25	7163
934.129	2030.4406	8020.1	7139.8
934.2662	2032.0131	7983.2	7103.1
934.4034	2033.5849	7971.5	7079.85
934.5406	2035.1559	7961.55	7081.15
934.6778	2036.7261	7955.9	7076.35
934.8149	2038.2957	7941.05	7059.1
934.952	2039.8645	7906.45	7025.65
935.0891	2041.4325	7903.9	7018.9
935.2262	2042.9998	7875.95	6992.65
935.3632	2044.5664	7845.15	6961.3
935.5002	2046.1323	7818.8	6938.15
935.6372	2047.6974	7801.55	6920.9
935.7742	2049.2617	7763.75	6882
935.9111	2050.8254	7753.95	6870
936.048	2052.3883	7752.35	6870.45
936.1849	2053.9504	7725.6	6843.9
936.3218	2055.5118	7698.25	6816.3
936.4586	2057.0725	7659.2	6772.45
936.5955	2058.6325	7657.1	6777.9
936.7323	2060.1917	7609.9	6728.5
936.869	2061.7502	7619.75	6735.75
937.0058	2063.3079	7581.75	6703.5
937.1425	2064.8649	7548.5	6662.95
937.2792	2066.4212	7547.65	6666.1
937.4159	2067.9767	7531.8	6649.2
937.5525	2069.5315	7502.8	6620.75
937.6891	2071.0856	7451.65	6568.35
937.8257	2072.6389	7445.35	6561.3
937.9623	2074.1915	7404.8	6525.4
938.0989	2075.7433	7376	6493.3
938.2354	2077.2945	7341.7	6462.1
938.3719	2078.8448	7331.15	6449
938.5084	2080.3945	7310.9	6428.65
938.6448	2081.9434	7295.55	6411.95
938.7812	2083.4916	7277.35	6394.3
938.9176	2085.039	7260.1	6374.75
939.054	2086.5857	7251.25	6363.6
939.1903	2088.1317	7224.6	6337.8
939.3267	2089.677	7187.85	6302.5
939.463	2091.2215	7206.8	6322.45
939.5992	2092.7652	7177.9	6288.8
939.7355	2094.3083	7169.05	6283.9
939.8717	2095.8506	7129.15	6244.9
940.0079	2097.3921	7121	6239.5
940.1441	2098.933	7092.65	6208.35
940.2802	2100.4731	7076.95	6195.6
940.4163	2102.0124	7092.75	6200.95
940.5524	2103.5511	7054.25	6168.55
940.6885	2105.089	7049.8	6164.25
940.8245	2106.6261	7023	6139.65
940.9606	2108.1626	7001.3	6116.8
941.0965	2109.6983	7018.9	6104.75
941.2325	2111.2332	6969.05	6084.45
941.3684	2112.7675	6965.9	6077.25
941.5044	2114.301	6932.7	6044.55
941.6403	2115.8337	6959.65	6073.05
941.7761	2117.3657	6929.05	6041.5
941.912	2118.897	6891.55	6003.65
942.0478	2120.4276	6865.05	5973.5
942.1835	2121.9575	6853.5	5966.3
942.3193	2123.4866	6862.35	5960.65
942.455	2125.0149	6823.6	5936.75
942.5907	2126.5426	6793.15	5911.65
942.7264	2128.0695	6757.15	5870.65
942.8621	2129.5956	6767.95	5886.95
942.9977	2131.1211	6759.7	5873.9
943.1333	2132.6458	6750.4	5868.75
943.2689	2134.1698	6731.85	5847.4
943.4044	2135.693	6708.05	5819.25
943.54	2137.2155	6711.7	5824.9
943.6755	2138.7373	6682.7	5798.65
943.8109	2140.2584	6650.05	5766.9
943.9464	2141.7787	6621.4	5736.3
944.0818	2143.2983	6625.55	5744.8
944.2172	2144.8171	6585.65	5705.3
944.3526	2146.3353	6543.75	5659.7
944.4879	2147.8527	6524.25	5641.2
944.6232	2149.3693	6520.45	5635.4
944.7585	2150.8853	6505.15	5622.05
944.8938	2152.4005	6475.9	5592
945.029	2153.9149	6473.45	5590.7
945.1642	2155.4287	6551.8	5558.7
945.2994	2156.9417	6483.45	5597.1
945.4346	2158.454	6442.25	5555.95
945.5697	2159.9655	6409.4	5525.2
945.7048	2161.4764	6398.1	5517.25
945.8399	2162.9865	6370.95	5488.05
945.9749	2164.4958	6362.5	5477.35
946.1099	2166.0045	6325.7	5442.75
946.2449	2167.5124	6340.75	5457.55
946.3799	2169.0195	6324.65	5441.6
946.5148	2170.526	6294.35	5411
946.6498	2172.0317	6285.65	5402.6
946.7846	2173.5367	6265.3	5382.3
946.9195	2175.0409	6248.15	5365.7
947.0543	2176.5445	6233.75	5351.85
947.1891	2178.0473	6203.6	5317.45
947.3239	2179.5494	6186.35	5299.55
947.4587	2181.0507	6169.35	5284.6
947.5934	2182.5513	6150	5266
947.7281	2184.0512	6135.05	5250.65
947.8628	2185.5504	6112.85	5227.55
947.9974	2187.0488	6100.7	5216.8
948.132	2188.5465	6079.6	5196.25
948.2666	2190.0435	6061.35	5177
948.4012	2191.5397	6034.15	5149.8
948.5357	2193.0353	6035.4	5152.4
948.6702	2194.5301	6009.9	5123.35
948.8047	2196.0241	5997	5111.65
948.9392	2197.5175	5973.6	5087.55
949.0736	2199.0101	5968.85	5080.35
949.208	2200.502	5919.1	5036.35
949.3424	2201.9931	5916.25	5034
949.4767	2203.4835	5891.7	5007.9
949.611	2204.9733	5882.6	4994.5
949.7453	2206.4622	5852	4970.65
949.8796	2207.9505	5838.05	4951.8
950.0138	2209.438	5814.8	4933.15
950.148	2210.9248	5812.5	4928.7
950.2822	2212.4109	5783.55	4901.9
950.4164	2213.8962	5747.7	4861.7
950.5505	2215.3809	5757.1	4869.5
950.6846	2216.8648	5748.9	4860.95
950.8186	2218.3479	5738.15	4847.55
950.9527	2219.8304	5712.25	4820.2
951.0867	2221.3121	5697.25	4808
951.2207	2222.7931	5671.45	4785.9
951.3546	2224.2733	5657.2	4772.6
951.4886	2225.7529	5636.7	4753.05
951.6225	2227.2317	5622	4736.5
951.7563	2228.7098	5613.35	4730.7
951.8902	2230.1872	5583.05	4700.8
952.024	2231.6638	5585.3	4703.85
952.1578	2233.1397	5568.55	4681.4
952.2916	2234.6149	5543.45	4663.05
952.4253	2236.0894	5529.55	4647.8
952.559	2237.5632	5523.3	4628.85
952.6927	2239.0362	5488.5	4605.1
952.8263	2240.5085	5465.75	4582.3
952.9599	2241.9801	5442.25	4557.1
953.0935	2243.4509	5451.15	4566.3
953.2271	2244.921	5415.15	4528.5
953.3606	2246.3904	5402.25	4513.5
953.4941	2247.8591	5392.4	4506.85
953.6276	2249.3271	5357.05	4471.4
953.7611	2250.7943	5364.85	4480.3
953.8945	2252.2608	5333.2	4447.1
954.0279	2253.7266	5319.65	4435.55
954.1612	2255.1917	5299.4	4414.7
954.2946	2256.656	5292.9	4407.35
954.4279	2258.1197	5286.65	4403.95
954.5612	2259.5826	5285.6	4401.3
954.6944	2261.0447	5267.1	4381.35
954.8276	2262.5062	5251.15	4366.1
954.9608	2263.9669	5242.8	4356
955.094	2265.4269	5211.7	4328
955.2271	2266.8862	5201.35	4315.75
955.3602	2268.3448	5192.55	4310.1
955.4933	2269.8026	5184.15	4301
955.6264	2271.2598	5169.3	4287.1
955.7594	2272.7162	5146.25	4265.85
955.8924	2274.1719	5145.8	4260.55
956.0253	2275.6268	5138.4	4255.55
956.1583	2277.0811	5131.6	4247.8
956.2912	2278.5346	5118.35	4237.1
956.4241	2279.9874	5098.5	4216.6
956.5569	2281.4395	5101.05	4218.65
956.6897	2282.8908	5082.95	4195
956.8225	2284.3414	5065.9	4179.05
956.9553	2285.7914	5043.15	4161.45
957.088	2287.2406	5043.4	4158.2
957.2207	2288.689	5039.6	4152.9
957.3534	2290.1368	5005.95	4119.4
957.486	2291.5838	5000.35	4111.8
957.6186	2293.0302	4971.7	4085.85
957.7512	2294.4758	4972.45	4088.6
957.8838	2295.9206	4953.35	4065.35
958.0163	2297.3648	4937	4053.25
958.1488	2298.8082	4923.25	4036.65
958.2813	2300.251	4915.55	4029.75
958.4137	2301.693	4901.35	4015.1
958.5461	2303.1343	4882.4	3996.15
958.6785	2304.5748	4872.5	3989.5
958.8108	2306.0147	4848.55	3965.4
958.9432	2307.4538	4839.15	3954.2
959.0754	2308.8922	4833.5	3951.45
959.2077	2310.3299	4819.9	3936.25
959.3399	2311.7669	4816.5	3934.15
959.4721	2313.2031	4789.4	3904.1
959.6043	2314.6387	4779	3894.85
959.7365	2316.0735	4763	3880.15
959.8686	2317.5076	4743.9	3858.9
960.0006	2318.941	4744.15	3857.55
960.1327	2320.3737	4730.65	3845.9
960.2647	2321.8056	4725.45	3839.9
960.3967	2323.2369	4712	3824.5
960.5287	2324.6674	4691.6	3804.45
960.6606	2326.0972	4676.8	3790.65
960.7925	2327.5263	4661.6	3776.35
960.9244	2328.9547	4650.15	3765.85
961.0562	2330.3823	4656.75	3771.35
961.1881	2331.8092	4641.25	3754.5
961.3198	2333.2355	4609.9	3723.35
961.4516	2334.661	4606.9	3721
961.5833	2336.0858	4609.95	3722.45
961.715	2337.5098	4580.85	3695.2
961.8467	2338.9332	4584.95	3698
961.9783	2340.3558	4555	3666.75
962.1099	2341.7778	4562.5	3680.5
962.2415	2343.199	4533.35	3648.75
962.373	2344.6195	4529.4	3646.15
962.5045	2346.0393	4509.8	3628.8
962.636	2347.4583	4510.95	3624.95
962.7675	2348.8767	4489.55	3605.05
962.8989	2350.2943	4490.95	3604.85
963.0303	2351.7113	4494.85	3608.05
963.1617	2353.1275	4476.8	3591.95
963.293	2354.543	4460.05	3547.3
963.4243	2355.9578	4442.1	3556.4
963.5556	2357.3718	4420.95	3535.55
963.6868	2358.7852	4390.05	3503
963.818	2360.1978	4384.25	3498.2
963.9492	2361.6098	4386.9	3500.5
964.0803	2363.021	4373.5	3485.25
964.2114	2364.4315	4356.95	3471.35
964.3425	2365.8413	4371.45	3482.65
964.4736	2367.2504	4336.25	3453.45
964.6046	2368.6587	4318.3	3435.05
964.7356	2370.0664	4307.5	3424
964.8666	2371.4733	4291.1	3407.65
964.9975	2372.8795	4269	3385.55
965.1284	2374.285	4264.35	3379.4
965.2593	2375.6899	4240.85	3357.1
965.3901	2377.0939	4234.55	3351.4
965.5209	2378.4973	4219	3336.3
965.6517	2379.9	4213.55	3326.75
965.7825	2381.3019	4180.6	3297.15
965.9132	2382.7032	4167.2	3285
966.0439	2384.1037	4153.15	3273.75
966.1745	2385.5035	4156.5	3274.6
966.3051	2386.9027	4143.6	3262.45
966.4357	2388.3011	4132.9	3247.2
966.5663	2389.6987	4112.75	3229.5
966.6968	2391.0957	4109.75	3226.05
966.8273	2392.492	4099.75	3216.3
966.9578	2393.8876	4075.4	3190.2
967.0882	2395.2824	4070.4	3186.7
967.2186	2396.6765	4054.25	3170.9
967.349	2398.07	4027.75	3144.75
967.4793	2399.4627	4037.2	3151.55
967.6097	2400.8547	4029.4	3144.4
967.7399	2402.246	4023.8	3135.3
967.8702	2403.6366	4001.75	3118.3
968.0004	2405.0265	3979.85	3096.25
968.1306	2406.4156	3965.2	3077.6
968.2607	2407.8041	3948.6	3062.4
968.3909	2409.1918	3943.85	3061.65
968.521	2410.5789	3922.15	3035.5
968.651	2411.9652	3911.3	3023.65
968.781	2413.3508	3909.25	3024.7
968.911	2414.7358	3902.5	3016.5
969.041	2416.12	3894.3	3011.55
969.1709	2417.5035	3876.35	2993
969.3008	2418.8863	3866.65	2982.8
969.4307	2420.2684	3857.25	2973.8
969.5606	2421.6497	3837.85	2953.55
969.6904	2423.0304	3825.4	2943.9
969.8201	2424.4104	3805.2	2920.15
969.9499	2425.7896	3808.8	2923.7
970.0796	2427.1682	3792.95	2908.65
970.2093	2428.546	3798.7	2913.9
970.3389	2429.9232	3777.9	2891.75
970.4685	2431.2996	3777.15	2893.5
970.5981	2432.6753	3759.45	2875.45
970.7277	2434.0503	3762.15	2878
970.8572	2435.4246	3739	2854.8
970.9867	2436.7982	3731.2	2843.4
971.1161	2438.1711	3713.7	2830.65
971.2456	2439.5433	3704.05	2817.65
971.375	2440.9148	3704.65	2815.65
971.5043	2442.2856	3695.4	2810.95
971.6336	2443.6557	3687.75	2802.35
971.7629	2445.025	3658.95	2776.35
971.8922	2446.3937	3638.25	2753.35
972.0214	2447.7617	3636.5	2751.8
972.1506	2449.1289	3646.6	2761.5
972.2798	2450.4955	3633.9	2746.65
972.4089	2451.8613	3622.45	2737.6
972.538	2453.2265	3614.95	2729.85
972.6671	2454.5909	3616.65	2732.6
972.7961	2455.9546	3595.2	2711.3
972.9251	2457.3177	3595.15	2712.25
973.0541	2458.68	3571.15	2686.9
973.1831	2460.0416	3576.5	2693.3
973.312	2461.4025	3575.35	2691.95
973.4408	2462.7627	3585.3	2690.75
973.5697	2464.1222	3562	2679.65
973.6985	2465.4811	3544.9	2659.75
973.8273	2466.8392	3529.35	2646.1
973.956	2468.1966	3532.55	2646.3
974.0847	2469.5533	3527.75	2643.4
974.2134	2470.9093	3512.2	2628.9
974.3421	2472.2645	3514.6	2628
974.4707	2473.6191	3518.6	2635.1
974.5993	2474.973	3485.45	2601.3
974.7278	2476.3262	3493.05	2606.7
974.8563	2477.6787	3469.9	2586.35
974.9848	2479.0305	3458.7	2575.5
975.1132	2480.3816	3444.3	2558.95
975.2417	2481.7319	3451.35	2565.6
975.37	2483.0816	3435.4	2548.75
975.4984	2484.4306	3429.35	2545.7
975.6267	2485.7789	3421.9	2539.25
975.755	2487.1264	3396.25	2511.95
975.8833	2488.4733	3394.9	2513.3
976.0115	2489.8195	3392.85	2501.15
976.1397	2491.165	3378.75	2493.05
976.2678	2492.5097	3366.15	2480.3
976.3959	2493.8538	3353.05	2470.7
976.524	2495.1972	3334.9	2451.65
976.6521	2496.5398	3333.7	2450.65
976.7801	2497.8818	3327.8	2442.2
976.9081	2499.2231	3315.85	2430.55
977.036	2500.5637	3316.95	2431
977.164	2501.9035	3292.4	2408.8
977.2918	2503.2427	3287.85	2399.85
977.4197	2504.5812	3282.5	2398.3
977.5475	2505.919	3287.05	2398.9
977.6753	2507.256	3276.9	2394
977.8031	2508.5924	3258.15	2374.7
977.9308	2509.9281	3243.2	2353.05
978.0585	2511.2631	3230.35	2345.7
978.1861	2512.5974	3232.1	2348
978.3137	2513.9309	3212.7	2328.15
978.4413	2515.2638	3232.95	2326.55
978.5689	2516.596	3217.8	2334.45
978.6964	2517.9275	3188.7	2303.3
978.8239	2519.2583	3191.2	2308.95
978.9513	2520.5884	3187	2301.3
979.0788	2521.9178	3171.7	2287.8
979.2062	2523.2465	3170.25	2289.65
979.3335	2524.5745	3160.5	2279.5
979.4608	2525.9018	3130.6	2247.8
979.5881	2527.2284	3141.15	2257.9
979.7154	2528.5543	3129.45	2246.8
979.8426	2529.8796	3116	2232.8
979.9698	2531.2041	3113.8	2229.3
980.0969	2532.5279	3098.7	2215.65
980.224	2533.851	3096.55	2212.2
980.3511	2535.1735	3082.5	2199.35
980.4781	2536.4952	3091.3	2208.05
980.6052	2537.8163	3088.05	2202.35
980.7321	2539.1366	3085.85	2202.7
980.8591	2540.4562	3071.8	2184.65
980.986	2541.7752	3075.4	2191.65
981.1129	2543.0935	3074.55	2189.15
981.2397	2544.411	3064.45	2179.85
981.3665	2545.7279	3060.45	2176.6
981.4933	2547.0441	3050	2167.05
981.62	2548.3596	3042.05	2154.05
981.7467	2549.6744	3038.2	2154.55
981.8734	2550.9885	3043.3	2157
982.0001	2552.3019	3026.55	2141.25
982.1267	2553.6146	3012.5	2127.85
982.2532	2554.9266	3005.6	2122.35
982.3798	2556.2379	2990.4	2103.2
982.5063	2557.5485	2997.3	2115.05
982.6327	2558.8585	2981.65	2090.35
982.7592	2560.1677	2982.5	2092.35
982.8856	2561.4762	2980	2095.5
983.0119	2562.7841	2969.15	2082.45
983.1383	2564.0913	2965.85	2083.4
983.2646	2565.3977	2960.65	2076.65
983.3908	2566.7035	2958.5	2074.05
983.517	2568.0086	2955.25	2068.85
983.6432	2569.313	2933.2	2048.65
983.7694	2570.6167	2929.3	2041.55
983.8955	2571.9197	2919	2037.75
984.0216	2573.222	2935.95	2047.45
984.1476	2574.5236	2928.35	2042.05
984.2737	2575.8246	2925.6	2038.65
984.3996	2577.1248	2923.55	2035.95
984.5256	2578.4244	2912.15	2028.35
984.6515	2579.7232	2899.4	2015.3
984.7774	2581.0214	2926.65	2008.9
984.9032	2582.3189	2907.25	2023.9
985.029	2583.6157	2902.55	2013.45
985.1548	2584.9118	2895.2	2010.05
985.2806	2586.2072	2893.65	2009.9
985.4063	2587.5019	2883.9	2001.45
985.5319	2588.7959	2884	2001.05
985.6576	2590.0893	2880.95	1995.2
985.7832	2591.3819	2871.25	1987.75
985.9087	2592.6739	2875.1	1991.1
986.0343	2593.9652	2863.1	1977.85
986.1597	2595.2557	2861.15	1976.65
986.2852	2596.5456	2866.4	1980.45
986.4106	2597.8348	2858.15	1975.9
986.536	2599.1234	2849.85	1964.35
986.6614	2600.4112	2836.9	1951.1
986.7867	2601.6983	2826.55	1940.1
986.912	2602.9848	2832.75	1948.45
987.0372	2604.2705	2829.7	1939.5
987.1624	2605.5556	2816.15	1931.25
987.2876	2606.84	2805.9	1920.2
987.4128	2608.1237	2818	1934.05
987.5379	2609.4067	2795.25	1912.1
987.6629	2610.689	2800.85	1907.6
987.788	2611.9707	2784.5	1895.55
987.913	2613.2516	2779.9	1890.85
988.0379	2614.5319	2765.95	1881.8
988.1629	2615.8115	2752.7	1867.95
988.2878	2617.0903	2738.55	1852.5
988.4126	2618.3685	2740.9	1857.2
988.5375	2619.6461	2733.3	1849.1
988.6622	2620.9229	2728.4	1846
988.787	2622.199	2735.95	1851.3
988.9117	2623.4745	2718.05	1832.6
989.0364	2624.7493	2723.35	1839
989.161	2626.0234	2706	1823.75
989.2857	2627.2968	2698.1	1814.3
989.4102	2628.5695	2706	1820.25
989.5348	2629.8415	2688.75	1806.45
989.6593	2631.1128	2687.3	1799.8
989.7837	2632.3835	2674.9	1790.25
989.9082	2633.6535	2677.8	1794.65
990.0326	2634.9228	2666.9	1783.6
990.1569	2636.1914	2671.15	1785.1
990.2812	2637.4593	2651.75	1765.15
990.4055	2638.7265	2657.5	1771.75
990.5298	2639.9931	2646.65	1761.1
990.654	2641.259	2651.6	1767.65
990.7782	2642.5242	2636.4	1751.45
990.9023	2643.7887	2631.1	1746.35
991.0264	2645.0525	2624.6	1739.65
991.1505	2646.3156	2627.9	1729.4
991.2745	2647.5781	2617.3	1731.8
991.3985	2648.8398	2600.6	1715.95
991.5225	2650.1009	2621.1	1710.75
991.6464	2651.3613	2593.2	1708.55
991.7703	2652.6211	2586.75	1703.35
991.8942	2653.8801	2590.85	1708.8
992.018	2655.1385	2573.2	1686.6
992.1418	2656.3961	2565.3	1681.95
992.2655	2657.6531	2562.65	1680.95
992.3892	2658.9094	2570.45	1685.45
992.5129	2660.1651	2564.75	1681.7
992.6366	2661.42	2551.6	1665.75
992.7602	2662.6743	2549.8	1666.3
992.8837	2663.9279	2545.65	1662.75
993.0073	2665.1808	2549.4	1664.45
993.1307	2666.433	2532.25	1649
993.2542	2667.6846	2540.55	1655.85
993.3776	2668.9354	2553.3	1666.6
993.501	2670.1856	2545	1660.7
993.6244	2671.4351	2538.45	1653.7
993.7477	2672.6839	2551.55	1665.3
993.8709	2673.9321	2536.95	1652.55
993.9942	2675.1795	2529.9	1645.65
994.1174	2676.4263	2530.1	1644.6
994.2405	2677.6724	2526.35	1643.4
994.3637	2678.9179	2522.65	1640.5
994.4868	2680.1626	2532.45	1647
994.6098	2681.4067	2524.45	1642.35
994.7328	2682.6501	2511.15	1629.25
994.8558	2683.8928	2500.5	1616.45
994.9788	2685.1348	2496	1613.4
995.1017	2686.3761	2498.8	1614.5
995.2245	2687.6168	2480.8	1598.2
995.3474	2688.8568	2475.85	1592.1
995.4702	2690.0961	2473	1589.8
995.5929	2691.3348	2458.05	1573.8
995.7156	2692.5727	2444.5	1560.7
995.8383	2693.81	2451.05	1566.8
995.961	2695.0466	2440.9	1557.55
996.0836	2696.2826	2439.3	1551.65
996.2062	2697.5178	2439.75	1551.9
996.3287	2698.7524	2428.45	1543.6
996.4512	2699.9863	2431.95	1547.75
996.5737	2701.2195	2420.75	1538.6
996.6961	2702.452	2423.5	1538.65
996.8185	2703.6839	2438.8	1554.7
996.9408	2704.9151	2418.75	1535.75
997.0631	2706.1456	2422.9	1538.9
997.1854	2707.3755	2429.15	1546.8
997.3077	2708.6046	2436.55	1551.45
997.4299	2709.8331	2442.05	1557.9
997.552	2711.0609	2432	1548.85
997.6742	2712.2881	2442.8	1559.05
997.7963	2713.5145	2452.25	1568.65
997.9183	2714.7403	2446.9	1563.4
998.0403	2715.9654	2453.4	1568.4
998.1623	2717.1899	2471.55	1573.85
998.2842	2718.4136	2475.9	1593.45
998.4062	2719.6367	2482.1	1598.35
998.528	2720.8591	2484.15	1593.1
998.6498	2722.0809	2481.25	1596.85
998.7716	2723.3019	2501.1	1614.7
998.8934	2724.5223	2491.05	1607.15
999.0151	2725.7421	2504.5	1619.75
999.1368	2726.9611	2506.4	1621.7
999.2584	2728.1795	2500.5	1614.05
999.38	2729.3972	2480.3	1597.35
999.5016	2730.6142	2479.15	1582.35
999.6231	2731.8306	2456.15	1570.95
999.7446	2733.0462	2424.7	1539.8
999.8661	2734.2612	2402.6	1514.35
999.9875	2735.4756	2388	1503.4
1000.1089	2736.6892	2368.6	1483.9
1000.2302	2737.9022	2347.05	1465.65
1000.3515	2739.1145	2330.9	1447.45
1000.4728	2740.3262	2318.6	1428.95
1000.594	2741.5372	2294.15	1410.85
1000.7152	2742.7475	2273.9	1390.15
1000.8363	2743.9571	2279.8	1392.6
1000.9575	2745.1661	2260.7	1372.3
1001.0785	2746.3744	2258.6	1374.55
1001.1996	2747.582	2229.3	1347.35
1001.3206	2748.7889	2229.8	1343.65
1001.4415	2749.9952	2227.6	1344.15
1001.5625	2751.2008	2205	1321.75
1001.6833	2752.4057	2199.3	1313.95
1001.8042	2753.61	2202.8	1318.25
1001.925	2754.8136	2200.6	1314.65
1002.0458	2756.0165	2181.4	1299.1
1002.1665	2757.2188	2189.25	1307.95
1002.2872	2758.4204	2175.45	1293.55
1002.4078	2759.6213	2180.1	1297.3
1002.5285	2760.8215	2178.95	1290.8
1002.649	2762.0211	2162.55	1277.1
1002.7696	2763.22	2153.35	1268.2
1002.8901	2764.4182	2163.5	1279.6
1003.0106	2765.6158	2155.3	1270.6
1003.131	2766.8127	2139.2	1255.75
1003.2514	2768.009	2144	1259.75
1003.3717	2769.2045	2135.65	1251.15
1003.492	2770.3994	2127.75	1242.7
1003.6123	2771.5936	2123.65	1239.1
1003.7325	2772.7872	2116.3	1234.45
1003.8527	2773.9801	2101.65	1215.8
1003.9729	2775.1723	2124.4	1225.05
1004.093	2776.3639	2108.9	1226.45
1004.2131	2777.5548	2099.25	1214
1004.3331	2778.745	2102.3	1218.15
1004.4531	2779.9346	2100.35	1217.65
1004.5731	2781.1235	2102.1	1219.2
1004.693	2782.3117	2098.05	1216.55
1004.8129	2783.4992	2108.3	1224.95
1004.9328	2784.6861	2103.2	1221.95
1005.0526	2785.8723	2114.8	1232.5
1005.1723	2787.0579	2107.1	1222.8
1005.2921	2788.2428	2109.5	1225.2
1005.4118	2789.427	2118.45	1238.1
1005.5314	2790.6106	2134.15	1251.3
1005.651	2791.7935	2126	1243.55
1005.7706	2792.9757	2138.3	1256.65
1005.8902	2794.1573	2146.4	1260.9
1006.0097	2795.3382	2160.8	1279
1006.1291	2796.5184	2157.8	1277.1
1006.2485	2797.698	2184.9	1298.75
1006.3679	2798.8769	2197.25	1315.85
1006.4873	2800.0551	2219.95	1335.9
1006.6066	2801.2327	2224.5	1340.3
1006.7258	2802.4096	2243.75	1362.4
1006.8451	2803.5859	2264.7	1381.6
1006.9642	2804.7615	2276.85	1393.25
1007.0834	2805.9364	2314.85	1432.25
1007.2025	2807.1106	2332.1	1451.55
1007.3216	2808.2842	2355.5	1472.55
1007.4406	2809.4572	2385.45	1504
1007.5596	2810.6294	2420.25	1537.1
1007.6785	2811.801	2462.35	1581.2
1007.7975	2812.972	2504.4	1623.85
1007.9163	2814.1423	2557.15	1674.8
1008.0352	2815.3119	2589.35	1706.05
1008.154	2816.4808	2630.85	1751.9
1008.2727	2817.6491	2683.15	1798.85
1008.3914	2818.8167	2729	1849.3
1008.5101	2819.9837	2781.4	1896.45
1008.6288	2821.15	2808.7	1928.7
1008.7474	2822.3157	2852.85	1970.5
1008.8659	2823.4807	2902.85	2018
1008.9844	2824.645	2938.75	2054.55
1009.1029	2825.8086	2988.95	2107.8
1009.2214	2826.9716	3026.6	2145.6
1009.3398	2828.134	3055.65	2174.95
1009.4581	2829.2957	3099.35	2214.85
1009.5764	2830.4567	3119.05	2237.35
1009.6947	2831.617	3143	2261.85
1009.813	2832.7767	3156.15	2274.15
1009.9312	2833.9358	3146.35	2264
1010.0493	2835.0941	3133.45	2249.25
1010.1675	2836.2519	3129.1	2247.5
1010.2855	2837.4089	3116.25	2237.4
1010.4036	2838.5653	3110.85	2229.1
1010.5216	2839.7211	3097.8	2214.3
1010.6396	2840.8761	3114.65	2230.45
1010.7575	2842.0306	3143.95	2263.5
1010.8754	2843.1843	3173.1	2292
1010.9932	2844.3374	3229.95	2349.4
1011.111	2845.4899	3275.05	2392.85
1011.2288	2846.6417	3367.45	2486.6
1011.3465	2847.7928	3447.15	2567.35
1011.4642	2848.9433	3510.4	2629.3
1011.5818	2850.0931	3579.4	2699.4
1011.6995	2851.2422	3663.3	2778.7
1011.817	2852.3907	3748.1	2864.75
1011.9345	2853.5385	3803.85	2920.5
1012.052	2854.6857	3856.05	2965.1
1012.1695	2855.8323	3913.8	3034
1012.2869	2856.9781	3966.4	3085.3
1012.4042	2858.1233	4024.05	3143.6
1012.5216	2859.2679	4044	3163.35
1012.6389	2860.4118	4093.75	3212.05
1012.7561	2861.555	4125.6	3239.4
1012.8733	2862.6976	4170	3289.6
1012.9905	2863.8395	4173.4	3294.25
1013.1076	2864.9808	4208.9	3326.15
1013.2247	2866.1214	4231.1	3349.6
1013.3417	2867.2614	4233.8	3351.85
1013.4587	2868.4007	4246.75	3364.35
1013.5757	2869.5393	4261.35	3378.05
1013.6926	2870.6773	4275.8	3391.95
1013.8095	2871.8146	4288.05	3404.85
1013.9263	2872.9513	4276.7	3391.75
1014.0431	2874.0874	4264.8	3383.2
1014.1599	2875.2227	4271.4	3388.65
1014.2766	2876.3574	4246.2	3365.65
1014.3933	2877.4915	4216.55	3335.8
1014.51	2878.6249	4190.45	3310.35
1014.6266	2879.7577	4172.75	3292.05
1014.7431	2880.8898	4154.15	3262.05
1014.8596	2882.0212	4111	3230.65
1014.9761	2883.152	4119.15	3237.65
1015.0925	2884.2821	4089.4	3207.8
1015.2089	2885.4116	4093.2	3211.8
1015.3253	2886.5405	4080.2	3198.3
1015.4416	2887.6686	4095.05	3210.35
1015.5579	2888.7962	4085.25	3206.75
1015.6741	2889.923	4081.9	3202.8
1015.7903	2891.0493	4098.6	3219.2
1015.9065	2892.1748	4104.15	3224.05
1016.0226	2893.2997	4116.9	3234.5
1016.1387	2894.424	4130.8	3250.25
1016.2547	2895.5476	4147.5	3268
1016.3707	2896.6706	4169.85	3289.45
1016.4866	2897.7929	4198	3317.6
1016.6025	2898.9145	4232.1	3350.1
1016.7184	2900.0355	4269.6	3388.65
1016.8342	2901.1559	4286.3	3404.05
1016.95	2902.2756	4317.3	3437.05
1017.0658	2903.3946	4345.05	3464.55
1017.1815	2904.513	4377.15	3493.35
1017.2971	2905.6308	4395.4	3514.35
1017.4127	2906.7479	4410.65	3528.65
1017.5283	2907.8643	4444.2	3563.35
1017.6439	2908.9801	4452.75	3573.45
1017.7594	2910.0953	4456.4	3575.3
1017.8748	2911.2098	4472.45	3588.7
1017.9902	2912.3236	4439.6	3550.75
1018.1056	2913.4368	4440.55	3555.65
1018.2209	2914.5494	4407.75	3526.2
1018.3362	2915.6613	4377.25	3490.05
1018.4515	2916.7725	4346.35	3463.55
1018.5667	2917.8831	4324.5	3444
1018.6819	2918.9931	4306.45	3419.65
1018.797	2920.1024	4259.65	3376.55
1018.9121	2921.211	4249.6	3370.25
1019.0271	2922.319	4201.65	3320.75
1019.1421	2923.4264	4193.75	3312.8
1019.2571	2924.5331	4181.6	3301.95
1019.372	2925.6391	4175.1	3292.95
1019.4869	2926.7445	4171.85	3292.2
1019.6017	2927.8493	4152	3271.1
1019.7165	2928.9534	4140.1	3258.1
1019.8313	2930.0569	4130.4	3245.2
1019.946	2931.1597	4110.8	3227.4
1020.0606	2932.2619	4097.55	3216.6
1020.1753	2933.3634	4092.45	3212.85
1020.2899	2934.4643	4077.35	3188.05
1020.4044	2935.5645	4067.8	3179.05
1020.5189	2936.6641	4025.6	3139.8
1020.6334	2937.763	3982.45	3103.05
1020.7478	2938.8613	3926.8	3045.6
1020.8622	2939.959	3875.65	2989.6
1020.9765	2941.056	3785.9	2907.5
1021.0908	2942.1523	3708.2	2827.5
1021.2051	2943.248	3593.35	2711.85
1021.3193	2944.3431	3519.15	2637.1
1021.4334	2945.4375	3413.35	2531.2
1021.5476	2946.5313	3299.6	2419.6
1021.6617	2947.6244	3192.55	2310.85
1021.7757	2948.7169	3090.4	2207.3
1021.8897	2949.8087	2986.75	2104.6
1022.0037	2950.8999	2900.7	2021.25
1022.1176	2951.9904	2810.7	1930.2
1022.2315	2953.0803	2739.65	1859.35
1022.3453	2954.1696	2669.55	1788.7
1022.4591	2955.2582	2615.25	1734.95
1022.5728	2956.3462	2567.45	1686.3
1022.6865	2957.4335	2519.95	1638.9
1022.8002	2958.5202	2494.85	1612.15
1022.9138	2959.6062	2462.55	1581.9
1023.0274	2960.6916	2448.3	1567.7
1023.141	2961.7764	2423.2	1540.15
1023.2545	2962.8605	2391.8	1510.45
1023.3679	2963.9439	2393.2	1513.8
1023.4813	2965.0267	2378.5	1495.85
1023.5947	2966.1089	2394.35	1490.6
1023.708	2967.1905	2356.65	1477.05
1023.8213	2968.2714	2347.15	1467.75
1023.9346	2969.3516	2352.1	1472.65
1024.0478	2970.4312	2346.3	1457.9
1024.1609	2971.5102	2350.55	1471.65
1024.274	2972.5885	2335.55	1457.35
1024.3871	2973.6662	2354.55	1467.7
1024.5002	2974.7432	2348.9	1469.65
1024.6132	2975.8196	2332.8	1454.5
1024.7261	2976.8954	2312.15	1432.55
1024.839	2977.9705	2318	1436.9
1024.9519	2979.045	2295.35	1414.85
1025.0647	2980.1188	2269.05	1387.9
1025.1775	2981.192	2245.6	1368
1025.2902	2982.2645	2231.55	1351.4
1025.4029	2983.3364	2192.7	1312.5
1025.5156	2984.4077	2171.85	1292.55
1025.6282	2985.4783	2149.25	1265.15
1025.7407	2986.5483	2112.9	1233.4
1025.8532	2987.6177	2081.25	1200.2
1025.9657	2988.6864	2044.25	1164.95
1026.0782	2989.7545	2008.8	1128.35
1026.1906	2990.8219	1968.95	1090.05
1026.3029	2991.8887	1942.35	1060.55
1026.4152	2992.9548	1893.85	1010.65
1026.5275	2994.0204	1868.45	988.95
1026.6397	2995.0852	1844.15	964.75
1026.7519	2996.1495	1826	945.2
1026.864	2997.2131	1786.8	905.4
1026.9761	2998.276	1768.25	888.3
1027.0882	2999.3383	1751.2	871.55
1027.2002	3000.4	1737.35	854.75
1027.3122	3001.4611	1709.8	829.7
1027.4241	3002.5215	1692.2	812.7
1027.536	3003.5812	1682.2	803.1
1027.6478	3004.6404	1676.4	797.6
1027.7596	3005.6989	1658.1	776.95
1027.8714	3006.7567	1645.9	765.45
1027.9831	3007.8139	1656.75	759.1
1028.0947	3008.8705	1628.8	751.95
1028.2064	3009.9264	1640.1	745.2
1028.3179	3010.9818	1622.9	743.1
1028.4295	3012.0364	1613.7	732.3
1028.541	3013.0905	1616.8	736.25
1028.6524	3014.1439	1614.65	734.35
1028.7638	3015.1966	1608.25	729.3
1028.8752	3016.2487	1610.9	732.5
1028.9865	3017.3002	1612.35	727.85
1029.0978	3018.3511	1601.8	722.75
1029.209	3019.4013	1606.8	727.85
1029.3202	3020.4509	1593.45	714.1
1029.4314	3021.4998	1601.1	721.55
1029.5425	3022.5481	1602.5	722.45
1029.6535	3023.5958	1603.15	723.35
1029.7645	3024.6428	1605.8	724.3
1029.8755	3025.6892	1603.95	724.65
1029.9864	3026.735	1606.55	728.05
1030.0973	3027.7802	1609.55	729.65
1030.2082	3028.8247	1597.75	717.45
1030.319	3029.8685	1612.2	731.3
1030.4297	3030.9118	1612.45	731.45
1030.5404	3031.9544	1614.3	736.15
1030.6511	3032.9963	1620.05	739.35
1030.7617	3034.0376	1620.05	741.5
1030.8723	3035.0783	1625.55	744.9
1030.9829	3036.1184	1626.5	744.35
1031.0934	3037.1578	1631.45	752.75
1031.2038	3038.1966	1631.7	750.05
1031.3142	3039.2348	1624	744.95
1031.4246	3040.2723	1636.7	746.75
1031.5349	3041.3092	1629.1	750.75
1031.6452	3042.3455	1623.15	741.3
1031.7554	3043.3811	1613.25	731.9
1031.8656	3044.4161	1610.65	730.6
1031.9758	3045.4505	1614.35	734.95
1032.0859	3046.4842	1601.55	720.5
1032.1959	3047.5173	1595.55	716.45
1032.3059	3048.5498	1576.45	696.9
1032.4159	3049.5816	1578.45	698.1
1032.5258	3050.6128	1570.75	688.85
1032.6357	3051.6434	1564.25	682.8
1032.7455	3052.6734	1557.3	676
1032.8553	3053.7027	1545.25	666.15
1032.9651	3054.7314	1538.2	659.55
1033.0748	3055.7594	1535.4	659
1033.1845	3056.7868	1524.65	644.65
1033.2941	3057.8136	1522	643.1
1033.4037	3058.8398	1508	629.2
1033.5132	3059.8653	1504.05	625.15
1033.6227	3060.8902	1506.05	627.9
1033.7321	3061.9145	1494.9	613.8
1033.8415	3062.9381	1491.65	614.25
1033.9509	3063.9612	1503.9	608.3
1034.0602	3064.9835	1482.2	603.05
1034.1694	3066.0053	1474.6	591.55
1034.2787	3067.0264	1465.75	586
1034.3878	3068.0469	1453.1	571.2
1034.497	3069.0668	1450.25	566.95
1034.6061	3070.086	1432.4	552.6
1034.7151	3071.1046	1426.4	542.95
1034.8241	3072.1226	1418.85	537.7
1034.9331	3073.1399	1405.05	527.4
1035.042	3074.1567	1395.8	514.8
1035.1508	3075.1727	1386.75	504.95
1035.2597	3076.1882	1375.85	499.55
1035.3684	3077.203	1369.05	490.85
1035.4772	3078.2173	1355.3	474.9
1035.5859	3079.2308	1349.55	466.6
1035.6945	3080.2438	1342.7	460.8
1035.8031	3081.2561	1329	450.75
1035.9117	3082.2678	1321.3	440.15
1036.0202	3083.2789	1312.2	432.4
1036.1286	3084.2893	1309.15	429.1
1036.2371	3085.2991	1301.15	423.1
1036.3454	3086.3083	1296.6	412.55
1036.4538	3087.3169	1290.05	411.75
1036.562	3088.3248	1290.55	408.45
1036.6703	3089.3321	1274.6	393.25
1036.7785	3090.3388	1268.7	388.95
1036.8866	3091.3449	1278.35	398.15
1036.9948	3092.3503	1264.95	380.85
1037.1028	3093.3551	1256.8	379.45
1037.2108	3094.3593	1252.35	374.35
1037.3188	3095.3629	1251.7	373.9
1037.4267	3096.3658	1245.35	364.5
1037.5346	3097.3681	1242.2	364.2
1037.6425	3098.3698	1245.45	365.5
1037.7503	3099.3708	1243.05	357.85
1037.858	3100.3713	1230.5	349.35
1037.9657	3101.3711	1229.05	348.85
1038.0734	3102.3702	1365.2	350.3
1038.181	3103.3688	1222.2	342
1038.2886	3104.3667	1217.55	340
1038.3961	3105.364	1218.85	338.05
1038.5036	3106.3607	1217.9	337.85
1038.611	3107.3568	1211.75	330.3
1038.7184	3108.3522	1208.15	330.3
1038.8257	3109.347	1204.65	324.5
1038.933	3110.3412	1210.3	327.6
1039.0403	3111.3348	1201.15	321.1
1039.1475	3112.3277	1200.1	319
1039.2547	3113.32	1200.3	320.85
1039.3618	3114.3117	1191.15	310.1
1039.4689	3115.3028	1200.2	319.5
1039.5759	3116.2932	1191.9	310.5
1039.6829	3117.2831	1196.2	310.85
1039.7898	3118.2723	1191.55	313.7
1039.8967	3119.2608	1177.15	297.5
1040.0035	3120.2488	1182.95	301.9
1040.1103	3121.2361	1179.6	302.25
1040.2171	3122.2229	1177	297.7
1040.3238	3123.209	1175.75	297.1
1040.4305	3124.1944	1171.8	293
1040.5371	3125.1793	1170.15	290.8
1040.6437	3126.1635	1171.55	292.9
1040.7502	3127.1471	1169.95	291.65
1040.8567	3128.1301	1168.3	289.3
1040.9631	3129.1125	1166.15	287.15
1041.0695	3130.0942	1164.45	285.65
1041.1759	3131.0753	1170.75	282.55
1041.2822	3132.0558	1166.55	286.2
1041.3884	3133.0357	1166	285.95
1041.4946	3134.015	1159.4	279
1041.6008	3134.9936	1158.7	278.3
1041.7069	3135.9716	1172.7	273.15
1041.813	3136.949	1149.65	269.8
1041.919	3137.9258	1169.95	271.45
1042.025	3138.902	1154.3	270.6
1042.1309	3139.8775	1142.3	264.9
1042.2368	3140.8524	1143.95	263.2
1042.3427	3141.8267	1139.8	259.6
1042.4485	3142.8004	1141.4	262.55
1042.5542	3143.7735	1140.75	252.65
1042.6599	3144.7459	1142.15	262.15
1042.7656	3145.7178	1139.4	257.85
1042.8712	3146.689	1130.2	254.05
1042.9768	3147.6596	1133.85	252.9
1043.0823	3148.6295	1129.55	249
1043.1878	3149.5989	1127.1	246.6
1043.2932	3150.5676	1126.7	249.2
1043.3986	3151.5357	1126.15	248.6
1043.5039	3152.5032	1127	249.1
1043.6092	3153.4701	1121.15	242.3
1043.7145	3154.4364	1120.8	238.1
1043.8197	3155.402	1120.8	243.75
1043.9248	3156.367	1115.85	236.5
1044.03	3157.3315	1144.55	238.65
1044.135	3158.2952	1113.75	233.9
1044.24	3159.2584	1111.1	231.8
1044.345	3160.221	1112.15	230.15
1044.4499	3161.1829	1110.9	231.6
1044.5548	3162.1442	1112.85	233.45
1044.6596	3163.105	1105.95	227.05
1044.7644	3164.065	1107.45	226.3
1044.8692	3165.0245	1104.4	223.45
1044.9739	3165.9834	1102.15	226.05
1045.0785	3166.9416	1103.45	225.3
1045.1831	3167.8993	1101.3	221.65
1045.2877	3168.8563	1098.4	220.7
1045.3922	3169.8127	1098.15	219.5
1045.4966	3170.7684	1096.1	217.2
1045.6011	3171.7236	1097.8	217.4
1045.7054	3172.6782	1096.5	217.95
1045.8098	3173.6321	1092.5	212.55
1045.914	3174.5854	1091.8	209.95
1046.0183	3175.5381	1091.9	213.95
1046.1224	3176.4902	1088.2	209
1046.2266	3177.4417	1088	210.65
1046.3307	3178.3926	1088.55	209.15
1046.4347	3179.3428	1082.65	204.4
1046.5387	3180.2924	1078.75	198.9
1046.6427	3181.2415	1082.35	204.35
1046.7466	3182.1899	1085.4	205.5
1046.8504	3183.1377	1079.95	200.9
1046.9542	3184.0848	1083.05	197.55
1047.058	3185.0314	1077.6	199.4
1047.1617	3185.9773	1078.85	200.05
1047.2654	3186.9227	1076.95	197.3
1047.369	3187.8674	1072.35	192.15
1047.4726	3188.8115	1079.8	197.8
1047.5761	3189.755	1073.6	194.8
1047.6796	3190.6979	1070.8	191.65
1047.783	3191.6402	1074.1	193.9
1047.8864	3192.5818	1070.05	192.95
1047.9898	3193.5229	1081.75	189.85
1048.0931	3194.4633	1071.25	191.9
1048.1963	3195.4031	1068.15	188.7
1048.2995	3196.3423	1065.85	188.6
1048.4027	3197.2809	1066.6	188.3
1048.5058	3198.2189	1060.95	182.35
1048.6089	3199.1563	1069.45	183.9
1048.7119	3200.0931	1062.15	183.75
1048.8148	3201.0292	1060.85	182.15
1048.9178	3201.9648	1057.9	177.5
1049.0206	3202.8997	1059.6	179.35
1049.1235	3203.834	1058.5	180.45
1049.2262	3204.7677	1055.85	178.05
1049.329	3205.7008	1055.85	176.2
1049.4317	3206.6333	1049.7	173
1049.5343	3207.5652	1055.75	172.3
1049.6369	3208.4964	1052.75	173.35
1049.7394	3209.4271	1054.2	174.6
1049.8419	3210.3571	1053.1	175.05
1049.9444	3211.2865	1049.4	169.95
1050.0468	3212.2154	1049.1	171.85
1050.1491	3213.1436	1052.75	170.05
1050.2514	3214.0712	1055.95	171
1050.3537	3214.9982	1049.05	169.3
1050.4559	3215.9246	1045.3	166.2
1050.5581	3216.8503	1043.3	164.15
1050.6602	3217.7755	1045.2	166.8
1050.7623	3218.7001	1043.2	165.8
1050.8643	3219.624	1046.45	166.55
1050.9663	3220.5473	1041.35	161.95
1051.0682	3221.4701	1043.7	165.25
1051.1701	3222.3922	1047.45	167.65
1051.2719	3223.3137	1044.2	164.75
1051.3737	3224.2346	1040.15	162.35
1051.4754	3225.1549	1037.4	160.35
1051.5771	3226.0746	1037.65	159.2
1051.6788	3226.9937	1038.65	157.75
1051.7804	3227.9121	1035.15	157.05
1051.8819	3228.83	1033.95	155.35
1051.9834	3229.7473	1036.7	159.1
1052.0849	3230.6639	1032.9	154.95
1052.1863	3231.5799	1036.1	158.3
1052.2876	3232.4954	1029.8	149.85
1052.3889	3233.4102	1027.15	150.55
1052.4902	3234.3244	1033.4	152.65
1052.5914	3235.238	1030.3	151.25
1052.6926	3236.151	1052.85	146.95
1052.7937	3237.0634	1024.05	147.15
1052.8948	3237.9752	1025.85	146.7
1052.9958	3238.8864	1026.1	147.15
1053.0968	3239.797	1021.95	143
1053.1977	3240.7069	1022.95	143.1
1053.2986	3241.6163	1025.85	145.4
1053.3994	3242.5251	1023.4	145.05
1053.5002	3243.4332	1020.25	142.55
1053.6009	3244.3408	1016.8	137.75
1053.7016	3245.2477	1018	139.35
1053.8022	3246.154	1021.4	141.9
1053.9028	3247.0598	1018.75	137.6
1054.0034	3247.9649	1018.45	140.25
1054.1039	3248.8694	1016.9	137.9
1054.2043	3249.7733	1011.55	134.5
1054.3047	3250.6766	1010.75	131.45
1054.4051	3251.5793	1009.9	130.05
1054.5054	3252.4814	1013.5	137
1054.6056	3253.3829	1012.8	134.8
1054.7058	3254.2838	1007.25	129.15
1054.806	3255.1841	1011.8	132.9
1054.9061	3256.0838	1007.55	128.6
1055.0061	3256.9829	1002.1	126.4
1055.1062	3257.8814	1005.05	123.6
1055.2061	3258.7792	1007.75	127.3
1055.306	3259.6765	1005.35	125.6
1055.4059	3260.5731	999.65	121.7
1055.5057	3261.4692	999.55	121.5
1055.6055	3262.3647	999.25	121.3
1055.7052	3263.2595	1000.1	120.7
1055.8049	3264.1538	994.05	117.2
1055.9045	3265.0474	992.8	114
1056.0041	3265.9404	990.65	113.55
1056.1036	3266.8329	990	112.7
1056.2031	3267.7247	997.25	107.95
1056.3025	3268.616	983.65	109.8
1056.4019	3269.5066	979.7	100.4
1056.5013	3270.3966	979.8	99.65
1056.6005	3271.286	973.2	96.5
