Software Version:	3.9.2.0
Unit SN:	10000200
Spectrometer SN:	6960
Date:	3/26/2024 2:50:40 PM
Data Line Index:	25
Spectral Points:	2048
Integration time (ms):	125
Averages:	20
Delay (ms):	30000
Sequence Number:	1
Processing:	dark subtract
Laser Power (mW):	300
Laser Current (mA):	821
Laser Diode Temp (C):	25
Laser Case Temp (C):	28
System Temp (C):	28
Spectrometer Temp (C):	25.9
CCD Temp (C):	0.004
Secondary Temp (C):	20.013
Heatsink Temp (C):	23.548
CCDPCB Temp (C):	37.296
SecondaryPCB Temp (C):	34.784

Wavelength	RamanShift	Raw Counts	Dark Subtracted
787.061	30.1047	622.3	214
787.2016	32.3739	634.6	227.4
787.3422	34.6426	650.5	240.95
787.4828	36.9109	664.75	252.6
787.6235	39.1787	686.8	271.3
787.7642	41.4461	707.05	286.15
787.9049	43.7131	730.05	307.55
788.0456	45.9796	757.95	331.05
788.1863	48.2456	778.05	348.3
788.3271	50.5112	802.2	366.1
788.4679	52.7764	823.95	386.25
788.6087	55.0411	849.5	408.8
788.7496	57.3054	888.2	441.45
788.8904	59.5692	916	466.85
789.0313	61.8326	949.2	495.45
789.1722	64.0955	985.5	528.8
789.3132	66.3579	1035.75	574.9
789.4541	68.6199	1089.2	625.7
789.5951	70.8815	1173.65	706.05
789.7361	73.1426	1375.95	904.1
789.8771	75.4032	1857.35	1379.7
790.0181	77.6634	3040.6	2557.75
790.1592	79.9231	6062.4	5570.25
790.3003	82.1824	12944.35	12435.2
790.4414	84.4412	27827.2	27282.8
790.5825	86.6995	54433.2	53844.65
790.7237	88.9574	65199.35	64565.95
790.8648	91.2148	65535	64872.95
791.006	93.4717	65535	64856.65
791.1472	95.7282	65535	64845.85
791.2885	97.9842	65535	64842.3
791.4297	100.2398	65535	64836.35
791.571	102.4949	65535	64832.75
791.7123	104.7495	65535	64833.55
791.8536	107.0036	65535	64831.05
791.9949	109.2573	65535	64835.65
792.1363	111.5105	65535	64826.65
792.2777	113.7632	65535	64828.5
792.4191	116.0154	65535	64816.8
792.5605	118.2672	65535	64822.55
792.7019	120.5185	65535	64817.55
792.8434	122.7693	65535	64820.55
792.9849	125.0197	65535	64817.15
793.1264	127.2696	65535	64816.1
793.2679	129.519	65535	64813.35
793.4094	131.7679	65535	64807.55
793.551	134.0163	65535	64806.5
793.6926	136.2642	65535	64803.05
793.8342	138.5117	65535	64796.7
793.9758	140.7587	65535	64793.05
794.1175	143.0052	65535	64792.5
794.2591	145.2512	65535	64790.6
794.4008	147.4967	65535	64789.15
794.5425	149.7417	65535	64790.2
794.6842	151.9863	65535	64786.2
794.826	154.2304	65535	64786.75
794.9677	156.4739	65535	64780.45
795.1095	158.717	65535	64778.6
795.2513	160.9596	65535	64772.25
795.3931	163.2017	65535	64774.9
795.535	165.4433	65535	64769.5
795.6768	167.6844	65535	64767.3
795.8187	169.925	65535	64764.3
795.9606	172.1651	65535	64764.75
796.1025	174.4047	65535	64761.3
796.2445	176.6439	65535	64759.95
796.3864	178.8825	65535	64759.45
796.5284	181.1206	65535	64750.5
796.6704	183.3582	65535	64749.25
796.8124	185.5954	65535	64746.8
796.9544	187.832	65535	64744.5
797.0965	190.0681	65535	64741.85
797.2386	192.3037	65535	64734.9
797.3806	194.5388	65535	64735.7
797.5228	196.7734	65535	64733.6
797.6649	199.0075	65535	64724.55
797.807	201.2411	65535	64726.15
797.9492	203.4742	65535	64730.55
798.0914	205.7068	65535	64723.35
798.2336	207.9389	65535	64725.45
798.3758	210.1704	65535	64718.3
798.518	212.4015	65535	64719.1
798.6603	214.632	65535	64719
798.8025	216.862	65535	64729.2
798.9448	219.0915	65535	64735.65
799.0871	221.3205	65535	64738
799.2294	223.549	65535	64743
799.3718	225.777	65535	64739.9
799.5141	228.0044	65535	64737.05
799.6565	230.2314	65535	64739.6
799.7989	232.4578	65535	64738.8
799.9413	234.6837	65535	64732.35
800.0837	236.909	65535	64724.95
800.2262	239.1339	65535	64704.7
800.3687	241.3582	65535	64717.15
800.5111	243.582	65535	64691.9
800.6536	245.8053	65535	64707.3
800.7961	248.0281	65535	64707.25
800.9387	250.2503	65535	64705.65
801.0812	252.472	65535	64702.3
801.2238	254.6932	65535	64698.3
801.3664	256.9139	65535	64696.9
801.509	259.134	65535	64692.25
801.6516	261.3536	65535	64694.55
801.7942	263.5727	65535	64689.7
801.9369	265.7912	65535	64686.8
802.0795	268.0092	65535	64697.8
802.2222	270.2267	65535	64691.55
802.3649	272.4436	65535	64691
802.5076	274.6601	65535	64686.05
802.6504	276.8759	65535	64689.6
802.7931	279.0913	65535	64682.5
802.9359	281.3061	65535	64686.4
803.0787	283.5204	65535	64675.7
803.2215	285.7341	65535	64678.35
803.3643	287.9473	65535	64666.45
803.5071	290.16	65535	64675.05
803.6499	292.3721	65535	64678
803.7928	294.5837	65535	64677
803.9357	296.7947	65535	64678.6
804.0786	299.0052	65535	64672.85
804.2215	301.2152	65535	64674.65
804.3644	303.4246	65535	64681.5
804.5074	305.6334	65535	64679.6
804.6503	307.8418	65535	64680.15
804.7933	310.0495	65535	64669.5
804.9363	312.2568	65535	64675.55
805.0793	314.4635	65535	64670.2
805.2223	316.6696	65535	64671.5
805.3653	318.8752	65535	64663.85
805.5084	321.0802	65535	64663.75
805.6514	323.2847	65535	64670.5
805.7945	325.4887	65535	64669.2
805.9376	327.692	65535	64666.95
806.0807	329.8949	65535	64664.25
806.2238	332.0972	65535	64665.05
806.367	334.2989	65535	64660.45
806.5101	336.5001	65535	64663.15
806.6533	338.7007	65535	64661.5
806.7965	340.9008	65535	64665.45
806.9397	343.1003	65535	64660.5
807.0829	345.2992	65535	64657.85
807.2261	347.4976	65535	64654.9
807.3693	349.6955	65535	64652.4
807.5126	351.8927	65535	64652.1
807.6559	354.0895	65535	64639.7
807.7991	356.2856	65535	64650.65
807.9424	358.4812	65535	64652.55
808.0857	360.6763	65535	64648.65
808.2291	362.8707	65535	64647.65
808.3724	365.0646	65535	64646.7
808.5158	367.258	65535	64649.05
808.6591	369.4508	65535	64638.25
808.8025	371.643	65535	64643.45
808.9459	373.8346	65535	64635.1
809.0893	376.0257	65535	64636.35
809.2327	378.2162	65535	64638.55
809.3762	380.4062	65535	64637.25
809.5196	382.5956	65535	64636.8
809.6631	384.7844	65535	64636.8
809.8066	386.9726	65535	64639.85
809.9501	389.1603	65535	64635.4
810.0936	391.3474	65535	64595.45
810.2371	393.5339	65535	64635.85
810.3806	395.7199	65535	64643.15
810.5241	397.9052	65535	64647.5
810.6677	400.09	65535	64646.8
810.8113	402.2743	65535	64651.4
810.9548	404.4579	65535	64650.15
811.0984	406.641	65535	64648.85
811.2421	408.8235	65535	64649.15
811.3857	411.0054	65535	64644.65
811.5293	413.1868	65535	64640.8
811.673	415.3675	65535	64637.8
811.8166	417.5477	65535	64635.45
811.9603	419.7273	65535	64636.15
812.104	421.9064	65535	64634.35
812.2477	424.0848	65535	64636
812.3914	426.2627	65535	64634.25
812.5351	428.4399	65535	64628.7
812.6788	430.6166	65535	64630.45
812.8226	432.7928	65535	64629.1
812.9663	434.9683	65535	64633.05
813.1101	437.1432	65535	64636.7
813.2539	439.3176	65535	64638.4
813.3977	441.4914	65535	64638.8
813.5415	443.6645	65535	64631.95
813.6853	445.8371	65535	64631.3
813.8291	448.0091	65535	64630.45
813.973	450.1806	65535	64634.75
814.1168	452.3514	65535	64633.95
814.2607	454.5216	65535	64625.35
814.4046	456.6913	65535	64630.35
814.5485	458.8603	65535	64637
814.6924	461.0288	65535	64635.9
814.8363	463.1967	65535	64640.7
814.9802	465.3639	65535	64631.6
815.1241	467.5306	65535	64632.35
815.2681	469.6967	65535	64634.4
815.412	471.8622	65535	64639.5
815.556	474.0271	65535	64634.6
815.7	476.1914	65535	64624.85
815.844	478.3551	65535	64625.2
815.988	480.5182	65535	64631.5
816.132	482.6807	65535	64638.85
816.276	484.8426	65535	64640.85
816.4201	487.0039	65535	64638
816.5641	489.1647	65535	64628.55
816.7082	491.3248	65535	64628.6
816.8522	493.4843	65535	64631.65
816.9963	495.6432	65535	64633.45
817.1404	497.8015	65535	64622.8
817.2845	499.9592	65535	64621.75
817.4286	502.1163	65535	64619.2
817.5727	504.2728	65535	64626.65
817.7168	506.4287	65535	64639.2
817.861	508.5839	65535	64634.9
818.0051	510.7386	65535	64631.7
818.1493	512.8927	65535	64621.1
818.2935	515.0461	65535	64619.75
818.4377	517.199	65535	64622.15
818.5818	519.3512	65535	64620.3
818.726	521.5029	65535	64615.65
818.8703	523.6539	65535	64626.5
819.0145	525.8043	65535	64622.55
819.1587	527.9541	65535	64621.45
819.303	530.1033	65535	64621.2
819.4472	532.2519	65535	64619.35
819.5915	534.3999	65535	64623.1
819.7357	536.5472	65535	64619.2
819.88	538.694	65535	64623.85
820.0243	540.8401	65535	64621.95
820.1686	542.9856	65535	64615.95
820.3129	545.1305	65535	64606.8
820.4572	547.2748	65535	64610.95
820.6016	549.4185	65535	64603.25
820.7459	551.5615	65535	64604.85
820.8902	553.704	65535	64607.3
821.0346	555.8458	65535	64611
821.1789	557.987	65535	64612.5
821.3233	560.1276	65535	64609.5
821.4677	562.2675	65535	64608.95
821.6121	564.4069	65535	64607.7
821.7565	566.5456	65535	64615.6
821.9009	568.6837	65535	64617.65
822.0453	570.8212	65535	64622.05
822.1897	572.958	65535	64612.3
822.3342	575.0942	65535	64617.25
822.4786	577.2299	65535	64625.3
822.6231	579.3648	65535	64630.5
822.7675	581.4992	65535	64637.8
822.912	583.6329	65535	64637.1
823.0565	585.766	65535	64632.2
823.201	587.8985	65535	64627.15
823.3454	590.0304	65535	64607.55
823.4899	592.1616	65535	64612.3
823.6345	594.2922	65535	64613.1
823.779	596.4222	65535	64609.95
823.9235	598.5515	65535	64609.95
824.068	600.6802	65535	64610.5
824.2126	602.8083	65535	64612.65
824.3571	604.9358	65535	64612
824.5017	607.0626	65535	64606.25
824.6462	609.1888	65535	64603.1
824.7908	611.3144	65535	64602.75
824.9354	613.4393	65535	64601.55
825.08	615.5636	65523.35	64590.7
825.2246	617.6873	65535	64606
825.3692	619.8103	65513.75	64585.8
825.5138	621.9327	65535	64605.55
825.6584	624.0544	65535	64611.05
825.803	626.1756	65533.35	64611
825.9477	628.2961	65528.3	64600.8
826.0923	630.4159	65518.75	64588.85
826.237	632.5351	65511.4	64582.4
826.3816	634.6537	65535	64604
826.5263	636.7716	65506.15	64573.25
826.6709	638.8889	65520.95	64586.35
826.8156	641.0056	65515.95	64578.9
826.9603	643.1216	65520.4	64586.8
827.105	645.237	65526.9	64596.1
827.2497	647.3518	65501.4	64573.2
827.3944	649.4659	65510.05	64586.1
827.5391	651.5793	65518.65	64593.25
827.6838	653.6922	65528.85	64605.6
827.8285	655.8043	65439.75	64516.5
827.9733	657.9159	65531.3	64602.65
828.118	660.0268	65256.75	64328.75
828.2627	662.137	65497.25	64569.65
828.4075	664.2466	65501.75	64566.25
828.5522	666.3556	65434.15	64500.5
828.697	668.4639	65502.1	64572.5
828.8418	670.5716	65400.5	64476.75
828.9865	672.6786	65491.45	64556.6
829.1313	674.785	65396.3	64463
829.2761	676.8907	65407.3	64475.05
829.4209	678.9958	65484.5	64555.65
829.5657	681.1002	65481.5	64549.65
829.7105	683.204	65345.45	64404.75
829.8553	685.3072	65238.9	64304.2
830.0001	687.4097	65330.8	64397
830.1449	689.5115	65199.8	64261.35
830.2898	691.6127	65378.35	64442.75
830.4346	693.7132	65204.45	64274.15
830.5794	695.8131	65179.95	64226.75
830.7243	697.9123	65247.15	64308.45
830.8691	700.0109	65272.1	64330.55
831.014	702.1089	64972.05	64035.95
831.1588	704.2061	65029.15	64093.75
831.3037	706.3028	65071.3	64132.3
831.4486	708.3987	65169.6	64234.55
831.5935	710.4941	65024.05	64090.9
831.7383	712.5887	65248.25	64312.95
831.8832	714.6827	65109.25	64172.45
832.0281	716.7761	65322.15	64387.9
832.173	718.8688	65412.2	64477.65
832.3179	720.9608	65254.55	64307.9
832.4628	723.0522	65247.6	64301.2
832.6077	725.1429	65015.4	64073.8
832.7527	727.233	65385.2	64447.7
832.8976	729.3224	64380.35	63444.1
833.0425	731.4112	64744.75	63807.5
833.1874	733.4993	64720.75	63781.95
833.3324	735.5867	64760.45	63820.25
833.4773	737.6735	64454.4	63515.6
833.6222	739.7596	64221.35	63279
833.7672	741.845	64187.65	63253.3
833.9122	743.9298	64568.6	63627.1
834.0571	746.014	64138.95	63200.65
834.2021	748.0974	63883.65	62935.9
834.347	750.1802	64428.45	63482.2
834.492	752.2624	63767.15	62823.5
834.637	754.3439	63869.85	62923.4
834.782	756.4247	64035.7	63082.95
834.9269	758.5048	63755.85	62813.7
835.0719	760.5843	63898.4	62954.7
835.2169	762.6631	64064.75	63125
835.3619	764.7413	63996.05	63053.45
835.5069	766.8188	64134.4	63189.8
835.6519	768.8956	64460.2	63516.45
835.7969	770.9718	64442.65	63501.6
835.9419	773.0473	64269.1	63325.35
836.0869	775.1221	63824.65	62885.6
836.232	777.1962	63736.35	62799.7
836.377	779.2697	63219.8	62275.3
836.522	781.3426	63587.5	62637.15
836.667	783.4147	63821.3	62877.2
836.8121	785.4862	63789.65	62845.45
836.9571	787.557	63336.4	62391
837.1021	789.6271	63679.45	62733.25
837.2472	791.6966	63098.45	62153.9
837.3922	793.7654	62402.05	61459.95
837.5373	795.8335	62370.25	61431.3
837.6823	797.901	62506.45	61565.1
837.8274	799.9678	62112.15	61163.8
837.9724	802.0339	61993.85	61052.1
838.1175	804.0993	62115.25	61162.25
838.2626	806.1641	61870.5	60923.75
838.4076	808.2282	61694.2	60751.05
838.5527	810.2916	61450.4	60506
838.6978	812.3544	61761.65	60821.05
838.8428	814.4164	60858.85	59918.3
838.9879	816.4778	60993.45	60047.8
839.133	818.5385	61009.5	60060.6
839.2781	820.5986	60837.25	59891.35
839.4232	822.658	60949.05	60001.15
839.5682	824.7166	60951.65	60005.7
839.7133	826.7747	60238.75	59294.3
839.8584	828.832	60566.1	59621.55
840.0035	830.8886	61010.2	60063.1
840.1486	832.9446	61053.75	60105.45
840.2937	834.9999	59804.45	58861.35
840.4388	837.0545	60521.5	59570.55
840.5839	839.1085	60888.45	59938.9
840.729	841.1618	60632.4	59684.5
840.8741	843.2143	59717.75	58773.45
841.0192	845.2662	59672.9	58727.95
841.1643	847.3175	59966.7	59020.25
841.3095	849.368	58886.1	57939
841.4546	851.4179	59559.55	58614.4
841.5997	853.467	58748.35	57805.45
841.7448	855.5155	59003.3	58054.8
841.8899	857.5633	58313.2	57367.3
842.0351	859.6105	57933.75	56989.5
842.1802	861.6569	58166.2	57220.2
842.3253	863.7027	57447.75	56499.35
842.4704	865.7478	57615.2	56667.15
842.6156	867.7922	57484.75	56534.7
842.7607	869.8359	57926.85	56979.7
842.9058	871.8789	57091.2	56143.7
843.0509	873.9212	57688.5	56708.55
843.1961	875.9629	57700.2	56754.15
843.3412	878.0039	57688.4	56742.65
843.4863	880.0441	57439.05	56493.95
843.6315	882.0837	57359.45	56414.4
843.7766	884.1226	57232.9	56284.05
843.9218	886.1609	56967.8	56021.75
844.0669	888.1984	56595.3	55649.35
844.212	890.2352	56966.45	56019.15
844.3572	892.2714	56197.55	55243.1
844.5023	894.3069	56368.15	55421.65
844.6475	896.3416	56057.9	55111.2
844.7926	898.3757	55903.5	54955.7
844.9377	900.4091	55306.5	54358.75
845.0829	902.4418	55896.4	54944.7
845.228	904.4739	55349.65	54395.3
845.3732	906.5052	55448.85	54498.3
845.5183	908.5358	55048.9	54098.8
845.6635	910.5658	54746.5	53795.05
845.8086	912.595	54521.35	53571
845.9538	914.6236	53939.1	52990.8
846.0989	916.6515	54657.15	53708.7
846.2441	918.6786	53721.4	52772.5
846.3892	920.7051	53918.45	52964.9
846.5344	922.7309	53891.75	52946.15
846.6795	924.756	53959.1	53011.15
846.8246	926.7804	53692	52742.6
846.9698	928.8041	53146.7	52194.9
847.1149	930.8272	53400.95	52451.9
847.2601	932.8495	53285.9	52336.9
847.4052	934.8711	52786.55	51837.85
847.5504	936.892	52435.35	51486.05
847.6955	938.9123	52240.15	51288.25
847.8407	940.9318	51830.15	50880.1
847.9858	942.9506	51618.3	50668.6
848.131	944.9688	51484.95	50537.55
848.2761	946.9862	50967.75	50019.3
848.4213	949.003	50925.3	49976.55
848.5664	951.019	50613.85	49663.8
848.7115	953.0344	50622.2	49671.8
848.8567	955.0491	50541.25	49592.35
849.0018	957.063	50618.85	49668.15
849.147	959.0763	50711.25	49756.5
849.2921	961.0888	50419.3	49467.9
849.4373	963.1007	50549.45	49605.25
849.5824	965.1119	50467.75	49526.5
849.7275	967.1223	50301.55	49362.6
849.8727	969.1321	50350.15	49415.75
850.0178	971.1412	50043.8	49101.7
850.1629	973.1495	49863.8	48917.55
850.3081	975.1572	49906	48922.6
850.4532	977.1641	49886.65	48941.85
850.5983	979.1704	49619.55	48670.65
850.7435	981.1759	49422.15	48474.35
850.8886	983.1808	49451	48501.05
851.0337	985.1849	49408.2	48450.95
851.1788	987.1884	49422.5	48474.95
851.324	989.1911	49623.45	48673.65
851.4691	991.1932	49484.65	48538.2
851.6142	993.1945	49385.85	48438.1
851.7593	995.1951	49187.5	48235.9
851.9045	997.1951	48964.2	48009.55
852.0496	999.1943	48701.15	47753.5
852.1947	1001.1928	48480.85	47533.85
852.3398	1003.1906	48340.45	47393.45
852.4849	1005.1877	48169.05	47222.05
852.63	1007.1841	47869.5	46924.4
852.7751	1009.1798	47631.95	46682.95
852.9202	1011.1748	47225.9	46279.6
853.0653	1013.1691	46899.1	45948.55
853.2104	1015.1627	46482.9	45534.95
853.3555	1017.1556	45976.85	45031.8
853.5006	1019.1477	45856.5	44912.45
853.6457	1021.1392	45518.8	44579.95
853.7908	1023.1299	45312.45	44375.1
853.9359	1025.12	45171.3	44234.6
854.081	1027.1093	45030.2	44108.7
854.2261	1029.0979	44932.05	44011.55
854.3712	1031.0859	44801.95	43877
854.5163	1033.0731	44609	43672.85
854.6613	1035.0596	44384.1	43447.2
854.8064	1037.0454	44035.65	43094.45
854.9515	1039.0304	43814.6	42872.6
855.0965	1041.0148	43500.25	42556.45
855.2416	1042.9985	43322.1	42375.35
855.3867	1044.9814	43254.25	42311.4
855.5317	1046.9636	43011.4	42066.05
855.6768	1048.9452	42805.6	41867.25
855.8219	1050.926	42707.4	41764.05
855.9669	1052.9061	42553.95	41609.55
856.112	1054.8855	42346.7	41405.1
856.257	1056.8642	42286.75	41340.55
856.4021	1058.8421	42320.6	41373.55
856.5471	1060.8194	42161.25	41217.9
856.6921	1062.7959	42067.8	41123.8
856.8372	1064.7717	41954.05	41008.55
856.9822	1066.7469	41834.7	40888.45
857.1272	1068.7213	41659.25	40717.25
857.2723	1070.695	41562.7	40620.8
857.4173	1072.6679	41250.15	40305.95
857.5623	1074.6402	41118.55	40176.15
857.7073	1076.6117	41029.75	40082.75
857.8523	1078.5826	41005.5	40059.45
857.9973	1080.5527	40892.65	39945.15
858.1423	1082.5221	40923.05	39981.15
858.2873	1084.4908	41064.1	40123.95
858.4323	1086.4587	41209.45	40266.35
858.5773	1088.426	41323.85	40378.7
858.7223	1090.3925	41045.6	40095.65
858.8673	1092.3584	40929.8	39985.55
859.0123	1094.3235	40474.65	39531.2
859.1573	1096.2879	40326.45	39384.2
859.3022	1098.2515	40150.15	39206.5
859.4472	1100.2145	40099.7	39156.2
859.5922	1102.1767	40006.7	39063
859.7371	1104.1382	40016.5	39074.35
859.8821	1106.099	40141.2	39199.75
860.027	1108.0591	40227.7	39285.1
860.172	1110.0185	40292.45	39349.7
860.3169	1111.9771	40199.35	39255.25
860.4619	1113.9351	39781.15	38837.1
860.6068	1115.8923	39274.5	38333.25
860.7517	1117.8488	38828.95	37884.3
860.8967	1119.8045	38362.05	37420.15
861.0416	1121.7596	38172.1	37230.65
861.1865	1123.7139	37947.05	37011.35
861.3314	1125.6675	37827.65	36888.85
861.4763	1127.6204	37870.5	36929.9
861.6212	1129.5726	37791.75	36845.75
861.7661	1131.524	37736.75	36794.35
861.911	1133.4748	37758.2	36815.15
862.0559	1135.4248	37666.3	36721.6
862.2008	1137.3741	37594.1	36656
862.3457	1139.3226	37446.3	36503.75
862.4905	1141.2705	37389.45	36445.85
862.6354	1143.2176	37073.2	36125.3
862.7803	1145.164	37079.25	36135.6
862.9251	1147.1097	36968.7	36026.45
863.07	1149.0546	36936.45	35991.05
863.2148	1150.9989	36830.8	35884.25
863.3597	1152.9424	36645.45	35702.95
863.5045	1154.8852	36313.5	35370.25
863.6493	1156.8272	36112.55	35170.85
863.7942	1158.7686	36040.15	35093.55
863.939	1160.7092	35800	34859.05
864.0838	1162.6491	35577.95	34639.3
864.2286	1164.5883	35631.35	34691.9
864.3734	1166.5267	35636	34690.6
864.5182	1168.4644	35666.7	34728.9
864.663	1170.4014	35706.7	34764.7
864.8078	1172.3377	35938	34998.3
864.9526	1174.2732	36043.45	35104.25
865.0974	1176.2081	36214.25	35272.9
865.2421	1178.1421	36274.85	35328.95
865.3869	1180.0755	36335.3	35395.15
865.5317	1182.0082	36177.2	35238.45
865.6764	1183.9401	36081	35141.05
865.8212	1185.8713	35676.3	34739.25
865.9659	1187.8017	35381.7	34453.25
866.1106	1189.7315	35080.95	34157.6
866.2554	1191.6605	34668.3	33744.25
866.4001	1193.5888	34357.1	33426.75
866.5448	1195.5163	34138.45	33209.1
866.6895	1197.4432	33996.3	33054.55
866.8342	1199.3693	33802.55	32866.75
866.9789	1201.2947	33596	32650.9
867.1236	1203.2193	33499.4	32560.45
867.2683	1205.1432	33426.6	32487.05
867.413	1207.0664	33354.65	32417.85
867.5576	1208.9889	33337.85	32397.8
867.7023	1210.9106	33307.4	32371.65
867.847	1212.8316	33259.95	32323.45
867.9916	1214.7519	33218.8	32269.4
868.1363	1216.6715	33078.35	32141.35
868.2809	1218.5903	33066.55	32131.15
868.4255	1220.5084	32864.1	31929.45
868.5701	1222.4257	32807.15	31867.5
868.7148	1224.3424	32579.3	31644.6
868.8594	1226.2583	32506.2	31566.5
869.004	1228.1735	32611.8	31678.1
869.1486	1230.0879	32569.6	31634.7
869.2932	1232.0016	32582.4	31647.4
869.4377	1233.9146	32545.25	31606.25
869.5823	1235.8269	32311.4	31375.5
869.7269	1237.7384	32153.45	31218.8
869.8715	1239.6492	31804.8	30870.95
870.016	1241.5592	31647.25	30710.3
870.1606	1243.4686	31472.2	30535.4
870.3051	1245.3772	31295.15	30359.5
870.4496	1247.285	31133.1	30197.75
870.5941	1249.1922	30995.8	30058.45
870.7387	1251.0986	30962.75	30028.55
870.8832	1253.0042	30788.4	29853
871.0277	1254.9092	30791.55	29856.55
871.1722	1256.8134	30851.55	29919.8
871.3167	1258.7169	30947.95	30011.75
871.4611	1260.6196	30994.55	30062.8
871.6056	1262.5216	31128.15	30190.75
871.7501	1264.4229	31178.55	30244.5
871.8945	1266.3234	31267.55	30333.15
872.039	1268.2232	31259.75	30322.45
872.1834	1270.1223	31113.75	30175.35
872.3278	1272.0207	31042.9	30108.95
872.4723	1273.9183	30934.2	29992.9
872.6167	1275.8151	30726.6	29795.35
872.7611	1277.7113	30597.55	29665.1
872.9055	1279.6067	30353.35	29419.9
873.0499	1281.5014	30124.55	29187.9
873.1943	1283.3953	29917.3	28981.2
873.3386	1285.2885	29712.65	28779.2
873.483	1287.181	29599.35	28665.35
873.6274	1289.0727	29625.2	28693
873.7717	1290.9637	29510.7	28576.1
873.9161	1292.854	29643.8	28709.4
874.0604	1294.7435	29662.65	28726.9
874.2047	1296.6323	29858.55	28925.3
874.349	1298.5204	30063.75	29127.8
874.4933	1300.4077	30274.45	29338.8
874.6376	1302.2943	30379.15	29445.1
874.7819	1304.1802	30448.35	29518.45
874.9262	1306.0653	30334.2	29394.95
875.0705	1307.9497	30071.9	29140.9
875.2147	1309.8333	29963.8	29032.3
875.359	1311.7162	29896.1	28962
875.5032	1313.5984	29981.05	29045.2
875.6475	1315.4798	30021.95	29067.15
875.7917	1317.3605	30176.35	29227.75
875.9359	1319.2405	30278	29340.5
876.0801	1321.1197	30235.45	29295.8
876.2243	1322.9982	30130	29192.6
876.3685	1324.876	30129.75	29194.6
876.5127	1326.753	30027.1	29094.5
876.6569	1328.6293	30034.65	29100.55
876.801	1330.5048	30018	29083.85
876.9452	1332.3796	29910.65	28975.3
877.0893	1334.2537	29885.65	28929.45
877.2335	1336.127	29722.9	28788.25
877.3776	1337.9996	29599.65	28667.7
877.5217	1339.8714	29476.95	28542.9
877.6658	1341.7426	29402.75	28423.15
877.8099	1343.6129	29264.95	28327.5
877.954	1345.4826	29062.35	28129.4
878.0981	1347.3515	29077.95	28142.1
878.2422	1349.2196	28909.95	27975.6
878.3862	1351.087	28887	27953.15
878.5303	1352.9537	28910.75	27979.75
878.6743	1354.8197	28951.4	28013.05
878.8184	1356.6849	29108.7	28175.8
878.9624	1358.5493	29082	28148.7
879.1064	1360.4131	29039.35	28105.65
879.2504	1362.276	28873.3	27940.6
879.3944	1364.1383	28665.85	27730.5
879.5384	1365.9998	28309.35	27371.65
879.6823	1367.8606	27976.35	27042.6
879.8263	1369.7206	27678.05	26743.3
879.9702	1371.5799	27448.9	26511.75
880.1142	1373.4384	27247	26312.95
880.2581	1375.2962	27121.4	26188.25
880.402	1377.1533	26784.95	25856.55
880.5459	1379.0096	26349.75	25422.05
880.6898	1380.8652	26059.4	25130.65
880.8337	1382.7201	25742.8	24813.4
880.9776	1384.5742	25414.55	24483.75
881.1215	1386.4275	25221.45	24288.95
881.2653	1388.2802	25029.35	24098.3
881.4092	1390.132	24901.1	23967.25
881.553	1391.9832	24775.9	23842.8
881.6968	1393.8336	24546.1	23615.55
881.8406	1395.6832	24503.1	23568.4
881.9844	1397.5322	24355.4	23424.05
882.1282	1399.3803	24300.35	23365.5
882.272	1401.2278	24167.65	23235.7
882.4158	1403.0745	24074.9	23145.4
882.5595	1404.9204	23945.7	23017.25
882.7033	1406.7656	23963.6	23031.2
882.847	1408.6101	23911	22979.75
882.9908	1410.4538	23814.2	22881.65
883.1345	1412.2968	23797.35	22864.4
883.2782	1414.139	23734.15	22800.3
883.4219	1415.9805	23787.5	22861.05
883.5656	1417.8213	23770	22821.15
883.7092	1419.6613	23820.5	22893.1
883.8529	1421.5006	23973.55	23044.05
883.9965	1423.3391	24194	23266.1
884.1402	1425.1769	24428.85	23496.35
884.2838	1427.0139	24948	24018.15
884.4274	1428.8502	25498.35	24568.1
884.571	1430.6858	26045.75	25117.6
884.7146	1432.5206	26420.9	25492.05
884.8582	1434.3547	26638.15	25708.3
885.0018	1436.188	26634.45	25706.2
885.1453	1438.0206	26514.25	25583.35
885.2889	1439.8524	26283.05	25352.6
885.4324	1441.6835	26142.05	25211.3
885.5759	1443.5139	26008.35	25074.05
885.7194	1445.3435	25847.65	24919.6
885.8629	1447.1724	25784.4	24857.25
886.0064	1449.0005	25716.75	24789
886.1499	1450.8279	25542.35	24612.55
886.2933	1452.6545	25429.25	24501
886.4368	1454.4804	25466.85	24541.25
886.5802	1456.3056	25420.4	24489
886.7237	1458.13	25276.45	24353.9
886.8671	1459.9536	25057.1	24129.4
887.0105	1461.7766	24622.3	23692.85
887.1539	1463.5987	24132.1	23203.75
887.2972	1465.4202	23701.95	22774.25
887.4406	1467.2409	23295.65	22366.5
887.584	1469.0608	22964.3	22038.35
887.7273	1470.88	22686.3	21756.15
887.8706	1472.6984	22391.05	21465.2
888.0139	1474.5161	22150.55	21221.75
888.1572	1476.3331	21924.5	20998.85
888.3005	1478.1493	21772.6	20843.95
888.4438	1479.9648	21672.9	20744.95
888.5871	1481.7795	21526.05	20597.95
888.7303	1483.5935	21443.85	20518.6
888.8736	1485.4067	21358.95	20432.4
889.0168	1487.2192	21297.75	20370.75
889.16	1489.031	21216.5	20286.3
889.3032	1490.842	21142.6	20215.55
889.4464	1492.6522	21096.65	20170.45
889.5896	1494.4618	20980.75	20052.6
889.7327	1496.2705	20959.05	20031.5
889.8759	1498.0785	20869.75	19942.35
890.019	1499.8858	20795.25	19868.5
890.1622	1501.6924	20726.25	19799.5
890.3053	1503.4981	20701.45	19774.5
890.4484	1505.3032	20657.9	19734.45
890.5914	1507.1075	20588.05	19662.9
890.7345	1508.911	20509.15	19585.2
890.8776	1510.7138	20441.6	19516.6
891.0206	1512.5159	20348.95	19424.05
891.1637	1514.3172	20270	19346
891.3067	1516.1178	20146.45	19221.05
891.4497	1517.9176	20084.75	19155.35
891.5927	1519.7166	20010.1	19086.45
891.7357	1521.515	19935.3	19004.85
891.8786	1523.3126	19872.95	18951
892.0216	1525.1094	19820.6	18898.5
892.1645	1526.9055	19741.65	18821.15
892.3074	1528.7008	19668.1	18744.65
892.4503	1530.4954	19556.85	18627.35
892.5932	1532.2893	19497.9	18576.3
892.7361	1534.0824	19435.2	18509.85
892.879	1535.8747	19384.2	18465.1
893.0218	1537.6663	19309.85	18388.9
893.1647	1539.4572	19241.05	18319.3
893.3075	1541.2473	19196.05	18274.5
893.4503	1543.0367	19129.25	18209.4
893.5931	1544.8253	19047.4	18123.8
893.7359	1546.6132	19027.35	18104.25
893.8787	1548.4003	18980.85	18052.4
894.0214	1550.1867	18933.2	18004.35
894.1642	1551.9723	18876.8	17951.4
894.3069	1553.7572	18882.8	17963.1
894.4496	1555.5414	18838.2	17920.8
894.5923	1557.3247	18805.7	17888
894.735	1559.1074	18794.2	17879.15
894.8777	1560.8893	18782.2	17867.9
895.0204	1562.6705	18744.4	17826.15
895.163	1564.4509	18786.3	17871.95
895.3056	1566.2305	18830.1	17919.3
895.4482	1568.0094	18954.4	18043.15
895.5908	1569.7876	18976.15	18061.6
895.7334	1571.565	19023.8	18109.2
895.876	1573.3417	19047.1	18131.55
896.0186	1575.1176	19021.15	18105.65
896.1611	1576.8928	18953.55	18042.7
896.3036	1578.6672	18806.95	17900.25
896.4461	1580.4409	18641	17734.3
896.5886	1582.2138	18456.95	17546.7
896.7311	1583.986	18310.4	17399.1
896.8736	1585.7575	18220.35	17307.65
897.0161	1587.5282	18053.25	17146.35
897.1585	1589.2981	17982.05	17075.15
897.3009	1591.0673	17876.1	16968.35
897.4433	1592.8358	17789.95	16885.55
897.5857	1594.6035	17772.3	16860.25
897.7281	1596.3704	17694.75	16782.75
897.8705	1598.1366	17662.1	16750
898.0128	1599.9021	17623.9	16717.9
898.1551	1601.6668	17627.1	16717.75
898.2975	1603.4308	17610	16697.25
898.4398	1605.194	17680.15	16766.85
898.5821	1606.9564	17650.55	16747.6
898.7243	1608.7182	17734.95	16832.15
898.8666	1610.4791	17800.5	16906
899.0088	1612.2394	17897.3	17000.25
899.1511	1613.9988	18035.4	17136.25
899.2933	1615.7576	18218.1	17315.1
899.4355	1617.5156	18470.7	17557.5
899.5776	1619.2728	18652.4	17742.3
899.7198	1621.0293	18793.05	17883.5
899.862	1622.785	18850.85	17944.55
900.0041	1624.54	18730.1	17825.4
900.1462	1626.2942	18526.6	17623.85
900.2883	1628.0477	18243.65	17338.4
900.4304	1629.8005	17975	17070.25
900.5725	1631.5525	17661	16758.6
900.7145	1633.3037	17409.55	16508.1
900.8566	1635.0542	17247.8	16345.7
900.9986	1636.804	17023.6	16121.3
901.1406	1638.553	16969.45	15985.7
901.2826	1640.3013	16774.7	15871
901.4245	1642.0488	16672.25	15765.15
901.5665	1643.7955	16646.7	15743.2
901.7085	1645.5416	16615.8	15714
901.8504	1647.2868	16648.15	15745.6
901.9923	1649.0313	16638.15	15731.65
902.1342	1650.7751	16787.3	15879.25
902.2761	1652.5181	16911.5	16008.6
902.4179	1654.2604	17092.9	16192.15
902.5598	1656.0019	17379.25	16479.6
902.7016	1657.7427	17728.05	16826.2
902.8434	1659.4828	18053.7	17151.65
902.9852	1661.222	18269.75	17363.4
903.127	1662.9606	18265.3	17361.25
903.2687	1664.6984	18137.3	17232.85
903.4105	1666.4354	17792.15	16884.75
903.5522	1668.1717	17273.55	16362.85
903.6939	1669.9072	16788.15	15882.9
903.8356	1671.642	16388.5	15479.9
903.9773	1673.3761	16080.15	15175.8
904.119	1675.1094	15833.9	14929.45
904.2606	1676.8419	15591.6	14689
904.4022	1678.5737	15433.95	14531.55
904.5439	1680.3048	15282.5	14377.45
904.6855	1682.0351	15165.95	14262.65
904.827	1683.7646	15058.7	14151
904.9686	1685.4934	14971.95	14070.3
905.1101	1687.2215	14883.5	13980.35
905.2517	1688.9488	14790.55	13889.85
905.3932	1690.6754	14710.95	13807.2
905.5347	1692.4012	14667.55	13763.05
905.6761	1694.1263	14610.8	13707.3
905.8176	1695.8506	14568.15	13664.55
905.9591	1697.5742	14499.45	13600.05
906.1005	1699.297	14428.65	13529.7
906.2419	1701.0191	14336.05	13436.7
906.3833	1702.7404	14290.45	13392.7
906.5246	1704.461	14210.4	13306.4
906.666	1706.1808	14154.3	13252.2
906.8073	1707.8999	14106.85	13206.25
906.9487	1709.6182	14050.45	13153.4
907.09	1711.3358	13981.4	13087.25
907.2313	1713.0527	13928.1	13034
907.3725	1714.7688	13926.7	13024.65
907.5138	1716.4841	13837.5	12936.4
907.655	1718.1987	13852.9	12948.5
907.7962	1719.9126	13768.05	12870.75
907.9374	1721.6257	13704.1	12807.8
908.0786	1723.338	13675.35	12779.2
908.2198	1725.0496	13590.1	12691.9
908.3609	1726.7605	13555.1	12654.95
908.502	1728.4706	13530.1	12632.45
908.6431	1730.18	13438.95	12542.6
908.7842	1731.8886	13408.5	12514.6
908.9253	1733.5964	13406.05	12489.4
909.0664	1735.3036	13329.7	12432.6
909.2074	1737.0099	13300.1	12406.8
909.3484	1738.7156	13273.6	12377.4
909.4894	1740.4204	13198.9	12300.15
909.6304	1742.1246	13160.25	12263
909.7714	1743.8279	13119.45	12223.55
909.9123	1745.5306	13106.55	12212.25
910.0532	1747.2325	13090.15	12197.05
910.1941	1748.9336	13036.95	12140.7
910.335	1750.634	12974.35	12076.55
910.4759	1752.3336	12930.65	12036.2
910.6168	1754.0325	12894.1	11999.85
910.7576	1755.7307	12893.25	11999.75
910.8984	1757.4281	12896.8	11998.85
911.0392	1759.1247	12837.05	11929.85
911.18	1760.8206	12808.7	11906.65
911.3208	1762.5158	12806.1	11904.45
911.4615	1764.2102	12720.15	11824.2
911.6022	1765.9039	12671.2	11777.4
911.7429	1767.5968	12660.15	11768.45
911.8836	1769.289	12612.05	11718.95
912.0243	1770.9804	12578.8	11682.6
912.1649	1772.6711	12588.3	11688.1
912.3056	1774.361	12530.2	11632.25
912.4462	1776.0502	12508.8	11612.65
912.5868	1777.7386	12480.5	11581.55
912.7274	1779.4263	12426.35	11532.05
912.8679	1781.1132	12428.15	11536.6
913.0084	1782.7994	12375.6	11484.8
913.149	1784.4849	12327.1	11434.85
913.2895	1786.1696	12303.75	11404.55
913.4299	1787.8535	12256.2	11365.2
913.5704	1789.5367	12194.15	11304
913.7108	1791.2192	12244.4	11353.25
913.8513	1792.9009	12192.25	11273.1
913.9917	1794.5818	12148.2	11253.8
914.132	1796.2621	12124.3	11231.25
914.2724	1797.9415	12051.9	11155.75
914.4128	1799.6202	12036.8	11143
914.5531	1801.2982	12023.25	11127.75
914.6934	1802.9755	12016.4	11119
914.8337	1804.6519	11971.6	11075.3
914.9739	1806.3277	11921.7	11030.6
915.1142	1808.0027	11858.55	10967.1
915.2544	1809.6769	11859.15	10969.05
915.3946	1811.3504	11833	10942.4
915.5348	1813.0231	11790.45	10899.85
915.675	1814.6951	11766.25	10874.45
915.8151	1816.3664	11759.2	10861.75
915.9553	1818.0369	11711.5	10817.25
916.0954	1819.7067	11693.1	10801.75
916.2355	1821.3757	11670	10774.4
916.3755	1823.044	11638	10742.3
916.5156	1824.7115	11620.15	10725.75
916.6556	1826.3783	11582.95	10690.95
916.7956	1828.0443	11546.85	10654.55
916.9356	1829.7096	11507.9	10615
917.0756	1831.3741	11501.2	10605.65
917.2155	1833.0379	11476.4	10584.8
917.3555	1834.701	11435.45	10544.25
917.4954	1836.3633	11409.9	10520.25
917.6353	1838.0248	11382.15	10489.95
917.7751	1839.6856	11352.6	10460.5
917.915	1841.3457	11320.25	10426.4
918.0548	1843.005	11303.9	10412.25
918.1946	1844.6636	11282.4	10390.5
918.3344	1846.3214	11216.2	10323.95
918.4742	1847.9785	11218.45	10327.75
918.6139	1849.6349	11210.9	10317
918.7537	1851.2904	11195.2	10290.35
918.8934	1852.9453	11160.3	10263.5
919.0331	1854.5994	11106.45	10211.25
919.1727	1856.2528	11119.95	10222.75
919.3124	1857.9054	11104.85	10212.2
919.452	1859.5572	11107.1	10217.9
919.5916	1861.2083	11072.15	10178.7
919.7312	1862.8587	11044.25	10149.4
919.8708	1864.5084	11020.75	10126.95
920.0103	1866.1572	10994.75	10098.25
920.1498	1867.8054	10980.35	10085.35
920.2893	1869.4528	10955.75	10060.35
920.4288	1871.0994	10866.75	9971.55
920.5683	1872.7453	10889.65	9997.3
920.7077	1874.3905	10865.9	9953.25
920.8471	1876.0349	10823.15	9929
920.9865	1877.6786	10807.95	9913
921.1259	1879.3215	10789.65	9898.25
921.2653	1880.9637	10736.5	9842.45
921.4046	1882.6051	10706.7	9813.05
921.5439	1884.2458	10666.9	9773.75
921.6832	1885.8858	10658.45	9767.1
921.8225	1887.525	10663.9	9770.1
921.9617	1889.1634	10600.35	9704.75
922.101	1890.8011	10569.25	9674.5
922.2402	1892.4381	10479.8	9585.55
922.3794	1894.0743	10533.2	9641.55
922.5185	1895.7098	10475.25	9582.55
922.6577	1897.3446	10478.25	9583.6
922.7968	1898.9786	10438.35	9540.25
922.9359	1900.6118	10421.4	9529.95
923.075	1902.2443	10369.55	9474.55
923.214	1903.8761	10337.35	9444.35
923.3531	1905.5071	10287.05	9393.1
923.4921	1907.1374	10280.35	9386
923.6311	1908.7669	10253.85	9361.9
923.77	1910.3957	10232.15	9340.75
923.909	1912.0237	10168.2	9276.35
924.0479	1913.651	10130.8	9237.55
924.1868	1915.2776	10142.05	9250.8
924.3257	1916.9034	10081.15	9190.5
924.4646	1918.5285	10060.8	9171.85
924.6034	1920.1528	9990.7	9099.7
924.7422	1921.7764	9996.7	9104.85
924.881	1923.3992	9971.75	9081.1
925.0198	1925.0213	9881.2	8988.85
925.1586	1926.6427	9846.15	8956.65
925.2973	1928.2633	9882.45	8922.8
925.436	1929.8832	9814.55	8921.95
925.5747	1931.5023	9774.3	8882.15
925.7134	1933.1207	9753.7	8861.85
925.852	1934.7383	9726.9	8834.95
925.9906	1936.3552	9692.95	8800.7
926.1292	1937.9714	9652.85	8761.1
926.2678	1939.5868	9634.3	8741.15
926.4064	1941.2015	9596.2	8703.45
926.5449	1942.8154	9559.2	8664.2
926.6834	1944.4286	9496.55	8603.55
926.8219	1946.041	9516.2	8604.05
926.9604	1947.6528	9454.75	8557.4
927.0988	1949.2637	9423.15	8530.95
927.2372	1950.8739	9368.8	8476.45
927.3756	1952.4834	9359.95	8471.6
927.514	1954.0921	9338.9	8446.85
927.6523	1955.7001	9306.05	8412.9
927.7907	1957.3074	9271.55	8384.85
927.929	1958.9139	9257.85	8370.6
928.0673	1960.5197	9237.1	8347.8
928.2055	1962.1247	9184.7	8294.6
928.3438	1963.729	9138.3	8251.3
928.482	1965.3325	9103.4	8194.3
928.6202	1966.9353	9096.6	8210.3
928.7584	1968.5374	9060	8171.8
928.8965	1970.1387	9017.65	8129.15
929.0346	1971.7393	8987.95	8100.55
929.1727	1973.3392	8964.2	8075.2
929.3108	1974.9383	8932.8	8046.35
929.4489	1976.5366	8897.65	8010.25
929.5869	1978.1342	8877.95	7989.4
929.7249	1979.7311	8863.9	7974.4
929.8629	1981.3273	8844.35	7957.5
930.0009	1982.9227	8789.85	7903.5
930.1388	1984.5173	8763.8	7878.1
930.2767	1986.1112	8735.75	7848.8
930.4146	1987.7044	8708.95	7823.75
930.5525	1989.2968	8695.95	7809.3
930.6904	1990.8885	8662.35	7772.35
930.8282	1992.4795	8643	7757.1
930.966	1994.0697	8604.65	7720.8
931.1038	1995.6592	8581.95	7696.35
931.2415	1997.2479	8566.55	7680.65
931.3793	1998.8359	8564.1	7679.55
931.517	2000.4232	8507.55	7625.85
931.6547	2002.0097	8456.85	7574.55
931.7923	2003.5955	8439.3	7554.1
931.93	2005.1805	8464.55	7579.8
932.0676	2006.7648	8420.2	7534.8
932.2052	2008.3484	8424.3	7541.05
932.3427	2009.9312	8375.9	7491.45
932.4803	2011.5133	8352.3	7471.65
932.6178	2013.0946	8353.6	7469.35
932.7553	2014.6752	8310	7427.15
932.8928	2016.2551	8296.3	7410.35
933.0302	2017.8342	8251.45	7368.5
933.1676	2019.4126	8219.25	7337.65
933.305	2020.9902	8197.55	7316.1
933.4424	2022.5672	8185	7301.7
933.5798	2024.1433	8159.3	7272.25
933.7171	2025.7188	8126.05	7247.4
933.8544	2027.2935	8119.3	7238.45
933.9917	2028.8674	8063.5	7180.5
934.129	2030.4406	8054.25	7172.85
934.2662	2032.0131	8011.4	7130.9
934.4034	2033.5849	7984.75	7099.45
934.5406	2035.1559	7977.45	7096.6
934.6778	2036.7261	7976.2	7092.85
934.8149	2038.2957	7963.6	7079.25
934.952	2039.8645	7925.25	7040.45
935.0891	2041.4325	7938.5	7050.5
935.2262	2042.9998	7930.5	7047.2
935.3632	2044.5664	7875.25	6990.95
935.5002	2046.1323	7858.95	6975.25
935.6372	2047.6974	7835.75	6954.35
935.7742	2049.2617	7799.8	6915.3
935.9111	2050.8254	7780.5	6891
936.048	2052.3883	7781.7	6894.5
936.1849	2053.9504	7753.35	6870.05
936.3218	2055.5118	7731.5	6846.5
936.4586	2057.0725	7693.6	6808.1
936.5955	2058.6325	7676.2	6792.75
936.7323	2060.1917	7645.35	6765.2
936.869	2061.7502	7639.45	6753.9
937.0058	2063.3079	7625.7	6744.15
937.1425	2064.8649	7590.65	6702.5
937.2792	2066.4212	7576.5	6692.95
937.4159	2067.9767	7550.4	6667.45
937.5525	2069.5315	7521.2	6637.55
937.6891	2071.0856	7481.3	6600.35
937.8257	2072.6389	7459	6576.45
937.9623	2074.1915	7436.45	6556.7
938.0989	2075.7433	7398.8	6514.3
938.2354	2077.2945	7384.3	6501.05
938.3719	2078.8448	7371	6486.65
938.5084	2080.3945	7353.2	6468.3
938.6448	2081.9434	7333.25	6447.45
938.7812	2083.4916	7313.9	6427.25
938.9176	2085.039	7303.05	6414.95
939.054	2086.5857	7269.7	6380.25
939.1903	2088.1317	7262.65	6373.55
939.3267	2089.677	7240.65	6349.9
939.463	2091.2215	7213.45	6324.7
939.5992	2092.7652	7209	6317.5
939.7355	2094.3083	7166.25	6277.1
939.8717	2095.8506	7162.85	6276.9
940.0079	2097.3921	7160.25	6276.55
940.1441	2098.933	7153.15	6268.55
940.2802	2100.4731	7117.25	6229.85
940.4163	2102.0124	7100.95	6208.35
940.5524	2103.5511	7097.85	6213.65
940.6885	2105.089	7079.6	6193.4
940.8245	2106.6261	7057.2	6171.3
940.9606	2108.1626	7045.15	6159.45
941.0965	2109.6983	7045.2	6130.15
941.2325	2111.2332	7030	6143.35
941.3684	2112.7675	6985.2	6094.85
941.5044	2114.301	6972.35	6083.8
941.6403	2115.8337	6949	6061.3
941.7761	2117.3657	6942.8	6057.15
941.912	2118.897	6928.45	6041.45
942.0478	2120.4276	6912.1	6019.75
942.1835	2121.9575	6869.85	5981.25
942.3193	2123.4866	6873.15	5970.25
942.455	2125.0149	6858.65	5969.05
942.5907	2126.5426	6807.6	5923.65
942.7264	2128.0695	6809.85	5922.65
942.8621	2129.5956	6772.7	5891.9
942.9977	2131.1211	6778.55	5889.9
943.1333	2132.6458	6759.85	5875.25
943.2689	2134.1698	6744.8	5856.95
943.4044	2135.693	6744.5	5852.9
943.54	2137.2155	6726.7	5836.15
943.6755	2138.7373	6674.5	5788.15
943.8109	2140.2584	6655.45	5770.55
943.9464	2141.7787	6664.3	5777.05
944.0818	2143.2983	6616.85	5736.75
944.2172	2144.8171	6569.85	5688.05
944.3526	2146.3353	6592.45	5706.8
944.4879	2147.8527	6551.1	5665.75
944.6232	2149.3693	6554.8	5667.8
944.7585	2150.8853	6519	5629.35
944.8938	2152.4005	6518.1	5629.7
945.029	2153.9149	6498.65	5610.65
945.1642	2155.4287	6561.8	5564.5
945.2994	2156.9417	6483.8	5595.15
945.4346	2158.454	6455.05	5570.55
945.5697	2159.9655	6408.8	5524.7
945.7048	2161.4764	6429.05	5543.7
945.8399	2162.9865	6392.7	5507.15
945.9749	2164.4958	6385.9	5499.4
946.1099	2166.0045	6367.2	5480.2
946.2449	2167.5124	6348.55	5462.8
946.3799	2169.0195	6338.1	5453.1
946.5148	2170.526	6324.3	5435.6
946.6498	2172.0317	6318.1	5430.9
946.7846	2173.5367	6291.35	5404.75
946.9195	2175.0409	6262.4	5377
947.0543	2176.5445	6266.8	5377.35
947.1891	2178.0473	6254.35	5366.9
947.3239	2179.5494	6225.15	5334.5
947.4587	2181.0507	6207.95	5319.15
947.5934	2182.5513	6167.7	5281.2
947.7281	2184.0512	6154.6	5269.85
947.8628	2185.5504	6154.6	5266.8
947.9974	2187.0488	6118.5	5234.6
948.132	2188.5465	6099.1	5214.35
948.2666	2190.0435	6098.7	5211.1
948.4012	2191.5397	6064.1	5178.45
948.5357	2193.0353	6075.5	5188.35
948.6702	2194.5301	6036.85	5148.6
948.8047	2196.0241	6015.5	5125.8
948.9392	2197.5175	6008.45	5117.7
949.0736	2199.0101	5999.15	5107.4
949.208	2200.502	5964.55	5078.4
949.3424	2201.9931	5924.6	5038.95
949.4767	2203.4835	5928.25	5043.5
949.611	2204.9733	5889.15	4998
949.7453	2206.4622	5873.2	4989.05
949.8796	2207.9505	5845.15	4959.8
950.0138	2209.438	5843.05	4961.4
950.148	2210.9248	5828.1	4942.6
950.2822	2212.4109	5796.5	4910.3
950.4164	2213.8962	5783.6	4893
950.5505	2215.3809	5772.95	4880.45
950.6846	2216.8648	5753.5	4861.55
950.8186	2218.3479	5744.3	4849.25
950.9527	2219.8304	5732	4837.05
951.0867	2221.3121	5688.4	4796.1
951.2207	2222.7931	5688.6	4799.7
951.3546	2224.2733	5671.8	4784.9
951.4886	2225.7529	5647.95	4759.95
951.6225	2227.2317	5628.2	4739.85
951.7563	2228.7098	5617.65	4732.65
951.8902	2230.1872	5587.75	4703.8
952.024	2231.6638	5591.35	4707.7
952.1578	2233.1397	5571.55	4682.05
952.2916	2234.6149	5548.55	4665
952.4253	2236.0894	5543.75	4658.15
952.559	2237.5632	5512.5	4626.1
952.6927	2239.0362	5515.8	4629.85
952.8263	2240.5085	5499.15	4613.85
952.9599	2241.9801	5462.1	4576.55
953.0935	2243.4509	5464.85	4576.35
953.2271	2244.921	5440.25	4549.8
953.3606	2246.3904	5436.25	4545.55
953.4941	2247.8591	5421.1	4533.4
953.6276	2249.3271	5414.25	4525.75
953.7611	2250.7943	5381.55	4492.05
953.8945	2252.2608	5347.9	4459.75
954.0279	2253.7266	5338.15	4450.65
954.1612	2255.1917	5340.2	4452.9
954.2946	2256.656	5322.9	4435.2
954.4279	2258.1197	5278.2	4393.25
954.5612	2259.5826	5290.8	4402.95
954.6944	2261.0447	5276.35	4387.05
954.8276	2262.5062	5255.65	4364
954.9608	2263.9669	5250.45	4360.05
955.094	2265.4269	5246.55	4359.55
955.2271	2266.8862	5235.35	4347.15
955.3602	2268.3448	5209.3	4322
955.4933	2269.8026	5200.95	4313.05
955.6264	2271.2598	5174.55	4288.55
955.7594	2272.7162	5157.45	4270.85
955.8924	2274.1719	5158.5	4269.45
956.0253	2275.6268	5148.2	4259.05
956.1583	2277.0811	5142.15	4251.6
956.2912	2278.5346	5117.15	4230.8
956.4241	2279.9874	5112.4	4225.55
956.5569	2281.4395	5105.6	4220.7
956.6897	2282.8908	5081.05	4192.05
956.8225	2284.3414	5067.05	4179.3
956.9553	2285.7914	5043.75	4158.75
957.088	2287.2406	5035.4	4145.15
957.2207	2288.689	5018.3	4129.25
957.3534	2290.1368	5029.3	4135.95
957.486	2291.5838	5005.55	4110.6
957.6186	2293.0302	4994.3	4100.4
957.7512	2294.4758	4974.1	4083.25
957.8838	2295.9206	4962.3	4072.25
958.0163	2297.3648	4955.2	4067.4
958.1488	2298.8082	4934.2	4044.25
958.2813	2300.251	4914.25	4026.8
958.4137	2301.693	4896.65	4002.65
958.5461	2303.1343	4883.85	3993.35
958.6785	2304.5748	4891.6	4001.45
958.8108	2306.0147	4867.9	3982.75
958.9432	2307.4538	4865.5	3978.6
959.0754	2308.8922	4837.05	3953.5
959.2077	2310.3299	4823.55	3938.4
959.3399	2311.7669	4818.2	3932.7
959.4721	2313.2031	4801.65	3914.45
959.6043	2314.6387	4793.6	3907.4
959.7365	2316.0735	4779.65	3893.9
959.8686	2317.5076	4771.95	3884
960.0006	2318.941	4767.2	3879.5
960.1327	2320.3737	4735.4	3843.9
960.2647	2321.8056	4732.6	3841.3
960.3967	2323.2369	4703.7	3813.85
960.5287	2324.6674	4703.85	3812.5
960.6606	2326.0972	4688.1	3800.55
960.7925	2327.5263	4665.65	3777.75
960.9244	2328.9547	4654.2	3766.1
961.0562	2330.3823	4638.4	3749.4
961.1881	2331.8092	4663.85	3770.5
961.3198	2333.2355	4640.2	3749.65
961.4516	2334.661	4633.2	3743.7
961.5833	2336.0858	4613	3719.4
961.715	2337.5098	4606.6	3717.9
961.8467	2338.9332	4590.95	3701.45
961.9783	2340.3558	4577.8	3688.75
962.1099	2341.7778	4562.05	3676.05
962.2415	2343.199	4550.55	3661.35
962.373	2344.6195	4530.35	3642.75
962.5045	2346.0393	4530.4	3643.6
962.636	2347.4583	4519.1	3629.8
962.7675	2348.8767	4518.95	3629.85
962.8989	2350.2943	4500.6	3609.05
963.0303	2351.7113	4490.2	3598.1
963.1617	2353.1275	4465.4	3574.7
963.293	2354.543	4475.35	3562.5
963.4243	2355.9578	4461.3	3571.85
963.5556	2357.3718	4414.45	3527.15
963.6868	2358.7852	4407.6	3517.85
963.818	2360.1978	4400.3	3513.7
963.9492	2361.6098	4395.9	3510.5
964.0803	2363.021	4377.9	3484.6
964.2114	2364.4315	4358.45	3468.75
964.3425	2365.8413	4360.85	3466.45
964.4736	2367.2504	4344.95	3461.05
964.6046	2368.6587	4313.65	3426.55
964.7356	2370.0664	4305.7	3420
964.8666	2371.4733	4293.55	3407.05
964.9975	2372.8795	4283.05	3395.55
965.1284	2374.285	4276.7	3387.6
965.2593	2375.6899	4251.25	3364.85
965.3901	2377.0939	4250.05	3363.35
965.5209	2378.4973	4234.75	3346.6
965.6517	2379.9	4200.4	3314
965.7825	2381.3019	4191.6	3305.3
965.9132	2382.7032	4176.5	3291.85
966.0439	2384.1037	4154.25	3271.65
966.1745	2385.5035	4162.5	3278.55
966.3051	2386.9027	4144.4	3262.05
966.4357	2388.3011	4143.3	3254.95
966.5663	2389.6987	4124.7	3238.85
966.6968	2391.0957	4126.4	3243.3
966.8273	2392.492	4081.2	3197.6
966.9578	2393.8876	4074.35	3188
967.0882	2395.2824	4075.8	3190.25
967.2186	2396.6765	4057.55	3171.85
967.349	2398.07	4030.85	3144.9
967.4793	2399.4627	4034.05	3144.4
967.6097	2400.8547	4018	3129.4
967.7399	2402.246	3991.65	3099.55
967.8702	2403.6366	3989.75	3103.45
968.0004	2405.0265	3976.1	3090.5
968.1306	2406.4156	3960.1	3071.9
968.2607	2407.8041	3958.75	3068.6
968.3909	2409.1918	3944.35	3057.05
968.521	2410.5789	3934.1	3044.55
968.651	2411.9652	3917.65	3028.35
968.781	2413.3508	3916.35	3029.85
968.911	2414.7358	3908.3	3021.65
969.041	2416.12	3884.75	2996.55
969.1709	2417.5035	3880.05	2993.2
969.3008	2418.8863	3874.7	2987
969.4307	2420.2684	3857.2	2970.4
969.5606	2421.6497	3857.8	2970.35
969.6904	2423.0304	3828.05	2942.7
969.8201	2424.4104	3827	2942.55
969.9499	2425.7896	3806.1	2917
970.0796	2427.1682	3806	2918.85
970.2093	2428.546	3789.7	2904.1
970.3389	2429.9232	3780.4	2891.55
970.4685	2431.2996	3785.45	2900
970.5981	2432.6753	3769.65	2882.6
970.7277	2434.0503	3763.15	2876.95
970.8572	2435.4246	3755.15	2867.6
970.9867	2436.7982	3731.85	2844.65
971.1161	2438.1711	3721	2835.2
971.2456	2439.5433	3708.85	2820.85
971.375	2440.9148	3708	2815.4
971.5043	2442.2856	3677.6	2792.6
971.6336	2443.6557	3677.35	2788.2
971.7629	2445.025	3658.7	2769.1
971.8922	2446.3937	3663.75	2776.05
972.0214	2447.7617	3653	2766.75
972.1506	2449.1289	3651.35	2763.95
972.2798	2450.4955	3637.2	2746.3
972.4089	2451.8613	3624.5	2739.25
972.538	2453.2265	3618	2730.2
972.6671	2454.5909	3604.6	2718.7
972.7961	2455.9546	3607.2	2722.95
972.9251	2457.3177	3582.3	2694.35
973.0541	2458.68	3585.05	2695.35
973.1831	2460.0416	3576.2	2689.9
973.312	2461.4025	3586.05	2697.3
973.4408	2462.7627	3578.3	2680.4
973.5697	2464.1222	3552.2	2668.2
973.6985	2465.4811	3545.7	2660.3
973.8273	2466.8392	3541.15	2653.25
973.956	2468.1966	3540	2651.7
974.0847	2469.5533	3544.3	2655.7
974.2134	2470.9093	3535	2649
974.3421	2472.2645	3520.4	2632.95
974.4707	2473.6191	3508.75	2622.7
974.5993	2474.973	3497.55	2611.6
974.7278	2476.3262	3486.25	2596.55
974.8563	2477.6787	3472.3	2586.05
974.9848	2479.0305	3460.75	2574.9
975.1132	2480.3816	3453.55	2564.35
975.2417	2481.7319	3436.1	2550.5
975.37	2483.0816	3432.9	2545
975.4984	2484.4306	3433.95	2548.25
975.6267	2485.7789	3409.35	2524.95
975.755	2487.1264	3408.85	2522.1
975.8833	2488.4733	3384.05	2500.35
976.0115	2489.8195	3380.7	2485.8
976.1397	2491.165	3380.05	2491.2
976.2678	2492.5097	3370.4	2482.95
976.3959	2493.8538	3344.35	2458.95
976.524	2495.1972	3335.6	2448.3
976.6521	2496.5398	3322.4	2433.95
976.7801	2497.8818	3336.2	2448.45
976.9081	2499.2231	3303.45	2415.05
977.036	2500.5637	3297.2	2408.7
977.164	2501.9035	3296.45	2407.85
977.2918	2503.2427	3289.95	2398.35
977.4197	2504.5812	3267.7	2381.2
977.5475	2505.919	3267.55	2379.1
977.6753	2507.256	3261.4	2372.95
977.8031	2508.5924	3256.05	2368.2
977.9308	2509.9281	3250.5	2358.6
978.0585	2511.2631	3238.85	2350.7
978.1861	2512.5974	3225.15	2336.9
978.3137	2513.9309	3218.3	2330.55
978.4413	2515.2638	3234.55	2323.85
978.5689	2516.596	3210.6	2322.8
978.6964	2517.9275	3193.3	2303.8
978.8239	2519.2583	3198.4	2311.45
978.9513	2520.5884	3176.05	2289
979.0788	2521.9178	3162.85	2275.9
979.2062	2523.2465	3160.55	2273.65
979.3335	2524.5745	3150.85	2265.55
979.4608	2525.9018	3138.55	2249.35
979.5881	2527.2284	3129.9	2242.45
979.7154	2528.5543	3135.3	2249.45
979.8426	2529.8796	3119.7	2233.5
979.9698	2531.2041	3118.35	2230.2
980.0969	2532.5279	3105.9	2221.65
980.224	2533.851	3109.25	2222.9
980.3511	2535.1735	3104.15	2217.7
980.4781	2536.4952	3093.25	2204.95
980.6052	2537.8163	3083.95	2195.3
980.7321	2539.1366	3081.6	2194.05
980.8591	2540.4562	3069.5	2179.5
980.986	2541.7752	3087	2199
981.1129	2543.0935	3056.05	2168.35
981.2397	2544.411	3062	2173.85
981.3665	2545.7279	3060.25	2172.6
981.4933	2547.0441	3046.9	2158.5
981.62	2548.3596	3046.25	2155.95
981.7467	2549.6744	3042.65	2155.45
981.8734	2550.9885	3023.7	2127.15
982.0001	2552.3019	3019.15	2131.5
982.1267	2553.6146	3014.45	2126.05
982.2532	2554.9266	3003	2114.45
982.3798	2556.2379	2988.35	2098.25
982.5063	2557.5485	3012.75	2127.5
982.6327	2558.8585	2995.4	2101.6
982.7592	2560.1677	2975.25	2087.15
982.8856	2561.4762	2974.75	2087.6
983.0119	2562.7841	2986.1	2094.45
983.1383	2564.0913	2963.75	2077.25
983.2646	2565.3977	2966.7	2080.25
983.3908	2566.7035	2964.9	2075.85
983.517	2568.0086	2947.8	2059.5
983.6432	2569.313	2941.15	2053.8
983.7694	2570.6167	2953.7	2063.85
983.8955	2571.9197	2938.3	2051.35
984.0216	2573.222	2937.45	2047.4
984.1476	2574.5236	2930.4	2042.2
984.2737	2575.8246	2919	2028.35
984.3996	2577.1248	2932.05	2041.6
984.5256	2578.4244	2916.8	2028.7
984.6515	2579.7232	2926.2	2038.6
984.7774	2581.0214	2940.3	2022.3
984.9032	2582.3189	2916.55	2030.85
985.029	2583.6157	2896.4	2003.35
985.1548	2584.9118	2902.45	2014.7
985.2806	2586.2072	2895.6	2008.7
985.4063	2587.5019	2885.55	1999.15
985.5319	2588.7959	2873.8	1985.55
985.6576	2590.0893	2881.75	1991.2
985.7832	2591.3819	2889.35	2002.35
985.9087	2592.6739	2865.45	1979.85
986.0343	2593.9652	2864.85	1975.6
986.1597	2595.2557	2863.15	1975.7
986.2852	2596.5456	2868.7	1976.9
986.4106	2597.8348	2849.8	1963.35
986.536	2599.1234	2847.45	1959.35
986.6614	2600.4112	2832.35	1942.15
986.7867	2601.6983	2828.55	1939
986.912	2602.9848	2827.75	1939.55
987.0372	2604.2705	2817.7	1923.3
987.1624	2605.5556	2826	1938.05
987.2876	2606.84	2812.95	1925.6
987.4128	2608.1237	2797.1	1908.1
987.5379	2609.4067	2795.75	1906.9
987.6629	2610.689	2784.35	1889.15
987.788	2611.9707	2773.6	1882.3
987.913	2613.2516	2787.75	1894.6
988.0379	2614.5319	2755	1866.7
988.1629	2615.8115	2753.35	1864.9
988.2878	2617.0903	2756.25	1869.65
988.4126	2618.3685	2731.65	1843.7
988.5375	2619.6461	2728.85	1839.95
988.6622	2620.9229	2726.2	1836.9
988.787	2622.199	2737.8	1848.75
988.9117	2623.4745	2716.2	1828.25
989.0364	2624.7493	2709	1821.6
989.161	2626.0234	2698.5	1811.75
989.2857	2627.2968	2721.85	1834.4
989.4102	2628.5695	2694.8	1806.15
989.5348	2629.8415	2685.05	1798.35
989.6593	2631.1128	2691.3	1802.45
989.7837	2632.3835	2672.8	1784.6
989.9082	2633.6535	2674.55	1787.9
990.0326	2634.9228	2674.55	1788.2
990.1569	2636.1914	2666.15	1779.7
990.2812	2637.4593	2667.5	1779.05
990.4055	2638.7265	2643.55	1756.3
990.5298	2639.9931	2633.4	1746.15
990.654	2641.259	2636.1	1747.65
990.7782	2642.5242	2627.75	1738.9
990.9023	2643.7887	2624.3	1735.9
991.0264	2645.0525	2612.6	1726.65
991.1505	2646.3156	2616.05	1714.25
991.2745	2647.5781	2607.65	1719.2
991.3985	2648.8398	2594.55	1709
991.5225	2650.1009	2617.7	1707.15
991.6464	2651.3613	2588.15	1697.1
991.7703	2652.6211	2576.15	1689.35
991.8942	2653.8801	2572.8	1688.2
992.018	2655.1385	2574.35	1684.1
992.1418	2656.3961	2566.3	1679.4
992.2655	2657.6531	2560.15	1673.25
992.3892	2658.9094	2579.2	1692.95
992.5129	2660.1651	2557.55	1672.1
992.6366	2661.42	2557.7	1671
992.7602	2662.6743	2553.75	1663.45
992.8837	2663.9279	2545	1658.75
993.0073	2665.1808	2534.9	1648.35
993.1307	2666.433	2540.9	1651.3
993.2542	2667.6846	2540.25	1652.7
993.3776	2668.9354	2540.05	1651.5
993.501	2670.1856	2541.2	1654.9
993.6244	2671.4351	2536.65	1650.35
993.7477	2672.6839	2531.75	1645.6
993.8709	2673.9321	2525.25	1638.25
993.9942	2675.1795	2522.3	1634.35
994.1174	2676.4263	2527.8	1640.65
994.2405	2677.6724	2516.8	1631.7
994.3637	2678.9179	2517.65	1628.8
994.4868	2680.1626	2520.95	1633.95
994.6098	2681.4067	2518.25	1630.2
994.7328	2682.6501	2505.95	1620.45
994.8558	2683.8928	2517.85	1629.85
994.9788	2685.1348	2504.3	1619.2
995.1017	2686.3761	2485.3	1597.1
995.2245	2687.6168	2488.35	1602.5
995.3474	2688.8568	2478.8	1592.25
995.4702	2690.0961	2469.15	1584.3
995.5929	2691.3348	2465.8	1578.05
995.7156	2692.5727	2458.2	1569.1
995.8383	2693.81	2452.65	1566.45
995.961	2695.0466	2442.35	1558.45
996.0836	2696.2826	2428.55	1539.4
996.2062	2697.5178	2441.35	1552.9
996.3287	2698.7524	2421.45	1534.4
996.4512	2699.9863	2437.05	1548.5
996.5737	2701.2195	2422	1537.45
996.6961	2702.452	2423.15	1535.95
996.8185	2703.6839	2416.7	1528.4
996.9408	2704.9151	2423.75	1538.9
997.0631	2706.1456	2428.5	1541.65
997.1854	2707.3755	2430.3	1543.65
997.3077	2708.6046	2431.3	1541.25
997.4299	2709.8331	2440.05	1553.2
997.552	2711.0609	2419.9	1532.95
997.6742	2712.2881	2449.2	1562.15
997.7963	2713.5145	2451.25	1565.5
997.9183	2714.7403	2450.35	1565.1
998.0403	2715.9654	2455.5	1570.7
998.1623	2717.1899	2473.6	1572.85
998.2842	2718.4136	2459.4	1573.05
998.4062	2719.6367	2481.7	1594.1
998.528	2720.8591	2481.3	1588.85
998.6498	2722.0809	2491.35	1605.5
998.7716	2723.3019	2498.25	1611.35
998.8934	2724.5223	2495.95	1608.45
999.0151	2725.7421	2488.7	1601.25
999.1368	2726.9611	2499.55	1611.7
999.2584	2728.1795	2490.85	1601.3
999.38	2729.3972	2472.9	1587.75
999.5016	2730.6142	2467.4	1568.05
999.6231	2731.8306	2446	1559.15
999.7446	2733.0462	2425.6	1536.6
999.8661	2734.2612	2407.55	1517.65
999.9875	2735.4756	2373.7	1485.3
1000.1089	2736.6892	2372.85	1483.9
1000.2302	2737.9022	2340.15	1455.75
1000.3515	2739.1145	2319.05	1432.9
1000.4728	2740.3262	2313.95	1417.8
1000.594	2741.5372	2286.9	1401.15
1000.7152	2742.7475	2289.15	1403.7
1000.8363	2743.9571	2273.35	1385.35
1000.9575	2745.1661	2264.2	1376.65
1001.0785	2746.3744	2251.25	1365.1
1001.1996	2747.582	2231.55	1347.85
1001.3206	2748.7889	2219.35	1332.15
1001.4415	2749.9952	2210.05	1324.1
1001.5625	2751.2008	2207.5	1319.4
1001.6833	2752.4057	2193.45	1304.35
1001.8042	2753.61	2188.4	1303.5
1001.925	2754.8136	2191.7	1304.95
1002.0458	2756.0165	2186.4	1300.95
1002.1665	2757.2188	2178.5	1294.65
1002.2872	2758.4204	2174.95	1287.65
1002.4078	2759.6213	2173.9	1286.35
1002.5285	2760.8215	2172.55	1283.55
1002.649	2762.0211	2165.35	1278.35
1002.7696	2763.22	2165.15	1279.35
1002.8901	2764.4182	2154.25	1266.5
1003.0106	2765.6158	2146.5	1264
1003.131	2766.8127	2138.95	1253.5
1003.2514	2768.009	2134.75	1247.75
1003.3717	2769.2045	2123.25	1236.55
1003.492	2770.3994	2129.05	1242.6
1003.6123	2771.5936	2120.5	1234.85
1003.7325	2772.7872	2111.1	1225.5
1003.8527	2773.9801	2105.1	1219.2
1003.9729	2775.1723	2126	1225.4
1004.093	2776.3639	2101.1	1216.75
1004.2131	2777.5548	2105.85	1218.1
1004.3331	2778.745	2100.1	1212.85
1004.4531	2779.9346	2092.6	1209.05
1004.5731	2781.1235	2089.4	1203.4
1004.693	2782.3117	2090.05	1207.05
1004.8129	2783.4992	2098.05	1216.05
1004.9328	2784.6861	2090.8	1206
1005.0526	2785.8723	2106.9	1219.8
1005.1723	2787.0579	2115.8	1229.45
1005.2921	2788.2428	2108.8	1223.65
1005.4118	2789.427	2116	1231.95
1005.5314	2790.6106	2116.35	1232.95
1005.651	2791.7935	2128.25	1240.5
1005.7706	2792.9757	2139.5	1256.75
1005.8902	2794.1573	2151.45	1264.15
1006.0097	2795.3382	2155	1271.8
1006.1291	2796.5184	2168.05	1284.6
1006.2485	2797.698	2190.35	1304.15
1006.3679	2798.8769	2196	1314.3
1006.4873	2800.0551	2220.55	1334.85
1006.6066	2801.2327	2232.65	1346
1006.7258	2802.4096	2242.45	1358.05
1006.8451	2803.5859	2270.6	1387.15
1006.9642	2804.7615	2284.2	1401.35
1007.0834	2805.9364	2312.85	1429.4
1007.2025	2807.1106	2321.3	1436.45
1007.3216	2808.2842	2356.9	1470.85
1007.4406	2809.4572	2395	1510.25
1007.5596	2810.6294	2428.05	1544.05
1007.6785	2811.801	2464.05	1580.8
1007.7975	2812.972	2494.95	1611
1007.9163	2814.1423	2545.8	1661.9
1008.0352	2815.3119	2582.4	1697.9
1008.154	2816.4808	2641.55	1760.75
1008.2727	2817.6491	2682.75	1798.4
1008.3914	2818.8167	2727.85	1845.95
1008.5101	2819.9837	2770.05	1880.95
1008.6288	2821.15	2817.85	1933.15
1008.7474	2822.3157	2852.8	1970.2
1008.8659	2823.4807	2893.65	2009.7
1008.9844	2824.645	2954.7	2069.15
1009.1029	2825.8086	2981.3	2098.95
1009.2214	2826.9716	3025.25	2143.45
1009.3398	2828.134	3065.5	2182.4
1009.4581	2829.2957	3093.6	2208
1009.5764	2830.4567	3108.25	2225.1
1009.6947	2831.617	3128.05	2243.8
1009.813	2832.7767	3142.1	2258.2
1009.9312	2833.9358	3131.25	2247.55
1010.0493	2835.0941	3134.75	2248.3
1010.1675	2836.2519	3113.9	2230.45
1010.2855	2837.4089	3100.65	2215.9
1010.4036	2838.5653	3102.95	2217.95
1010.5216	2839.7211	3097.75	2214.9
1010.6396	2840.8761	3106.7	2221.25
1010.7575	2842.0306	3139.45	2257.45
1010.8754	2843.1843	3167.1	2284.5
1010.9932	2844.3374	3218.65	2334.9
1011.111	2845.4899	3290	2404.15
1011.2288	2846.6417	3357.6	2476.65
1011.3465	2847.7928	3433.6	2550.9
1011.4642	2848.9433	3519.3	2636.9
1011.5818	2850.0931	3583.15	2699.85
1011.6995	2851.2422	3657.35	2774.05
1011.817	2852.3907	3750.4	2866.1
1011.9345	2853.5385	3791.8	2904.95
1012.052	2854.6857	3855.5	2962.65
1012.1695	2855.8323	3892.45	3009.8
1012.2869	2856.9781	3956.75	3071.35
1012.4042	2858.1233	3992.95	3109.45
1012.5216	2859.2679	4026.6	3144.35
1012.6389	2860.4118	4104.55	3221.05
1012.7561	2861.555	4130.55	3243.65
1012.8733	2862.6976	4168.35	3282.2
1012.9905	2863.8395	4179.1	3295.3
1013.1076	2864.9808	4193.9	3309.6
1013.2247	2866.1214	4219.45	3340
1013.3417	2867.2614	4231.5	3348.4
1013.4587	2868.4007	4236.4	3352.8
1013.5757	2869.5393	4238.35	3353.95
1013.6926	2870.6773	4273.95	3386.1
1013.8095	2871.8146	4279.1	3391.95
1013.9263	2872.9513	4253	3368.15
1014.0431	2874.0874	4253.95	3372
1014.1599	2875.2227	4254.3	3370.95
1014.2766	2876.3574	4227.85	3345.15
1014.3933	2877.4915	4187.15	3303.4
1014.51	2878.6249	4160.5	3277.5
1014.6266	2879.7577	4142.95	3259.55
1014.7431	2880.8898	4138.25	3244.65
1014.8596	2882.0212	4109.95	3227.95
1014.9761	2883.152	4086.4	3203.6
1015.0925	2884.2821	4090.95	3208.1
1015.2089	2885.4116	4068.05	3186.9
1015.3253	2886.5405	4068.65	3187.2
1015.4416	2887.6686	4061.85	3175
1015.5579	2888.7962	4082.75	3202.75
1015.6741	2889.923	4065	3182.7
1015.7903	2891.0493	4085.8	3205.3
1015.9065	2892.1748	4095.95	3213.9
1016.0226	2893.2997	4116.25	3233
1016.1387	2894.424	4118.45	3235.55
1016.2547	2895.5476	4148.85	3267.35
1016.3707	2896.6706	4159.05	3275.2
1016.4866	2897.7929	4173.7	3291.1
1016.6025	2898.9145	4216.8	3334.9
1016.7184	2900.0355	4253.65	3370.1
1016.8342	2901.1559	4271.3	3388.5
1016.95	2902.2756	4310.45	3427.55
1017.0658	2903.3946	4346.5	3463.65
1017.1815	2904.513	4364.75	3477.2
1017.2971	2905.6308	4387.9	3507.5
1017.4127	2906.7479	4407.25	3525.75
1017.5283	2907.8643	4423.85	3540.3
1017.6439	2908.9801	4435.9	3555.45
1017.7594	2910.0953	4434.7	3552.15
1017.8748	2911.2098	4451.85	3566.7
1017.9902	2912.3236	4430.4	3539.7
1018.1056	2913.4368	4415.35	3530.3
1018.2209	2914.5494	4394	3513.2
1018.3362	2915.6613	4387.4	3498.65
1018.4515	2916.7725	4354.1	3469.45
1018.5667	2917.8831	4287.45	3404
1018.6819	2918.9931	4278.05	3392
1018.797	2920.1024	4241.85	3356.8
1018.9121	2921.211	4224.4	3342.85
1019.0271	2922.319	4213.85	3332.25
1019.1421	2923.4264	4195.3	3313.95
1019.2571	2924.5331	4169.15	3289.6
1019.372	2925.6391	4139.25	3258.3
1019.4869	2926.7445	4146.35	3267
1019.6017	2927.8493	4137.15	3255.95
1019.7165	2928.9534	4131.25	3248
1019.8313	2930.0569	4115.35	3228.65
1019.946	2931.1597	4101.2	3217.3
1020.0606	2932.2619	4093.5	3211.05
1020.1753	2933.3634	4079	3197.85
1020.2899	2934.4643	4077.4	3189.65
1020.4044	2935.5645	4039.25	3151
1020.5189	2936.6641	4011.65	3124.95
1020.6334	2937.763	3964.9	3083.1
1020.7478	2938.8613	3907.05	3025.25
1020.8622	2939.959	3839.8	2952.75
1020.9765	2941.056	3759.9	2878.7
1021.0908	2942.1523	3692.45	2809.9
1021.2051	2943.248	3593.95	2713.55
1021.3193	2944.3431	3485.05	2603.45
1021.4334	2945.4375	3391.2	2508.3
1021.5476	2946.5313	3284.7	2403.7
1021.6617	2947.6244	3191.95	2308.35
1021.7757	2948.7169	3077.45	2196.95
1021.8897	2949.8087	2980.55	2096.9
1022.0037	2950.8999	2893.75	2013.6
1022.1176	2951.9904	2790.9	1908
1022.2315	2953.0803	2711.25	1830.2
1022.3453	2954.1696	2661.5	1778.1
1022.4591	2955.2582	2592.95	1712.1
1022.5728	2956.3462	2562.25	1680.1
1022.6865	2957.4335	2519.6	1637.55
1022.8002	2958.5202	2488.6	1605.35
1022.9138	2959.6062	2465.85	1585.6
1023.0274	2960.6916	2436.3	1553.65
1023.141	2961.7764	2410	1525.35
1023.2545	2962.8605	2386.7	1504.1
1023.3679	2963.9439	2383.35	1501.55
1023.4813	2965.0267	2359.65	1477
1023.5947	2966.1089	2374.4	1469.8
1023.708	2967.1905	2349.4	1469.6
1023.8213	2968.2714	2355.7	1476.3
1023.9346	2969.3516	2351.75	1470.2
1024.0478	2970.4312	2345.25	1455.45
1024.1609	2971.5102	2343.55	1462.7
1024.274	2972.5885	2349.2	1468.65
1024.3871	2973.6662	2343.15	1456.75
1024.5002	2974.7432	2336.65	1454.3
1024.6132	2975.8196	2332.2	1449.45
1024.7261	2976.8954	2320.45	1440.6
1024.839	2977.9705	2297.2	1414.1
1024.9519	2979.045	2284.3	1404.25
1025.0647	2980.1188	2264.1	1383
1025.1775	2981.192	2237.2	1356.85
1025.2902	2982.2645	2222.05	1341.65
1025.4029	2983.3364	2207.6	1326.45
1025.5156	2984.4077	2170.15	1287.8
1025.6282	2985.4783	2139.35	1250.15
1025.7407	2986.5483	2115.5	1236.7
1025.8532	2987.6177	2066.9	1185.8
1025.9657	2988.6864	2021.2	1139.25
1026.0782	2989.7545	1993.3	1112.15
1026.1906	2990.8219	1968.8	1088.15
1026.3029	2991.8887	1930.95	1046.75
1026.4152	2992.9548	1889.55	1008.6
1026.5275	2994.0204	1866	984.65
1026.6397	2995.0852	1833.9	954.2
1026.7519	2996.1495	1812.75	930.35
1026.864	2997.2131	1789.05	909.7
1026.9761	2998.276	1763.45	882.65
1027.0882	2999.3383	1738.1	855.55
1027.2002	3000.4	1726.75	845.2
1027.3122	3001.4611	1707.7	827.55
1027.4241	3002.5215	1695.7	813.95
1027.536	3003.5812	1671.4	789.9
1027.6478	3004.6404	1670.45	789.7
1027.7596	3005.6989	1653.75	771.75
1027.8714	3006.7567	1649.45	767.15
1027.9831	3007.8139	1652.8	755.95
1028.0947	3008.8705	1628.15	746.1
1028.2064	3009.9264	1636.9	737.3
1028.3179	3010.9818	1620.95	739.85
1028.4295	3012.0364	1613.7	732.55
1028.541	3013.0905	1607.9	727.75
1028.6524	3014.1439	1612.5	732.4
1028.7638	3015.1966	1596.8	717.55
1028.8752	3016.2487	1599.5	720.45
1028.9865	3017.3002	1607.6	718.8
1029.0978	3018.3511	1601.25	719.55
1029.209	3019.4013	1600.95	721.15
1029.3202	3020.4509	1603.15	721.95
1029.4314	3021.4998	1603	721.35
1029.5425	3022.5481	1601.25	719.3
1029.6535	3023.5958	1598.9	719.15
1029.7645	3024.6428	1601.7	721.55
1029.8755	3025.6892	1598.1	718.2
1029.9864	3026.735	1599.2	717.95
1030.0973	3027.7802	1599.65	719.4
1030.2082	3028.8247	1602.45	721.85
1030.319	3029.8685	1611.45	729.9
1030.4297	3030.9118	1608.3	725.35
1030.5404	3031.9544	1609.8	730.7
1030.6511	3032.9963	1616.95	735.35
1030.7617	3034.0376	1625	743.25
1030.8723	3035.0783	1622.85	738.5
1030.9829	3036.1184	1626	744.05
1031.0934	3037.1578	1624	744.7
1031.2038	3038.1966	1627.55	746.4
1031.3142	3039.2348	1634.6	754.75
1031.4246	3040.2723	1636.8	749.1
1031.5349	3041.3092	1615.85	736.25
1031.6452	3042.3455	1624.25	742.45
1031.7554	3043.3811	1614.5	734.2
1031.8656	3044.4161	1614.4	731.9
1031.9758	3045.4505	1601.55	722.3
1032.0859	3046.4842	1590.8	708.2
1032.1959	3047.5173	1582.2	702.6
1032.3059	3048.5498	1575.5	695.7
1032.4159	3049.5816	1569.9	689.3
1032.5258	3050.6128	1573.65	691.9
1032.6357	3051.6434	1561.7	680.15
1032.7455	3052.6734	1550.85	668.45
1032.8553	3053.7027	1547.3	669.15
1032.9651	3054.7314	1538.85	659.7
1033.0748	3055.7594	1536.6	655.15
1033.1845	3056.7868	1529.95	648.6
1033.2941	3057.8136	1516	636.7
1033.4037	3058.8398	1520.65	639.7
1033.5132	3059.8653	1499.4	619.2
1033.6227	3060.8902	1494.25	615.15
1033.7321	3061.9145	1490.4	609
1033.8415	3062.9381	1479.9	600.35
1033.9509	3063.9612	1492.45	596.1
1034.0602	3064.9835	1468.85	589.25
1034.1694	3066.0053	1459.05	577.4
1034.2787	3067.0264	1456.9	576.55
1034.3878	3068.0469	1447.45	566.15
1034.497	3069.0668	1442.55	559.95
1034.6061	3070.086	1423.05	545.15
1034.7151	3071.1046	1425.2	542.45
1034.8241	3072.1226	1410.1	528.3
1034.9331	3073.1399	1405.8	526.05
1035.042	3074.1567	1398.5	519.1
1035.1508	3075.1727	1384.7	501.95
1035.2597	3076.1882	1368.6	490.2
1035.3684	3077.203	1363.85	484.3
1035.4772	3078.2173	1358.25	476.55
1035.5859	3079.2308	1345.95	463.1
1035.6945	3080.2438	1337.95	455.15
1035.8031	3081.2561	1323.55	443.4
1035.9117	3082.2678	1309.85	430.7
1036.0202	3083.2789	1314.65	436.55
1036.1286	3084.2893	1307.5	428.45
1036.2371	3085.2991	1304.05	423.6
1036.3454	3086.3083	1296.2	412.25
1036.4538	3087.3169	1287.75	406.7
1036.562	3088.3248	1274.8	393.1
1036.6703	3089.3321	1275.65	394.2
1036.7785	3090.3388	1267.8	388.75
1036.8866	3091.3449	1263.15	382.2
1036.9948	3092.3503	1257.5	376.55
1037.1028	3093.3551	1252.8	373.8
1037.2108	3094.3593	1248.95	372
1037.3188	3095.3629	1246.85	367.2
1037.4267	3096.3658	1245.35	365.25
1037.5346	3097.3681	1238.15	360.7
1037.6425	3098.3698	1240.55	358.65
1037.7503	3099.3708	1239.7	354.1
1037.858	3100.3713	1230.85	350.2
1037.9657	3101.3711	1229.6	348.9
1038.0734	3102.3702	1356.5	342.9
1038.181	3103.3688	1228.55	348.45
1038.2886	3104.3667	1213.75	335.45
1038.3961	3105.364	1218.95	339.25
1038.5036	3106.3607	1213.45	330.8
1038.611	3107.3568	1212.75	332.55
1038.7184	3108.3522	1203.1	323.2
1038.8257	3109.347	1207.8	327.95
1038.933	3110.3412	1210.55	323
1039.0403	3111.3348	1197.6	318.35
1039.1475	3112.3277	1199.7	319.4
1039.2547	3113.32	1192	314.8
1039.3618	3114.3117	1193.95	314.15
1039.4689	3115.3028	1186.25	307.55
1039.5759	3116.2932	1189.65	308.35
1039.6829	3117.2831	1195.9	309.45
1039.7898	3118.2723	1187.1	308.15
1039.8967	3119.2608	1184.65	304.65
1040.0035	3120.2488	1182.2	303.1
1040.1103	3121.2361	1181.5	301.1
1040.2171	3122.2229	1173.95	293.35
1040.3238	3123.209	1178.05	295.8
1040.4305	3124.1944	1174.15	294.65
1040.5371	3125.1793	1176.15	295.55
1040.6437	3126.1635	1168.75	290.3
1040.7502	3127.1471	1165	286.25
1040.8567	3128.1301	1164.8	287.2
1040.9631	3129.1125	1159.5	280.7
1041.0695	3130.0942	1166.15	287.55
1041.1759	3131.0753	1169.75	280.8
1041.2822	3132.0558	1161.15	277.7
1041.3884	3133.0357	1157.9	276.75
1041.4946	3134.015	1157.4	276.85
1041.6008	3134.9936	1153.25	272.05
1041.7069	3135.9716	1174.65	271.7
1041.813	3136.949	1146.95	267.85
1041.919	3137.9258	1168.15	269.7
1042.025	3138.902	1156.4	272.3
1042.1309	3139.8775	1146.65	270
1042.2368	3140.8524	1141.55	261.25
1042.3427	3141.8267	1142.8	262.6
1042.4485	3142.8004	1141.7	262.05
1042.5542	3143.7735	1143.25	257.35
1042.6599	3144.7459	1138.3	259
1042.7656	3145.7178	1135.4	253
1042.8712	3146.689	1136.6	260.45
1042.9768	3147.6596	1135.9	254.1
1043.0823	3148.6295	1133.75	251.55
1043.1878	3149.5989	1124.95	246
1043.2932	3150.5676	1125.65	247.1
1043.3986	3151.5357	1122.75	245.2
1043.5039	3152.5032	1122.45	243.8
1043.6092	3153.4701	1126.45	246.65
1043.7145	3154.4364	1120.9	240.75
1043.8197	3155.402	1118	241.7
1043.9248	3156.367	1122.95	240.3
1044.03	3157.3315	1146.85	239.45
1044.135	3158.2952	1110.15	229.15
1044.24	3159.2584	1110.85	230.55
1044.345	3160.221	1113.75	232.1
1044.4499	3161.1829	1108	227.75
1044.5548	3162.1442	1105	226
1044.6596	3163.105	1109.5	228.75
1044.7644	3164.065	1104.8	226.7
1044.8692	3165.0245	1104.85	223.3
1044.9739	3165.9834	1100.6	222.6
1045.0785	3166.9416	1101.3	223
1045.1831	3167.8993	1098.25	218.75
1045.2877	3168.8563	1096.45	216.9
1045.3922	3169.8127	1097	217.75
1045.4966	3170.7684	1096.65	214.95
1045.6011	3171.7236	1096.5	216.5
1045.7054	3172.6782	1093.8	214.05
1045.8098	3173.6321	1094.15	215.45
1045.914	3174.5854	1094	211.25
1046.0183	3175.5381	1087.5	207.6
1046.1224	3176.4902	1087.65	209.25
1046.2266	3177.4417	1084.3	205.9
1046.3307	3178.3926	1083.75	206.15
1046.4347	3179.3428	1083	207.15
1046.5387	3180.2924	1082.9	205.45
1046.6427	3181.2415	1081.4	201.95
1046.7466	3182.1899	1081.95	200
1046.8504	3183.1377	1077.05	199.35
1046.9542	3184.0848	1079.25	197.55
1047.058	3185.0314	1074.25	197
1047.1617	3185.9773	1073.8	194.25
1047.2654	3186.9227	1078.15	198
1047.369	3187.8674	1072.4	193.5
1047.4726	3188.8115	1079	196.65
1047.5761	3189.755	1068.8	190.3
1047.6796	3190.6979	1068.5	189.4
1047.783	3191.6402	1070.75	195.7
1047.8864	3192.5818	1067.7	188.15
1047.9898	3193.5229	1084.55	190.6
1048.0931	3194.4633	1072.45	193.8
1048.1963	3195.4031	1067.1	187.25
1048.2995	3196.3423	1065.1	186.65
1048.4027	3197.2809	1061.1	179.45
1048.5058	3198.2189	1062.45	182.8
1048.6089	3199.1563	1070.5	185
1048.7119	3200.0931	1060.15	181.85
1048.8148	3201.0292	1061.05	181.9
1048.9178	3201.9648	1059.95	179.85
1049.0206	3202.8997	1058.4	176
1049.1235	3203.834	1053	174.35
1049.2262	3204.7677	1054.9	176.35
1049.329	3205.7008	1054.4	172.4
1049.4317	3206.6333	1050.1	173.15
1049.5343	3207.5652	1056.35	175.65
1049.6369	3208.4964	1051.3	172.6
1049.7394	3209.4271	1051.5	173.4
1049.8419	3210.3571	1049.15	169.9
1049.9444	3211.2865	1053.9	173.95
1050.0468	3212.2154	1053.85	173.35
1050.1491	3213.1436	1053.95	170.9
1050.2514	3214.0712	1053.7	168.35
1050.3537	3214.9982	1051.05	173.2
1050.4559	3215.9246	1043.8	162.55
1050.5581	3216.8503	1045.6	168.75
1050.6602	3217.7755	1044.05	164.55
1050.7623	3218.7001	1043.5	165.7
1050.8643	3219.624	1043.45	164.3
1050.9663	3220.5473	1040.9	161.9
1051.0682	3221.4701	1038.3	156.95
1051.1701	3222.3922	1038.65	158.1
1051.2719	3223.3137	1038.9	161.35
1051.3737	3224.2346	1038.75	160.8
1051.4754	3225.1549	1040.3	162
1051.5771	3226.0746	1039.15	162.55
1051.6788	3226.9937	1034.6	154.8
1051.7804	3227.9121	1032.6	156.4
1051.8819	3228.83	1034.45	155.9
1051.9834	3229.7473	1031.65	153.35
1052.0849	3230.6639	1033.75	155.5
1052.1863	3231.5799	1031.7	154.05
1052.2876	3232.4954	1032.15	151.9
1052.3889	3233.4102	1028.7	150.75
1052.4902	3234.3244	1034.65	156.2
1052.5914	3235.238	1028.05	150.2
1052.6926	3236.151	1049.25	141.5
1052.7937	3237.0634	1022.4	144.15
1052.8948	3237.9752	1026.95	149.2
1052.9958	3238.8864	1023.85	147.15
1053.0968	3239.797	1019.8	142.25
1053.1977	3240.7069	1024.4	143.55
1053.2986	3241.6163	1023.1	143.4
1053.3994	3242.5251	1023.55	146.45
1053.5002	3243.4332	1021.1	143.95
1053.6009	3244.3408	1018.5	138.95
1053.7016	3245.2477	1014.9	136.4
1053.8022	3246.154	1020.85	141.6
1053.9028	3247.0598	1014.9	135.2
1054.0034	3247.9649	1013.3	135.65
1054.1039	3248.8694	1018.25	141.45
1054.2043	3249.7733	1014.9	135.15
1054.3047	3250.6766	1014	134.6
1054.4051	3251.5793	1011.65	132.1
1054.5054	3252.4814	1010.2	130.1
1054.6056	3253.3829	1009.75	132.55
1054.7058	3254.2838	1008.3	128.8
1054.806	3255.1841	1006.4	127.2
1054.9061	3256.0838	1005.6	128.8
1055.0061	3256.9829	1005.1	126.6
1055.1062	3257.8814	1008.1	127.15
1055.2061	3258.7792	1003.65	124.2
1055.306	3259.6765	998.65	118.7
1055.4059	3260.5731	998.25	120.75
1055.5057	3261.4692	997.75	118.5
1055.6055	3262.3647	996.25	115.7
1055.7052	3263.2595	992.6	113.45
1055.8049	3264.1538	991.4	110.95
1055.9045	3265.0474	991.1	111.95
1056.0041	3265.9404	993.35	114.4
1056.1036	3266.8329	987.2	110.7
1056.2031	3267.7247	997.5	108.4
1056.3025	3268.616	985.9	109.75
1056.4019	3269.5066	980	101.1
1056.5013	3270.3966	983.1	102.35
1056.6005	3271.286	974.2	96.85
