Software Version:	3.9.2.0
Unit SN:	10000200
Spectrometer SN:	6960
Date:	3/26/2024 1:39:29 PM
Data Line Index:	25
Spectral Points:	2048
Integration time (ms):	125
Averages:	20
Delay (ms):	30000
Sequence Number:	1
Processing:	dark subtract
Laser Power (mW):	305
Laser Current (mA):	820
Laser Diode Temp (C):	25
Laser Case Temp (C):	27.1
System Temp (C):	27.1
Spectrometer Temp (C):	24.9
CCD Temp (C):	-0.01
Secondary Temp (C):	20.004
Heatsink Temp (C):	22.632
CCDPCB Temp (C):	36.296
SecondaryPCB Temp (C):	34.162

Wavelength	RamanShift	Raw Counts	Dark Subtracted
787.061	30.1047	610.45	200.8
787.2016	32.3739	621.95	213.05
787.3422	34.6426	632.7	222.4
787.4828	36.9109	645.7	234.9
787.6235	39.1787	666.25	249.55
787.7642	41.4461	689.3	268.35
787.9049	43.7131	713.25	288.35
788.0456	45.9796	736.2	309.15
788.1863	48.2456	756.1	323.3
788.3271	50.5112	781.15	343.95
788.4679	52.7764	802.65	364.5
788.6087	55.0411	828.35	387.55
788.7496	57.3054	854.4	406.5
788.8904	59.5692	881.8	430.9
789.0313	61.8326	916.95	463.85
789.1722	64.0955	950.85	492.5
789.3132	66.3579	999.6	537.5
789.4541	68.6199	1050.35	585.55
789.5951	70.8815	1132.5	663.2
789.7361	73.1426	1316.9	844.25
789.8771	75.4032	1799.55	1323.1
790.0181	77.6634	2981.9	2497.6
790.1592	79.9231	5931	5437.9
790.3003	82.1824	12657.65	12150.25
790.4414	84.4412	26848.45	26309.05
790.5825	86.6995	50450.45	49874.1
790.7237	88.9574	61529.4	60911.75
790.8648	91.2148	64916.2	64274.2
791.006	93.4717	65162.95	64504.4
791.1472	95.7282	65272.1	64604.6
791.2885	97.9842	65321.05	64648.25
791.4297	100.2398	65268.2	64593.15
791.571	102.4949	65279.35	64601.4
791.7123	104.7495	65249.4	64568.9
791.8536	107.0036	65206.7	64527.35
791.9949	109.2573	65245.95	64564
792.1363	111.5105	65193	64510.6
792.2777	113.7632	65172.7	64488.75
792.4191	116.0154	65194.75	64498.95
792.5605	118.2672	65248.7	64558.7
792.7019	120.5185	65230.65	64539.25
792.8434	122.7693	65220.15	64526.85
792.9849	125.0197	65125.45	64431.25
793.1264	127.2696	65284.4	64589.8
793.2679	129.519	65229.45	64531.3
793.4094	131.7679	65295.8	64587.9
793.551	134.0163	65139.1	64424.45
793.6926	136.2642	65193.6	64478.65
793.8342	138.5117	65275.3	64551.75
793.9758	140.7587	65229.1	64508
794.1175	143.0052	65214.8	64492.15
794.2591	145.2512	65116.3	64397.9
794.4008	147.4967	65216.25	64492.9
794.5425	149.7417	65180.9	64457.2
794.6842	151.9863	65179.6	64453.6
794.826	154.2304	65137.85	64406.7
794.9677	156.4739	65155.5	64420.75
795.1095	158.717	65241.95	64503.5
795.2513	160.9596	65176.05	64434.3
795.3931	163.2017	65068.85	64326.05
795.535	165.4433	65154.8	64410.7
795.6768	167.6844	65083.5	64338.25
795.8187	169.925	65129.55	64383.05
795.9606	172.1651	65057.9	64312.25
796.1025	174.4047	65115.7	64365.6
796.2445	176.6439	65073.65	64318.15
796.3864	178.8825	65010.3	64258.4
796.5284	181.1206	65127.4	64362.55
796.6704	183.3582	65087.2	64319.25
796.8124	185.5954	65074.15	64306.75
796.9544	187.832	65062.1	64291.3
797.0965	190.0681	64979.1	64203.9
797.2386	192.3037	65094.1	64317.05
797.3806	194.5388	65221.8	64441.75
797.5228	196.7734	64899.55	64112.35
797.6649	199.0075	65200.65	64414.5
797.807	201.2411	65079.4	64287.95
797.9492	203.4742	65244.15	64449.75
798.0914	205.7068	65201.15	64407.2
798.2336	207.9389	65196.1	64404.75
798.3758	210.1704	65190.65	64395.5
798.518	212.4015	65275.25	64475.75
798.6603	214.632	65181.2	64383.2
798.8025	216.862	65298.2	64508.3
798.9448	219.0915	65206.7	64420.85
799.0871	221.3205	65206.4	64427.9
799.2294	223.549	65326.95	64548.3
799.3718	225.777	65306.25	64529.5
799.5141	228.0044	65369.9	64593.9
799.6565	230.2314	65300.9	64522
799.7989	232.4578	65309.7	64535.35
799.9413	234.6837	65335.4	64552.5
800.0837	236.909	65494.85	64710.6
800.2262	239.1339	65234.3	64423.2
800.3687	241.3582	65356.95	64559.85
800.5111	243.582	65362.2	64536.2
800.6536	245.8053	65342.1	64523.25
800.7961	248.0281	65375.95	64564.55
800.9387	250.2503	65406.75	64594.3
801.0812	252.472	65301.85	64476.45
801.2238	254.6932	65385.05	64563.1
801.3664	256.9139	65353.25	64524.2
801.509	259.134	65500.95	64674.25
801.6516	261.3536	65358.4	64529.3
801.7942	263.5727	65413.45	64585.25
801.9369	265.7912	65375.85	64550.55
802.0795	268.0092	65403.8	64576.95
802.2222	270.2267	65434.65	64603.65
802.3649	272.4436	65333.95	64502
802.5076	274.6601	65428.75	64593
802.6504	276.8759	65450.35	64625.8
802.7931	279.0913	65389.8	64558.45
802.9359	281.3061	65439.15	64606.05
803.0787	283.5204	65411	64567.6
803.2215	285.7341	65413.15	64572
803.3643	287.9473	65463.5	64608.8
803.5071	290.16	65439.35	64592.1
803.6499	292.3721	65445.9	64599.85
803.7928	294.5837	65418.85	64573.55
803.9357	296.7947	65360.1	64513.05
804.0786	299.0052	65485	64637.4
804.2215	301.2152	65436.6	64593.55
804.3644	303.4246	65440.2	64603.05
804.5074	305.6334	65447.05	64606
804.6503	307.8418	65348.75	64500.7
804.7933	310.0495	65323.2	64475.55
804.9363	312.2568	65306.1	64457.2
805.0793	314.4635	65326.5	64476.05
805.2223	316.6696	65383.3	64531.4
805.3653	318.8752	65424.35	64567.15
805.5084	321.0802	65213.35	64359.85
805.6514	323.2847	65320.35	64459.45
805.7945	325.4887	65286.1	64429.65
805.9376	327.692	65256.35	64398
806.0807	329.8949	65285.8	64428.75
806.2238	332.0972	65238.45	64380.4
806.367	334.2989	65278.05	64414.8
806.5101	336.5001	65305.5	64444.95
806.6533	338.7007	65149.8	64285.15
806.7965	340.9008	65244.85	64380.35
806.9397	343.1003	65242.85	64380.1
807.0829	345.2992	65286.2	64418.8
807.2261	347.4976	65203.55	64331.55
807.3693	349.6955	65245.35	64374
807.5126	351.8927	65169.85	64294.5
807.6559	354.0895	65233.95	64350.75
807.7991	356.2856	65232.65	64353.9
807.9424	358.4812	65296.35	64425.25
808.0857	360.6763	65149.8	64270.6
808.2291	362.8707	65301.85	64427.35
808.3724	365.0646	65204.7	64325.65
808.5158	367.258	65203.95	64325.8
808.6591	369.4508	65127.95	64247.3
808.8025	371.643	65286.1	64399.25
808.9459	373.8346	65213.9	64330.1
809.0893	376.0257	65227.55	64341.35
809.2327	378.2162	65181.4	64291.15
809.3762	380.4062	65069.45	64183.6
809.5196	382.5956	65171	64282.05
809.6631	384.7844	65150.15	64261.85
809.8066	386.9726	65194.85	64305.85
809.9501	389.1603	65173.55	64284.4
810.0936	391.3474	65096.5	64164.4
810.2371	393.5339	65165	64269.9
810.3806	395.7199	65051.3	64169.3
810.5241	397.9052	65075.25	64198.35
810.6677	400.09	65107	64226.95
810.8113	402.2743	65197.45	64317.4
810.9548	404.4579	65078.15	64198.3
811.0984	406.641	65087.8	64208.5
811.2421	408.8235	65133.25	64253.1
811.3857	411.0054	65139.95	64257.5
811.5293	413.1868	65147	64263.9
811.673	415.3675	65123.05	64236.4
811.8166	417.5477	65141.65	64254.8
811.9603	419.7273	65133.4	64245.75
812.104	421.9064	65114.8	64222.6
812.2477	424.0848	65123.5	64230.8
812.3914	426.2627	65174.85	64280.95
812.5351	428.4399	65059.65	64165.85
812.6788	430.6166	64951.3	64050.9
812.8226	432.7928	65081.15	64182.15
812.9663	434.9683	64946.55	64052.15
813.1101	437.1432	64927.05	64030.9
813.2539	439.3176	65038.35	64149.3
813.3977	441.4914	64886.05	63996.85
813.5415	443.6645	64912.3	64016.85
813.6853	445.8371	64926.5	64027.6
813.8291	448.0091	64852.05	63955.15
813.973	450.1806	64787.45	63894.35
814.1168	452.3514	64832.6	63938.45
814.2607	454.5216	64689.5	63788.6
814.4046	456.6913	64854.75	63959.85
814.5485	458.8603	64878.25	63983
814.6924	461.0288	64678.65	63788.9
814.8363	463.1967	64857.85	63968.3
814.9802	465.3639	64823.55	63926.3
815.1241	467.5306	64499.1	63602
815.2681	469.6967	64726.85	63834.6
815.412	471.8622	64825.3	63932.9
815.556	474.0271	64700.2	63809.65
815.7	476.1914	64755.65	63851.15
815.844	478.3551	64772.9	63870.6
815.988	480.5182	64903.8	64008
816.132	482.6807	64655.65	63768.6
816.276	484.8426	64716.55	63835.05
816.4201	487.0039	64910.2	64021.85
816.5641	489.1647	64919	64020.4
816.7082	491.3248	64729.95	63829.5
816.8522	493.4843	64939.55	64044.2
816.9963	495.6432	64953	64057.4
817.1404	497.8015	64728.4	63821.25
817.2845	499.9592	64847.7	63935.2
817.4286	502.1163	64827.15	63916.9
817.5727	504.2728	64804.05	63905.5
817.7168	506.4287	64756.75	63866.3
817.861	508.5839	64605.85	63716.7
818.0051	510.7386	64706.7	63808.8
818.1493	512.8927	64709.65	63800.4
818.2935	515.0461	64667.05	63759.75
818.4377	517.199	64793.4	63883.4
818.5818	519.3512	64650.2	63741.1
818.726	521.5029	64688.15	63777.5
818.8703	523.6539	64727.6	63819.25
819.0145	525.8043	64507.9	63595.9
819.1587	527.9541	64707.45	63798.6
819.303	530.1033	64677.6	63768.25
819.4472	532.2519	64557.55	63651.9
819.5915	534.3999	64731.45	63818.6
819.7357	536.5472	64801.35	63895.9
819.88	538.694	64517.65	63616.9
820.0243	540.8401	64690.5	63782.2
820.1686	542.9856	64739.8	63819.85
820.3129	545.1305	64832.2	63909.95
820.4572	547.2748	64642.85	63715.65
820.6016	549.4185	64599.95	63672
820.7459	551.5615	64757.6	63829.95
820.8902	553.704	64698.4	63775.7
821.0346	555.8458	64594.8	63675.15
821.1789	557.987	64655.4	63732.85
821.3233	560.1276	64723.6	63802.3
821.4677	562.2675	64658.95	63734.75
821.6121	564.4069	64748	63820.8
821.7565	566.5456	64833.1	63910.45
821.9009	568.6837	64647.1	63728.1
822.0453	570.8212	64699.35	63779.3
822.1897	572.958	64364.6	63443.2
822.3342	575.0942	64576	63659.4
822.4786	577.2299	64383.85	63473
822.6231	579.3648	64319.8	63421.75
822.7675	581.4992	64267.55	63374.7
822.912	583.6329	64263.35	63372.05
823.0565	585.766	64289.65	63389.9
823.201	587.8985	64394.6	63491.75
823.3454	590.0304	63995.6	63059.4
823.4899	592.1616	64301.5	63381.65
823.6345	594.2922	64116.6	63197.15
823.779	596.4222	63857	62933.2
823.9235	598.5515	63956.05	63028.6
824.068	600.6802	64118.15	63194.25
824.2126	602.8083	63747.05	62825.45
824.3571	604.9358	63744.4	62819
824.5017	607.0626	64029.55	63100.85
824.6462	609.1888	63511.2	62576.75
824.7908	611.3144	63851.55	62921.75
824.9354	613.4393	63742.1	62805
825.08	615.5636	63478	62543.9
825.2246	617.6873	63771.5	62839
825.3692	619.8103	63387.3	62454.7
825.5138	621.9327	63759.65	62830.55
825.6584	624.0544	63763.1	62837.8
825.803	626.1756	63521.4	62599.2
825.9477	628.2961	63477.35	62551.2
826.0923	630.4159	63319.35	62389.9
826.237	632.5351	63210.55	62279.6
826.3816	634.6537	63791.35	62858.6
826.5263	636.7716	63162.95	62226.5
826.6709	638.8889	63322.3	62386.65
826.8156	641.0056	63260.3	62321.5
826.9603	643.1216	63346.05	62410.25
827.105	645.237	63451.45	62517.65
827.2497	647.3518	63098.4	62173.2
827.3944	649.4659	63204.8	62278.25
827.5391	651.5793	63224.7	62299.95
827.6838	653.6922	63318.5	62393.25
827.8285	655.8043	62826.55	61897.35
827.9733	657.9159	63441.35	62511.3
828.118	660.0268	62370.35	61441.35
828.2627	662.137	63032	62099.35
828.4075	664.2466	63119.1	62180.45
828.5522	666.3556	62861.8	61922.95
828.697	668.4639	63046.85	62112.2
828.8418	670.5716	62761.8	61830.75
828.9865	672.6786	62998.5	62067.75
829.1313	674.785	62605.7	61666.1
829.2761	676.8907	62673.5	61736.55
829.4209	678.9958	62821.45	61894.6
829.5657	681.1002	62884.5	61952.75
829.7105	683.204	62517.9	61575.75
829.8553	685.3072	62345	61406.4
830.0001	687.4097	62491.35	61556.45
830.1449	689.5115	62371.85	61429.05
830.2898	691.6127	62698.15	61767
830.4346	693.7132	62323.05	61394.9
830.5794	695.8131	62386.05	61444.6
830.7243	697.9123	62516.95	61574.5
830.8691	700.0109	62582.7	61637.95
831.014	702.1089	62081.3	61143.9
831.1588	704.2061	62258.95	61321.7
831.3037	706.3028	62310.45	61368.85
831.4486	708.3987	62392.05	61449.4
831.5935	710.4941	62185.6	61244.25
831.7383	712.5887	62458.6	61518.85
831.8832	714.6827	62233.05	61291.1
832.0281	716.7761	62491.45	61557.4
832.173	718.8688	62592.55	61652.2
832.3179	720.9608	62273.85	61327.8
832.4628	723.0522	62348.75	61399.35
832.6077	725.1429	62072.45	61126.6
832.7527	727.233	62855.3	61914.8
832.8976	729.3224	61617.6	60672
833.0425	731.4112	62141.05	61200.25
833.1874	733.4993	62087.85	61147.05
833.3324	735.5867	62046.85	61105.55
833.4773	737.6735	61712.55	60772.8
833.6222	739.7596	61392.05	60448.15
833.7672	741.845	61339.75	60400.5
833.9122	743.9298	61763.35	60820.45
834.0571	746.014	61263.5	60320.35
834.2021	748.0974	60954.3	60008.5
834.347	750.1802	61598.1	60653.05
834.492	752.2624	60800.25	59851.65
834.637	754.3439	60918.45	59967.85
834.782	756.4247	61114.9	60154.95
834.9269	758.5048	60833.7	59886.2
835.0719	760.5843	61044.4	60094.9
835.2169	762.6631	61252.55	60305
835.3619	764.7413	61176.25	60227.75
835.5069	766.8188	61416.25	60466.1
835.6519	768.8956	61789.3	60839.4
835.7969	770.9718	61802.85	60853
835.9419	773.0473	61625.45	60678.8
836.0869	775.1221	61211.65	60267.7
836.232	777.1962	61175.05	60226.9
836.377	779.2697	60729.45	59780.65
836.522	781.3426	60957.15	59995.5
836.667	783.4147	61104.35	60154.65
836.8121	785.4862	60969.8	60025.15
836.9571	787.557	60585.05	59632.15
837.1021	789.6271	60862.05	59911.85
837.2472	791.6966	60301.5	59347.8
837.3922	793.7654	59727.1	58775.85
837.5373	795.8335	59611.1	58661.95
837.6823	797.901	59589.75	58640.3
837.8274	799.9678	59289.8	58336.3
837.9724	802.0339	59199.65	58247.05
838.1175	804.0993	59222.5	58259.9
838.2626	806.1641	58998.05	58048.1
838.4076	808.2282	58893.45	57943.85
838.5527	810.2916	58784.85	57833
838.6978	812.3544	58961.85	58014.25
838.8428	814.4164	58446.15	57496.6
838.9879	816.4778	58610.1	57659.25
839.133	818.5385	58586.55	57629.75
839.2781	820.5986	58577.65	57625.35
839.4232	822.658	58664.65	57708.4
839.5682	824.7166	58832.8	57881.95
839.7133	826.7747	58625.3	57673.15
839.8584	828.832	59003.75	58049.2
840.0035	830.8886	59379	58422.4
840.1486	832.9446	59377.35	58421.55
840.2937	834.9999	58521.75	57569.75
840.4388	837.0545	58750.5	57794.6
840.5839	839.1085	58803.85	57849.3
840.729	841.1618	58532.8	57574.85
840.8741	843.2143	57916.25	56960.7
841.0192	845.2662	57831.6	56878.45
841.1643	847.3175	58004.05	57048.6
841.3095	849.368	57447.4	56494.15
841.4546	851.4179	57721.7	56770
841.5997	853.467	57304.95	56348.85
841.7448	855.5155	57466.3	56509.25
841.8899	857.5633	57181.35	56223.9
842.0351	859.6105	56945.3	55986.75
842.1802	861.6569	57072.4	56114.9
842.3253	863.7027	56640.35	55684.3
842.4704	865.7478	56764.85	55809.5
842.6156	867.7922	56665.2	55709.35
842.7607	869.8359	56780.2	55825.5
842.9058	871.8789	56323.8	55367.2
843.0509	873.9212	56585.7	55596
843.1961	875.9629	56532.7	55574.7
843.3412	878.0039	56539	55578.8
843.4863	880.0441	56401.3	55444.55
843.6315	882.0837	56433.2	55479.1
843.7766	884.1226	56436.4	55482.65
843.9218	886.1609	56365.5	55408.1
844.0669	888.1984	56243.95	55291.4
844.212	890.2352	56601.7	55645.45
844.3572	892.2714	56175.35	55211.75
844.5023	894.3069	56300.65	55342.1
844.6475	896.3416	56005.3	55048.7
844.7926	898.3757	55876.7	54915.05
844.9377	900.4091	55474.6	54516.7
845.0829	902.4418	55835.35	54868.45
845.228	904.4739	55536.1	54575.75
845.3732	906.5052	55627.75	54667.25
845.5183	908.5358	55388.45	54427.35
845.6635	910.5658	55140.5	54180.9
845.8086	912.595	55065.85	54108.7
845.9538	914.6236	54593.35	53636.55
846.0989	916.6515	55073.15	54115.15
846.2441	918.6786	54395.25	53433.7
846.3892	920.7051	54516.7	53554.7
846.5344	922.7309	54471.95	53510.2
846.6795	924.756	54464.1	53506.9
846.8246	926.7804	54294.25	53331.9
846.9698	928.8041	53753.85	52795.9
847.1149	930.8272	54133.85	53175.65
847.2601	932.8495	53969.15	53009.75
847.4052	934.8711	53658.5	52698.15
847.5504	936.892	53407.35	52450.5
847.6955	938.9123	53526.2	52563.35
847.8407	940.9318	53283.2	52325.3
847.9858	942.9506	53149.9	52191.95
848.131	944.9688	53073.3	52115.9
848.2761	946.9862	52501.15	51544.7
848.4213	949.003	52539.3	51578.75
848.5664	951.019	51990	51033.5
848.7115	953.0344	52053.6	51092.8
848.8567	955.0491	51974.5	51011.15
849.0018	957.063	52118.85	51160.85
849.147	959.0763	52200.45	51233.55
849.2921	961.0888	51794.95	50839.5
849.4373	963.1007	52031.65	51076.9
849.5824	965.1119	51958.55	51007.8
849.7275	967.1223	51710.65	50764.25
849.8727	969.1321	51918.3	50972.7
850.0178	971.1412	51514.7	50567.9
850.1629	973.1495	51259.15	50307.2
850.3081	975.1572	51386.6	50408.8
850.4532	977.1641	51285.1	50326.85
850.5983	979.1704	51112.1	50151.9
850.7435	981.1759	51008.95	50047
850.8886	983.1808	50801.35	49844.1
851.0337	985.1849	50754.3	49785.15
851.1788	987.1884	50755.8	49796.85
851.324	989.1911	50932.35	49975.45
851.4691	991.1932	50458.6	49503
851.6142	993.1945	50476.85	49522.3
851.7593	995.1951	50393.3	49433.5
851.9045	997.1951	50053.3	49091.2
852.0496	999.1943	49886.35	48931.45
852.1947	1001.1928	49736.45	48777.55
852.3398	1003.1906	49688.3	48731
852.4849	1005.1877	49481.8	48524.3
852.63	1007.1841	49296.45	48337.95
852.7751	1009.1798	49234.75	48278.5
852.9202	1011.1748	49060.6	48103.7
853.0653	1013.1691	48852.95	47897.7
853.2104	1015.1627	48153.75	47198.1
853.3555	1017.1556	47964.05	47011.45
853.5006	1019.1477	47948.2	46991.65
853.6457	1021.1392	47510.65	46562.95
853.7908	1023.1299	47137.95	46189.4
853.9359	1025.12	47114.5	46173.55
854.081	1027.1093	46915.7	45986.55
854.2261	1029.0979	46909.8	45982.3
854.3712	1031.0859	46853.6	45917.5
854.5163	1033.0731	46548.25	45600.35
854.6613	1035.0596	46475.6	45528.15
854.8064	1037.0454	46195.45	45246.55
854.9515	1039.0304	45985.05	45033
855.0965	1041.0148	45597.75	44645.45
855.2416	1042.9985	45513.75	44560.1
855.3867	1044.9814	45531.05	44577.05
855.5317	1046.9636	45171.3	44217.65
855.6768	1048.9452	45061.55	44112.05
855.8219	1050.926	44986.9	44034.05
855.9669	1052.9061	44858.65	43902.6
856.112	1054.8855	44803.8	43847.4
856.257	1056.8642	44681.15	43726.25
856.4021	1058.8421	44671.75	43716.3
856.5471	1060.8194	44571.4	43614.45
856.6921	1062.7959	44519.9	43566.1
856.8372	1064.7717	44484.15	43527.05
856.9822	1066.7469	44402.45	43446.3
857.1272	1068.7213	44394.05	43437.75
857.2723	1070.695	44333.55	43381.55
857.4173	1072.6679	44087.05	43131.55
857.5623	1074.6402	44113.85	43158.6
857.7073	1076.6117	43988.3	43028.3
857.8523	1078.5826	43801.8	42844.8
857.9973	1080.5527	43586.15	42633.75
858.1423	1082.5221	43407.85	42453.6
858.2873	1084.4908	43411.85	42457.55
858.4323	1086.4587	43307.65	42353.25
858.5773	1088.426	43238.95	42285
858.7223	1090.3925	43113.4	42153.4
858.8673	1092.3584	43060.15	42104.55
859.0123	1094.3235	42874.3	41922.1
859.1573	1096.2879	42761.9	41806.7
859.3022	1098.2515	42789	41841.05
859.4472	1100.2145	42862.55	41910.35
859.5922	1102.1767	42844.4	41887.6
859.7371	1104.1382	42957.05	42002.5
859.8821	1106.099	43003.4	42050.65
860.027	1108.0591	43061.9	42110.25
860.172	1110.0185	42966.05	42013.25
860.3169	1111.9771	43049.2	42097.95
860.4619	1113.9351	42806.6	41853.8
860.6068	1115.8923	42494.05	41542.15
860.7517	1117.8488	42256.45	41300.3
860.8967	1119.8045	41820.2	40867.25
861.0416	1121.7596	41703.95	40751.4
861.1865	1123.7139	41550.55	40602.6
861.3314	1125.6675	41397.85	40445.25
861.4763	1127.6204	41507	40555.1
861.6212	1129.5726	41273.95	40317.9
861.7661	1131.524	41162.1	40212.85
861.911	1133.4748	41054.35	40098.55
862.0559	1135.4248	40757.65	39802.95
862.2008	1137.3741	40565.3	39614.35
862.3457	1139.3226	40369.1	39415.15
862.4905	1141.2705	40340.8	39386.6
862.6354	1143.2176	40019.35	39059.45
862.7803	1145.164	39949.8	38996.9
862.9251	1147.1097	39832.1	38879.5
863.07	1149.0546	39728.35	38778.8
863.2148	1150.9989	39597.45	38647.8
863.3597	1152.9424	39472.9	38517.55
863.5045	1154.8852	39299.05	38349.3
863.6493	1156.8272	39172.15	38222.05
863.7942	1158.7686	39214.4	38254
863.939	1160.7092	38991.4	38038.5
864.0838	1162.6491	38876.5	37924
864.2286	1164.5883	38950.5	37998.4
864.3734	1166.5267	38907.9	37957.3
864.5182	1168.4644	38956.3	38003.9
864.663	1170.4014	39029.55	38075.2
864.8078	1172.3377	39246	38301.45
864.9526	1174.2732	39446.15	38496.2
865.0974	1176.2081	39631.25	38683.25
865.2421	1178.1421	39912.4	38959.6
865.3869	1180.0755	40312.15	39366.6
865.5317	1182.0082	40360	39413.85
865.6764	1183.9401	40442.2	39494.4
865.8212	1185.8713	40182.1	39239.4
865.9659	1187.8017	39855.35	38921.1
866.1106	1189.7315	39509.85	38580.3
866.2554	1191.6605	39004.2	38072.3
866.4001	1193.5888	38690.65	37756.5
866.5448	1195.5163	38510.2	37567.4
866.6895	1197.4432	38320.85	37375.9
866.8342	1199.3693	38141.6	37194.5
866.9789	1201.2947	37989.6	37039.35
867.1236	1203.2193	37814.85	36868.75
867.2683	1205.1432	37744.2	36797.2
867.413	1207.0664	37631.4	36688.35
867.5576	1208.9889	37548.9	36601.95
867.7023	1210.9106	37461.8	36517.4
867.847	1212.8316	37267.05	36319.15
867.9916	1214.7519	37244	36290.55
868.1363	1216.6715	37105.2	36161.55
868.2809	1218.5903	37131.5	36186.05
868.4255	1220.5084	37063.5	36116.4
868.5701	1222.4257	37125.8	36181.95
868.7148	1224.3424	36948.55	36005.3
868.8594	1226.2583	36933.85	35990.8
869.004	1228.1735	36971.1	36026.5
869.1486	1230.0879	36929	35983.85
869.2932	1232.0016	37006	36058.1
869.4377	1233.9146	37038.4	36091.9
869.5823	1235.8269	36882.9	35937.65
869.7269	1237.7384	36808.85	35860.75
869.8715	1239.6492	36532.4	35585.9
870.016	1241.5592	36482.75	35539.15
870.1606	1243.4686	36383.25	35439.5
870.3051	1245.3772	36413.45	35468.55
870.4496	1247.285	36425.05	35480.65
870.5941	1249.1922	36468.05	35522.85
870.7387	1251.0986	36534.45	35591.1
870.8832	1253.0042	36449.45	35506.95
871.0277	1254.9092	36499	35557.15
871.1722	1256.8134	36478.25	35538.65
871.3167	1258.7169	36562.65	35620.55
871.4611	1260.6196	36526.6	35583.9
871.6056	1262.5216	36672.45	35725.55
871.7501	1264.4229	36727.6	35783.3
871.8945	1266.3234	36853.5	35908.45
872.039	1268.2232	36912.4	35967.45
872.1834	1270.1223	36820.9	35875.55
872.3278	1272.0207	36819.85	35871.2
872.4723	1273.9183	36712.65	35761.85
872.6167	1275.8151	36570.75	35627.5
872.7611	1277.7113	36486.05	35545.95
872.9055	1279.6067	36428.25	35485.4
873.0499	1281.5014	36498	35552.15
873.1943	1283.3953	36724.15	35780.65
873.3386	1285.2885	37003.65	36062.2
873.483	1287.181	37315.35	36373.8
873.6274	1289.0727	37631.9	36691
873.7717	1290.9637	37768.15	36825
873.9161	1292.854	37930.1	36988.3
874.0604	1294.7435	37834.2	36893
874.2047	1296.6323	37778.55	36832.75
874.349	1298.5204	37579.5	36634.1
874.4933	1300.4077	37418.1	36472.05
874.6376	1302.2943	37221.1	36278.2
874.7819	1304.1802	37008.75	36065.6
874.9262	1306.0653	36554.25	35610.5
875.0705	1307.9497	36147.9	35204.95
875.2147	1309.8333	35815.5	34874.1
875.359	1311.7162	35509.55	34565.45
875.5032	1313.5984	35360.95	34412.7
875.6475	1315.4798	35169.35	34207.45
875.7917	1317.3605	35043.85	34085.45
875.9359	1319.2405	34991.15	34044.2
876.0801	1321.1197	34783.9	33836
876.2243	1322.9982	34439.6	33493.3
876.3685	1324.876	34236.35	33295.1
876.5127	1326.753	33899.45	32956.05
876.6569	1328.6293	33769.7	32824.4
876.801	1330.5048	33605.55	32661.75
876.9452	1332.3796	33434.45	32491.8
877.0893	1334.2537	33374.65	32409.25
877.2335	1336.127	33172.85	32230.2
877.3776	1337.9996	33144.2	32198.05
877.5217	1339.8714	33056.65	32114.95
877.6658	1341.7426	32938.75	31949.2
877.8099	1343.6129	32887.7	31941.3
877.954	1345.4826	32886.25	31938.4
878.0981	1347.3515	32891.45	31946.9
878.2422	1349.2196	32751.5	31806.85
878.3862	1351.087	32770.25	31828.3
878.5303	1352.9537	32724	31780.8
878.6743	1354.8197	32826	31883.1
878.8184	1356.6849	32914.45	31972.05
878.9624	1358.5493	32970.1	32028.15
879.1064	1360.4131	33054.7	32115
879.2504	1362.276	33041.75	32100.4
879.3944	1364.1383	32989.8	32050.5
879.5384	1365.9998	32767.2	31821.4
879.6823	1367.8606	32375.8	31430.3
879.8263	1369.7206	32096.65	31153.4
879.9702	1371.5799	31735.3	30791.95
880.1142	1373.4384	31390.55	30449.5
880.2581	1375.2962	31208.2	30265.5
880.402	1377.1533	30759.65	29823.4
880.5459	1379.0096	30369.95	29434.1
880.6898	1380.8652	30049.8	29112.3
880.8337	1382.7201	29751.45	28811.5
880.9776	1384.5742	29430.7	28490.6
881.1215	1386.4275	29150.4	28208.3
881.2653	1388.2802	28974.65	28032.55
881.4092	1390.132	28808.45	27864.5
881.553	1391.9832	28709.85	27769.4
881.6968	1393.8336	28501.7	27565.35
881.8406	1395.6832	28425.75	27485.4
881.9844	1397.5322	28300.05	27358.65
882.1282	1399.3803	28168.2	27222.7
882.272	1401.2278	27961.25	27020.9
882.4158	1403.0745	27953.4	27016.05
882.5595	1404.9204	27827.95	26889.05
882.7033	1406.7656	27816.8	26876.25
882.847	1408.6101	27693.2	26754.2
882.9908	1410.4538	27641.6	26701.85
883.1345	1412.2968	27586.25	26645.35
883.2782	1414.139	27541.55	26602.1
883.4219	1415.9805	27537.1	26603.1
883.5656	1417.8213	27530.45	26568.05
883.7092	1419.6613	27490.95	26552.4
883.8529	1421.5006	27611.3	26673.6
883.9965	1423.3391	27700.1	26760.95
884.1402	1425.1769	27828.4	26890.8
884.2838	1427.0139	28200.75	27262.75
884.4274	1428.8502	28554.1	27616.45
884.571	1430.6858	28912.6	27973.4
884.7146	1432.5206	29150.1	28212.45
884.8582	1434.3547	29287.5	28347.85
885.0018	1436.188	29264.9	28326.1
885.1453	1438.0206	29141.2	28203.05
885.2889	1439.8524	28935.25	27998.8
885.4324	1441.6835	28855.25	27915.85
885.5759	1443.5139	28675.65	27735.3
885.7194	1445.3435	28526.35	27592.45
885.8629	1447.1724	28503.95	27567.85
886.0064	1449.0005	28420.85	27483.95
886.1499	1450.8279	28339.95	27402.7
886.2933	1452.6545	28265.7	27329.3
886.4368	1454.4804	28250.5	27314.8
886.5802	1456.3056	28194.05	27255.2
886.7237	1458.13	28102.15	27166.9
886.8671	1459.9536	27976.65	27039.75
887.0105	1461.7766	27688.1	26753.85
887.1539	1463.5987	27323	26383.6
887.2972	1465.4202	27007	26070.15
887.4406	1467.2409	26681.9	25745.35
887.584	1469.0608	26438.9	25505.05
887.7273	1470.88	26181.35	25244.65
887.8706	1472.6984	25942.5	25005.1
888.0139	1474.5161	25702.45	24763.8
888.1572	1476.3331	25546.8	24612.45
888.3005	1478.1493	25399.7	24465.35
888.4438	1479.9648	25326.45	24391.85
888.5871	1481.7795	25219	24282.7
888.7303	1483.5935	25089.15	24155
888.8736	1485.4067	25047.8	24112.2
889.0168	1487.2192	24961.85	24025.6
889.16	1489.031	24898.2	23964.65
889.3032	1490.842	24812.4	23878.35
889.4464	1492.6522	24728.15	23790.8
889.5896	1494.4618	24673.5	23735.5
889.7327	1496.2705	24638.65	23703.45
889.8759	1498.0785	24544.8	23611.5
890.019	1499.8858	24453.35	23520
890.1622	1501.6924	24393.9	23459.95
890.3053	1503.4981	24282.75	23349.5
890.4484	1505.3032	24222.85	23287.9
890.5914	1507.1075	24164.1	23231.15
890.7345	1508.911	24061.7	23127.3
890.8776	1510.7138	24021.35	23087.8
891.0206	1512.5159	23921.2	22987.75
891.1637	1514.3172	23808.8	22876.85
891.3067	1516.1178	23713.75	22783
891.4497	1517.9176	23670.15	22734.25
891.5927	1519.7166	23611.05	22680.25
891.7357	1521.515	23593.15	22655.85
891.8786	1523.3126	23502.35	22569.3
892.0216	1525.1094	23368.5	22435.55
892.1645	1526.9055	23289.2	22360
892.3074	1528.7008	23187.75	22260.6
892.4503	1530.4954	23029.25	22093.4
892.5932	1532.2893	23045.65	22117.55
892.7361	1534.0824	22898.45	21964.85
892.879	1535.8747	22876.1	21948.55
893.0218	1537.6663	22807.25	21881.5
893.1647	1539.4572	22728.95	21799.6
893.3075	1541.2473	22695	21766.35
893.4503	1543.0367	22662.55	21738.15
893.5931	1544.8253	22554.85	21624.3
893.7359	1546.6132	22577.45	21646
893.8787	1548.4003	22470.65	21534.45
894.0214	1550.1867	22520.7	21585.4
894.1642	1551.9723	22449.15	21520.75
894.3069	1553.7572	22527.3	21601.1
894.4496	1555.5414	22489.75	21565.75
894.5923	1557.3247	22530.05	21608.65
894.735	1559.1074	22634.15	21711.15
894.8777	1560.8893	22710.55	21790.25
895.0204	1562.6705	22740.2	21821.55
895.163	1564.4509	22804.3	21887.8
895.3056	1566.2305	22797.1	21880.85
895.4482	1568.0094	22839.85	21924.25
895.5908	1569.7876	22844.05	21925.1
895.7334	1571.565	22801.85	21881.7
895.876	1573.3417	22757.3	21838.85
896.0186	1575.1176	22672	21753.75
896.1611	1576.8928	22600.2	21685.25
896.3036	1578.6672	22552.65	21638.75
896.4461	1580.4409	22526.45	21614.15
896.5886	1582.2138	22467.95	21553.25
896.7311	1583.986	22398.6	21483.35
896.8736	1585.7575	22405.7	21487.75
897.0161	1587.5282	22375.1	21460.75
897.1585	1589.2981	22443.1	21532.5
897.3009	1591.0673	22405.85	21492.2
897.4433	1592.8358	22457.05	21546.55
897.5857	1594.6035	22531.95	21616.6
897.7281	1596.3704	22484.6	21564.5
897.8705	1598.1366	22502.05	21585.15
898.0128	1599.9021	22497.35	21583.35
898.1551	1601.6668	22502.75	21586.3
898.2975	1603.4308	22547.15	21632.05
898.4398	1605.194	22658.9	21739.35
898.5821	1606.9564	22761	21850.9
898.7243	1608.7182	22916.3	22007.9
898.8666	1610.4791	23112.95	22214.25
899.0088	1612.2394	23252.7	22350.7
899.1511	1613.9988	23454.1	22547.35
899.2933	1615.7576	23626.7	22717.35
899.4355	1617.5156	23774.95	22855.55
899.5776	1619.2728	23879.2	22963.9
899.7198	1621.0293	23830.9	22916.6
899.862	1622.785	23647.1	22735.35
900.0041	1624.54	23320	22410.55
900.1462	1626.2942	22976.15	22069.7
900.2883	1628.0477	22613.25	21705.15
900.4304	1629.8005	22293.35	21380.9
900.5725	1631.5525	22036.6	21127.1
900.7145	1633.3037	21725.8	20817.55
900.8566	1635.0542	21525.5	20621.4
900.9986	1636.804	21334.55	20430.35
901.1406	1638.553	21254.1	20293.15
901.2826	1640.3013	21117	20209.45
901.4245	1642.0488	20989.9	20080.25
901.5665	1643.7955	21035.6	20131.05
901.7085	1645.5416	21003.6	20098.7
901.8504	1647.2868	21055.35	20147.2
901.9923	1649.0313	21079.7	20168.35
902.1342	1650.7751	21175.5	20262.55
902.2761	1652.5181	21263.6	20357.45
902.4179	1654.2604	21302.9	20399.6
902.5598	1656.0019	21450.8	20545.5
902.7016	1657.7427	21629.05	20722.2
902.8434	1659.4828	21829.05	20920.3
902.9852	1661.222	21944.05	21034.6
903.127	1662.9606	21879.9	20971
903.2687	1664.6984	21632.65	20721.35
903.4105	1666.4354	21284.5	20371.8
903.5522	1668.1717	20786.9	19876.1
903.6939	1669.9072	20278.1	19367.85
903.8356	1671.642	19894.75	18982.7
903.9773	1673.3761	19532.25	18625.2
904.119	1675.1094	19210.65	18302.15
904.2606	1676.8419	18981.15	18073.55
904.4022	1678.5737	18746.7	17838.5
904.5439	1680.3048	18542.35	17631.75
904.6855	1682.0351	18389.9	17481.7
904.827	1683.7646	18243.2	17331.6
904.9686	1685.4934	18133.8	17226.3
905.1101	1687.2215	18080.8	17173.35
905.2517	1688.9488	17931.35	17025.65
905.3932	1690.6754	17839.45	16933.65
905.5347	1692.4012	17804.35	16897.15
905.6761	1694.1263	17704	16796.3
905.8176	1695.8506	17631.05	16724.45
905.9591	1697.5742	17557.2	16651.05
906.1005	1699.297	17453.85	16551.5
906.2419	1701.0191	17354.4	16452
906.3833	1702.7404	17289.65	16387.3
906.5246	1704.461	17187.4	16282.6
906.666	1706.1808	17142	16236.35
906.8073	1707.8999	17105.65	16203.05
906.9487	1709.6182	17007.65	16107.55
907.09	1711.3358	16956.25	16056.85
907.2313	1713.0527	16905.85	16006.1
907.3725	1714.7688	16829.65	15921.8
907.5138	1716.4841	16731	15824.4
907.655	1718.1987	16739.85	15831.85
907.7962	1719.9126	16649.7	15749.2
907.9374	1721.6257	16575.65	15675.1
908.0786	1723.338	16548.05	15647.95
908.2198	1725.0496	16445.75	15544.25
908.3609	1726.7605	16430.3	15529.7
908.502	1728.4706	16371.05	15469.15
908.6431	1730.18	16280.3	15375.9
908.7842	1731.8886	16247.9	15348.75
908.9253	1733.5964	16227.7	15322.7
909.0664	1735.3036	16178.35	15276.6
909.2074	1737.0099	16099.35	15199.25
909.3484	1738.7156	16082.5	15182.4
909.4894	1740.4204	16030.55	15129.5
909.6304	1742.1246	15985.95	15083.05
909.7714	1743.8279	15925.75	15026.75
909.9123	1745.5306	15886.5	14985.3
910.0532	1747.2325	15830.4	14929.8
910.1941	1748.9336	15778.5	14879.75
910.335	1750.634	15746.85	14842.65
910.4759	1752.3336	15696.85	14797.9
910.6168	1754.0325	15632.15	14736.1
910.7576	1755.7307	15611.95	14714.4
910.8984	1757.4281	15596.8	14696.65
911.0392	1759.1247	15566.8	14657.75
911.18	1760.8206	15542.7	14634.8
911.3208	1762.5158	15516.25	14610.55
911.4615	1764.2102	15447.05	14545.3
911.6022	1765.9039	15402.2	14503.65
911.7429	1767.5968	15364.2	14467.75
911.8836	1769.289	15294.15	14395.15
912.0243	1770.9804	15285.45	14384.3
912.1649	1772.6711	15290.25	14385.45
912.3056	1774.361	15231.5	14330
912.4462	1776.0502	15217.7	14316.85
912.5868	1777.7386	15151	14247.7
912.7274	1779.4263	15122.95	14222.2
912.8679	1781.1132	15124.2	14227.9
913.0084	1782.7994	15017.6	14119.5
913.149	1784.4849	14977.9	14081.9
913.2895	1786.1696	14945.95	14040.75
913.4299	1787.8535	14953.3	14057.25
913.5704	1789.5367	14891	13994.85
913.7108	1791.2192	14877.6	13981.3
913.8513	1792.9009	14844.9	13915.9
913.9917	1794.5818	14794.9	13892
914.132	1796.2621	14741.15	13842.95
914.2724	1797.9415	14697.65	13798.6
914.4128	1799.6202	14679.65	13779.45
914.5531	1801.2982	14617.45	13715.15
914.6934	1802.9755	14584.35	13683.3
914.8337	1804.6519	14596.7	13697.1
914.9739	1806.3277	14563.2	13664.3
915.1142	1808.0027	14450.85	13556.4
915.2544	1809.6769	14424.1	13528.3
915.3946	1811.3504	14373.2	13476.8
915.5348	1813.0231	14366.85	13469.3
915.675	1814.6951	14357.85	13460.5
915.8151	1816.3664	14384.95	13484.85
915.9553	1818.0369	14337.7	13438.05
916.0954	1819.7067	14281.55	13383.05
916.2355	1821.3757	14255	13353.25
916.3755	1823.044	14212.1	13311.5
916.5156	1824.7115	14169.6	13269.05
916.6556	1826.3783	14116.9	13218.25
916.7956	1828.0443	14098	13200
916.9356	1829.7096	14087.5	13188.8
917.0756	1831.3741	14082	13183.45
917.2155	1833.0379	14039.25	13146.2
917.3555	1834.701	13982.55	13086.55
917.4954	1836.3633	13943.5	13049.15
917.6353	1838.0248	13892.1	12995.75
917.7751	1839.6856	13877.85	12980.75
917.915	1841.3457	13877.05	12981.7
918.0548	1843.005	13824.75	12927.35
918.1946	1844.6636	13798.4	12903.25
918.3344	1846.3214	13759.7	12861.8
918.4742	1847.9785	13736.55	12837.7
918.6139	1849.6349	13697.4	12796.05
918.7537	1851.2904	13711.35	12801.65
918.8934	1852.9453	13679.55	12778.75
919.0331	1854.5994	13634.65	12732.5
919.1727	1856.2528	13620	12714.25
919.3124	1857.9054	13606.15	12705.35
919.452	1859.5572	13575.55	12678.4
919.5916	1861.2083	13533.95	12634.65
919.7312	1862.8587	13553.05	12652.05
919.8708	1864.5084	13491	12588.55
920.0103	1866.1572	13453.75	12552.45
920.1498	1867.8054	13363.2	12459.85
920.2893	1869.4528	13404.65	12502.95
920.4288	1871.0994	13338.5	12438.25
920.5683	1872.7453	13303.4	12403.3
920.7077	1874.3905	13285.95	12380
920.8471	1876.0349	13236.35	12336.6
920.9865	1877.6786	13255.4	12353.25
921.1259	1879.3215	13192.9	12295.85
921.2653	1880.9637	13160.4	12260
921.4046	1882.6051	13132.4	12234.2
921.5439	1884.2458	13095.75	12194.35
921.6832	1885.8858	13071.05	12170.15
921.8225	1887.525	13073.2	12172.9
921.9617	1889.1634	13004	12103.75
922.101	1890.8011	12962.9	12061.65
922.2402	1892.4381	12939.45	12040.9
922.3794	1894.0743	12931.95	12033
922.5185	1895.7098	12907.05	12007.3
922.6577	1897.3446	12861.9	11962.1
922.7968	1898.9786	12835.75	11932.35
922.9359	1900.6118	12823.4	11925.9
923.075	1902.2443	12719.75	11819.7
923.214	1903.8761	12723.4	11824.5
923.3531	1905.5071	12638.2	11737.65
923.4921	1907.1374	12605.55	11707.3
923.6311	1908.7669	12604	11708.55
923.77	1910.3957	12593.8	11696.95
923.909	1912.0237	12500.45	11604.1
924.0479	1913.651	12487.95	11588.75
924.1868	1915.2776	12450.95	11553.15
924.3257	1916.9034	12389.55	11492.8
924.4646	1918.5285	12358.65	11461.85
924.6034	1920.1528	12314.4	11417.3
924.7422	1921.7764	12296.15	11398.65
924.881	1923.3992	12252.6	11356.55
925.0198	1925.0213	12173.85	11278.55
925.1586	1926.6427	12150.1	11253.65
925.2973	1928.2633	12195.05	11220.9
925.436	1929.8832	12091.55	11190.4
925.5747	1931.5023	12027.45	11131.2
925.7134	1933.1207	12015.45	11117.4
925.852	1934.7383	11987.05	11090
925.9906	1936.3552	11938.55	11041.85
926.1292	1937.9714	11914.4	11018.7
926.2678	1939.5868	11862.45	10961.3
926.4064	1941.2015	11812.3	10912.9
926.5449	1942.8154	11777.55	10876.75
926.6834	1944.4286	11701.3	10803.25
926.8219	1946.041	11712.4	10791.2
926.9604	1947.6528	11617	10714.3
927.0988	1949.2637	11598.75	10700.35
927.2372	1950.8739	11580.95	10682.6
927.3756	1952.4834	11551.75	10656.45
927.514	1954.0921	11535.6	10637.75
927.6523	1955.7001	11494.2	10591.6
927.7907	1957.3074	11455.95	10560.45
927.929	1958.9139	11409.4	10515.95
928.0673	1960.5197	11373.6	10477.1
928.2055	1962.1247	11307.2	10415.2
928.3438	1963.729	11280.45	10387.15
928.482	1965.3325	11255.35	10338.95
928.6202	1966.9353	11214.6	10320.45
928.7584	1968.5374	11196.55	10299.85
928.8965	1970.1387	11142.9	10247.8
929.0346	1971.7393	11096.85	10203.15
929.1727	1973.3392	11086.95	10193.95
929.3108	1974.9383	11036.9	10144.6
929.4489	1976.5366	10990.15	10097.45
929.5869	1978.1342	10972.05	10079.8
929.7249	1979.7311	10944	10048.65
929.8629	1981.3273	10898.45	10004.65
930.0009	1982.9227	10882.2	9989.85
930.1388	1984.5173	10822.7	9931.1
930.2767	1986.1112	10809.4	9919.2
930.4146	1987.7044	10795.65	9903.6
930.5525	1989.2968	10749.15	9857.15
930.6904	1990.8885	10743.85	9848.75
930.8282	1992.4795	10717.6	9824.75
930.966	1994.0697	10660.95	9770.4
931.1038	1995.6592	10654	9762.05
931.2415	1997.2479	10608.2	9716.35
931.3793	1998.8359	10584.45	9695.15
931.517	2000.4232	10555.65	9667.45
931.6547	2002.0097	10494.25	9609.65
931.7923	2003.5955	10450.95	9561.35
931.93	2005.1805	10458.4	9567.95
932.0676	2006.7648	10447.25	9556.45
932.2052	2008.3484	10387.05	9495.45
932.3427	2009.9312	10366.15	9475.45
932.4803	2011.5133	10330.4	9446.05
932.6178	2013.0946	10308.95	9419.9
932.7553	2014.6752	10292.6	9406.3
932.8928	2016.2551	10275.75	9387.45
933.0302	2017.8342	10211.85	9322.5
933.1676	2019.4126	10190.8	9303.35
933.305	2020.9902	10139.05	9251.85
933.4424	2022.5672	10122.95	9235.75
933.5798	2024.1433	10116.75	9224.15
933.7171	2025.7188	10080.3	9194.95
933.8544	2027.2935	10052.5	9165.65
933.9917	2028.8674	10010.8	9125.6
934.129	2030.4406	9982.4	9097.45
934.2662	2032.0131	9947.6	9062.8
934.4034	2033.5849	9927.05	9037.65
934.5406	2035.1559	9914.2	9025.65
934.6778	2036.7261	9882.35	8993.85
934.8149	2038.2957	9863.35	8973.25
934.952	2039.8645	9830.4	8938.4
935.0891	2041.4325	9838.55	8943.85
935.2262	2042.9998	9807.05	8918.05
935.3632	2044.5664	9781.3	8891.4
935.5002	2046.1323	9738.15	8852.45
935.6372	2047.6974	9712.8	8825.85
935.7742	2049.2617	9670.1	8783.5
935.9111	2050.8254	9684.4	8771.6
936.048	2052.3883	9641.45	8751.3
936.1849	2053.9504	9650.55	8760.4
936.3218	2055.5118	9595.35	8706
936.4586	2057.0725	9544	8650.5
936.5955	2058.6325	9523.15	8633.6
936.7323	2060.1917	9500.95	8614.6
936.869	2061.7502	9491	8601.55
937.0058	2063.3079	9460.5	8573.55
937.1425	2064.8649	9404.9	8514.45
937.2792	2066.4212	9425.35	8536
937.4159	2067.9767	9370.25	8483.4
937.5525	2069.5315	9337.25	8448.6
937.6891	2071.0856	9317.75	8429.8
937.8257	2072.6389	9287.9	8399.2
937.9623	2074.1915	9228.85	8342.65
938.0989	2075.7433	9199.2	8311.25
938.2354	2077.2945	9174.45	8288.95
938.3719	2078.8448	9162.35	8273.05
938.5084	2080.3945	9122.4	8234.15
938.6448	2081.9434	9128.95	8237.35
938.7812	2083.4916	9104.35	8211.3
938.9176	2085.039	9084.8	8187.45
939.054	2086.5857	9053.3	8155.7
939.1903	2088.1317	9028.95	8134.4
939.3267	2089.677	9006.35	8110.3
939.463	2091.2215	8978.3	8082.45
939.5992	2092.7652	8957.15	8058.6
939.7355	2094.3083	8931.65	8035.9
939.8717	2095.8506	8923.2	8031.2
940.0079	2097.3921	8942.3	8051.35
940.1441	2098.933	8885.9	7995.45
940.2802	2100.4731	8861.05	7969.95
940.4163	2102.0124	8866.6	7965.5
940.5524	2103.5511	8836.2	7943.3
940.6885	2105.089	8818.2	7925.3
940.8245	2106.6261	8806.8	7915.85
940.9606	2108.1626	8752	7857.55
941.0965	2109.6983	8783.05	7863.7
941.2325	2111.2332	8711.7	7818.35
941.3684	2112.7675	8684.3	7791.1
941.5044	2114.301	8665.95	7770.8
941.6403	2115.8337	8656.1	7763.85
941.7761	2117.3657	8635.7	7744.9
941.912	2118.897	8633.8	7738.75
942.0478	2120.4276	8602.25	7701.9
942.1835	2121.9575	8555.5	7661
942.3193	2123.4866	8568.25	7672.4
942.455	2125.0149	8534.7	7641
942.5907	2126.5426	8479.35	7588.2
942.7264	2128.0695	8477	7586.75
942.8621	2129.5956	8452.5	7566.25
942.9977	2131.1211	8449.45	7557.6
943.1333	2132.6458	8414.35	7524.3
943.2689	2134.1698	8384.9	7490.5
943.4044	2135.693	8369.1	7468.7
943.54	2137.2155	8334	7436.8
943.6755	2138.7373	8336.25	7443.75
943.8109	2140.2584	8303.45	7415.25
943.9464	2141.7787	8276.3	7383.7
944.0818	2143.2983	8243.5	7357.45
944.2172	2144.8171	8201.8	7316.8
944.3526	2146.3353	8207.25	7316.8
944.4879	2147.8527	8198.55	7309.25
944.6232	2149.3693	8166.05	7273.15
944.7585	2150.8853	8127.8	7232.85
944.8938	2152.4005	8105.1	7210.45
945.029	2153.9149	8113.1	7216.9
945.1642	2155.4287	8133.8	7140.3
945.2994	2156.9417	8079.4	7185
945.4346	2158.454	8027.35	7136.7
945.5697	2159.9655	7996.5	7109.55
945.7048	2161.4764	7986.75	7096
945.8399	2162.9865	7951.2	7060.45
945.9749	2164.4958	7947.95	7057.6
946.1099	2166.0045	7932.5	7039.5
946.2449	2167.5124	7919.25	7027.35
946.3799	2169.0195	7894.8	7001.35
946.5148	2170.526	7871	6977.15
946.6498	2172.0317	7842.8	6950.7
946.7846	2173.5367	7829.4	6939.55
946.9195	2175.0409	7814.65	6927.45
947.0543	2176.5445	7804.6	6910.25
947.1891	2178.0473	7796.95	6902.9
947.3239	2179.5494	7742.55	6844.3
947.4587	2181.0507	7735.25	6843
947.5934	2182.5513	7696.3	6805.05
947.7281	2184.0512	7676.9	6784.65
947.8628	2185.5504	7676.25	6785
947.9974	2187.0488	7620.3	6730.5
948.132	2188.5465	7587.7	6696.05
948.2666	2190.0435	7574.25	6685.2
948.4012	2191.5397	7540	6646.15
948.5357	2193.0353	7550.1	6656.85
948.6702	2194.5301	7502.1	6604.55
948.8047	2196.0241	7483.25	6585.1
948.9392	2197.5175	7483.2	6586.6
949.0736	2199.0101	7445.95	6545.05
949.208	2200.502	7396.75	6503.95
949.3424	2201.9931	7404.15	6512.15
949.4767	2203.4835	7370.2	6480.55
949.611	2204.9733	7352.95	6446.75
949.7453	2206.4622	7319.5	6430.2
949.8796	2207.9505	7307.4	6417.3
950.0138	2209.438	7251.4	6364.4
950.148	2210.9248	7222	6331.8
950.2822	2212.4109	7215.85	6324.9
950.4164	2213.8962	7206.1	6307.75
950.5505	2215.3809	7176.85	6279.45
950.6846	2216.8648	7159.5	6262
950.8186	2218.3479	7156.3	6254.6
950.9527	2219.8304	7135.35	6235.85
951.0867	2221.3121	7115.6	6216.85
951.2207	2222.7931	7075.25	6179.35
951.3546	2224.2733	7076.45	6181.35
951.4886	2225.7529	7042.9	6149.3
951.6225	2227.2317	7003	6110.95
951.7563	2228.7098	6997.65	6107.15
951.8902	2230.1872	6961.85	6072.65
952.024	2231.6638	6952.1	6063
952.1578	2233.1397	6935.8	6041.6
952.2916	2234.6149	6903.5	6011.4
952.4253	2236.0894	6886.55	5995.85
952.559	2237.5632	6876.3	5983.85
952.6927	2239.0362	6847.7	5956.15
952.8263	2240.5085	6846.6	5955.3
952.9599	2241.9801	6826.65	5931.2
953.0935	2243.4509	6791.9	5898.4
953.2271	2244.921	6778.65	5882.9
953.3606	2246.3904	6758.05	5861.35
953.4941	2247.8591	6722.3	5829.2
953.6276	2249.3271	6698.85	5804.4
953.7611	2250.7943	6685.6	5791.65
953.8945	2252.2608	6662.75	5768.9
954.0279	2253.7266	6646.15	5751.65
954.1612	2255.1917	6640	5746.05
954.2946	2256.656	6619.55	5725.8
954.4279	2258.1197	6594.95	5704.4
954.5612	2259.5826	6573.85	5679
954.6944	2261.0447	6559.6	5664.45
954.8276	2262.5062	6552.6	5657.6
954.9608	2263.9669	6540.8	5643.4
955.094	2265.4269	6520.3	5626.95
955.2271	2266.8862	6506.2	5611.6
955.3602	2268.3448	6484.6	5592.8
955.4933	2269.8026	6462.3	5569.7
955.6264	2271.2598	6454.25	5561.95
955.7594	2272.7162	6430.1	5537.6
955.8924	2274.1719	6412.9	5519.35
956.0253	2275.6268	6402	5506.3
956.1583	2277.0811	6407.45	5513.9
956.2912	2278.5346	6366.65	5472.7
956.4241	2279.9874	6365.65	5474.6
956.5569	2281.4395	6344.35	5454.7
956.6897	2282.8908	6326.1	5429.55
956.8225	2284.3414	6303.8	5410.65
956.9553	2285.7914	6293.7	5401.2
957.088	2287.2406	6269.7	5373.65
957.2207	2288.689	6270.7	5375.6
957.3534	2290.1368	6264.25	5364.3
957.486	2291.5838	6232.15	5332.75
957.6186	2293.0302	6216.9	5318.75
957.7512	2294.4758	6171.15	5275
957.8838	2295.9206	6166	5267.85
958.0163	2297.3648	6168.5	5276.65
958.1488	2298.8082	6160.75	5268.2
958.2813	2300.251	6134.9	5239.3
958.4137	2301.693	6106.55	5209
958.5461	2303.1343	6105	5209.8
958.6785	2304.5748	6068.2	5176.1
958.8108	2306.0147	6047.4	5154.8
958.9432	2307.4538	6052.1	5159.55
959.0754	2308.8922	6030.35	5139.05
959.2077	2310.3299	5989.85	5099.55
959.3399	2311.7669	6002.25	5111.65
959.4721	2313.2031	5966.4	5072.9
959.6043	2314.6387	5966.9	5072.7
959.7365	2316.0735	5928.65	5033.9
959.8686	2317.5076	5934.25	5038.75
960.0006	2318.941	5906.6	5012.9
960.1327	2320.3737	5888.35	4994.1
960.2647	2321.8056	5880.5	4981.45
960.3967	2323.2369	5863.05	4967.35
960.5287	2324.6674	5848.65	4952.2
960.6606	2326.0972	5827.85	4933.05
960.7925	2327.5263	5820.45	4926.2
960.9244	2328.9547	5803.25	4907.35
961.0562	2330.3823	5771.9	4875.2
961.1881	2331.8092	5790	4889.05
961.3198	2333.2355	5753.3	4855.45
961.4516	2334.661	5746.45	4849.25
961.5833	2336.0858	5718	4821.55
961.715	2337.5098	5704.05	4808.65
961.8467	2338.9332	5691.5	4797
961.9783	2340.3558	5670.8	4774.15
962.1099	2341.7778	5653.95	4762.1
962.2415	2343.199	5634.25	4740.7
962.373	2344.6195	5632.55	4739.55
962.5045	2346.0393	5620.2	4726.9
962.636	2347.4583	5616.75	4722.35
962.7675	2348.8767	5594.4	4697.75
962.8989	2350.2943	5595.15	4697.15
963.0303	2351.7113	5602.3	4703.95
963.1617	2353.1275	5555.45	4656.1
963.293	2354.543	5554.25	4631.65
963.4243	2355.9578	5539.55	4643.3
963.5556	2357.3718	5499.75	4606.15
963.6868	2358.7852	5481.3	4584.75
963.818	2360.1978	5450.8	4555.85
963.9492	2361.6098	5468.2	4572.75
964.0803	2363.021	5439.9	4541.35
964.2114	2364.4315	5425	4531.85
964.3425	2365.8413	5408.6	4514.4
964.4736	2367.2504	5401.25	4507.7
964.6046	2368.6587	5355.9	4462.1
964.7356	2370.0664	5361.2	4467.15
964.8666	2371.4733	5346.55	4452.65
964.9975	2372.8795	5328.7	4435.05
965.1284	2374.285	5305.95	4411.65
965.2593	2375.6899	5279.45	4384.35
965.3901	2377.0939	5259.65	4366.95
965.5209	2378.4973	5252.75	4359.25
965.6517	2379.9	5246.7	4353.6
965.7825	2381.3019	5222.05	4330.1
965.9132	2382.7032	5199.7	4309.7
966.0439	2384.1037	5179.7	4290.35
966.1745	2385.5035	5185.4	4293.45
966.3051	2386.9027	5139.75	4252.15
966.4357	2388.3011	5149.35	4256.4
966.5663	2389.6987	5137.85	4244.95
966.6968	2391.0957	5119.75	4228.8
966.8273	2392.492	5100.65	4208.55
966.9578	2393.8876	5081.7	4189.5
967.0882	2395.2824	5055.5	4163.8
967.2186	2396.6765	5042.25	4148.15
967.349	2398.07	5033.85	4139.35
967.4793	2399.4627	5032.6	4138.3
967.6097	2400.8547	5019.65	4125.55
967.7399	2402.246	5014.75	4115.8
967.8702	2403.6366	4979.5	4085.25
968.0004	2405.0265	4940.9	4050.25
968.1306	2406.4156	4932.4	4037.45
968.2607	2407.8041	4938	4041.1
968.3909	2409.1918	4906.35	4009.75
968.521	2410.5789	4896.4	4001.55
968.651	2411.9652	4867.6	3971.9
968.781	2413.3508	4846.3	3951.65
968.911	2414.7358	4847.15	3950.65
969.041	2416.12	4825.35	3933.3
969.1709	2417.5035	4808.25	3917.4
969.3008	2418.8863	4790.25	3897.5
969.4307	2420.2684	4807.75	3915.8
969.5606	2421.6497	4764	3870.7
969.6904	2423.0304	4741.45	3846.95
969.8201	2424.4104	4734.8	3839.15
969.9499	2425.7896	4717.45	3821.7
970.0796	2427.1682	4713.1	3821
970.2093	2428.546	4697.3	3801.9
970.3389	2429.9232	4680.7	3786.65
970.4685	2431.2996	4679.2	3785.05
970.5981	2432.6753	4661.05	3767.75
970.7277	2434.0503	4651.3	3757.55
970.8572	2435.4246	4636.7	3741.45
970.9867	2436.7982	4616.35	3720
971.1161	2438.1711	4615.1	3720.75
971.2456	2439.5433	4610.5	3715.65
971.375	2440.9148	4587.7	3687.8
971.5043	2442.2856	4555.15	3662.2
971.6336	2443.6557	4562.8	3667.25
971.7629	2445.025	4545.85	3652.4
971.8922	2446.3937	4529.85	3632.9
972.0214	2447.7617	4517.85	3625.1
972.1506	2449.1289	4515	3622.4
972.2798	2450.4955	4504.25	3606.15
972.4089	2451.8613	4484.55	3593
972.538	2453.2265	4472.9	3579.15
972.6671	2454.5909	4464.4	3570.75
972.7961	2455.9546	4459.45	3566.15
972.9251	2457.3177	4447	3552.45
973.0541	2458.68	4424.2	3529.5
973.1831	2460.0416	4427.75	3533.05
973.312	2461.4025	4422.5	3524.6
973.4408	2462.7627	4410.75	3506.4
973.5697	2464.1222	4383.7	3492.15
973.6985	2465.4811	4383.8	3492.7
973.8273	2466.8392	4360.35	3468.45
973.956	2468.1966	4345.5	3449.7
974.0847	2469.5533	4356.5	3460.95
974.2134	2470.9093	4354.35	3461.5
974.3421	2472.2645	4337.5	3443.95
974.4707	2473.6191	4322.9	3428.05
974.5993	2474.973	4304.15	3410.85
974.7278	2476.3262	4291.1	3397.35
974.8563	2477.6787	4289.3	3395.7
974.9848	2479.0305	4271	3379.15
975.1132	2480.3816	4247.4	3353.15
975.2417	2481.7319	4251.1	3358.15
975.37	2483.0816	4223.6	3328.75
975.4984	2484.4306	4203.55	3307.5
975.6267	2485.7789	4196.4	3304.8
975.755	2487.1264	4191.65	3299
975.8833	2488.4733	4167.4	3275.35
976.0115	2489.8195	4164.45	3254.75
976.1397	2491.165	4153.85	3258.5
976.2678	2492.5097	4132.35	3237.9
976.3959	2493.8538	4116.35	3224
976.524	2495.1972	4103.15	3212.7
976.6521	2496.5398	4084.45	3190.85
976.7801	2497.8818	4079.75	3183.7
976.9081	2499.2231	4068.05	3172.15
977.036	2500.5637	4046.9	3150.1
977.164	2501.9035	4043.8	3148.95
977.2918	2503.2427	4042.85	3143.15
977.4197	2504.5812	4032.9	3140.35
977.5475	2505.919	4034.45	3139.8
977.6753	2507.256	4013.7	3119.85
977.8031	2508.5924	3991.5	3097.45
977.9308	2509.9281	3987.15	3086.8
978.0585	2511.2631	3968.4	3075
978.1861	2512.5974	3966.3	3073.2
978.3137	2513.9309	3959.2	3066.2
978.4413	2515.2638	3966.85	3046.05
978.5689	2516.596	3936	3043.6
978.6964	2517.9275	3914.8	3020.9
978.8239	2519.2583	3906.75	3013.2
978.9513	2520.5884	3899.05	3004.8
979.0788	2521.9178	3884.95	2991.25
979.2062	2523.2465	3862.25	2969.1
979.3335	2524.5745	3861.8	2970.5
979.4608	2525.9018	3838.9	2947.2
979.5881	2527.2284	3844.2	2951.3
979.7154	2528.5543	3833.45	2941.2
979.8426	2529.8796	3813.55	2919
979.9698	2531.2041	3813	2918.25
980.0969	2532.5279	3808.8	2916.15
980.224	2533.851	3797.85	2905.5
980.3511	2535.1735	3789.55	2896.85
980.4781	2536.4952	3804.05	2911.15
980.6052	2537.8163	3773.55	2878.5
980.7321	2539.1366	3783.5	2888.6
980.8591	2540.4562	3769.9	2874.7
980.986	2541.7752	3755.2	2861.4
981.1129	2543.0935	3744.1	2851.4
981.2397	2544.411	3753.2	2856.75
981.3665	2545.7279	3745.5	2850.3
981.4933	2547.0441	3740	2844.05
981.62	2548.3596	3733.3	2835.95
981.7467	2549.6744	3717.75	2826.55
981.8734	2550.9885	3707.25	2811.5
982.0001	2552.3019	3685.9	2791.45
982.1267	2553.6146	3691.95	2797.95
982.2532	2554.9266	3686.3	2793.2
982.3798	2556.2379	3678.3	2784.55
982.5063	2557.5485	3663.8	2771
982.6327	2558.8585	3656.5	2755.4
982.7592	2560.1677	3658.5	2757.15
982.8856	2561.4762	3639.1	2744.45
983.0119	2562.7841	3638.5	2742.85
983.1383	2564.0913	3630.3	2736.55
983.2646	2565.3977	3632.8	2738.9
983.3908	2566.7035	3606.85	2713.15
983.517	2568.0086	3613.15	2718.55
983.6432	2569.313	3607.05	2711
983.7694	2570.6167	3597.4	2700.05
983.8955	2571.9197	3594.4	2701.25
984.0216	2573.222	3586.9	2689.75
984.1476	2574.5236	3582.15	2688.65
984.2737	2575.8246	3575.25	2678.75
984.3996	2577.1248	3572.75	2674.4
984.5256	2578.4244	3552.8	2661
984.6515	2579.7232	3549.6	2654.9
984.7774	2581.0214	3564.95	2640.9
984.9032	2582.3189	3542.55	2647
985.029	2583.6157	3552.25	2653.45
985.1548	2584.9118	3538.55	2643.45
985.2806	2586.2072	3519.4	2625.15
985.4063	2587.5019	3525.75	2631.3
985.5319	2588.7959	3511.2	2616.8
985.6576	2590.0893	3506.45	2610.9
985.7832	2591.3819	3512.55	2619.45
985.9087	2592.6739	3487.5	2594.15
986.0343	2593.9652	3482.85	2587.05
986.1597	2595.2557	3464.5	2569.5
986.2852	2596.5456	3460.6	2564.3
986.4106	2597.8348	3445.75	2553.2
986.536	2599.1234	3444.55	2552.45
986.6614	2600.4112	3444.05	2552.6
986.7867	2601.6983	3426.95	2530.5
986.912	2602.9848	3416.55	2523.05
987.0372	2604.2705	3407.6	2508.85
987.1624	2605.5556	3396.85	2503
987.2876	2606.84	3406.7	2515.7
987.4128	2608.1237	3387.75	2493.2
987.5379	2609.4067	3364.65	2471.05
987.6629	2610.689	3353.35	2450.55
987.788	2611.9707	3338.2	2442.3
987.913	2613.2516	3341.15	2443.3
988.0379	2614.5319	3327.75	2435.7
988.1629	2615.8115	3317.8	2424.7
988.2878	2617.0903	3323.9	2430.8
988.4126	2618.3685	3302	2406.95
988.5375	2619.6461	3296.05	2402.45
988.6622	2620.9229	3280.35	2388.15
988.787	2622.199	3274.35	2381.35
988.9117	2623.4745	3268.7	2376
989.0364	2624.7493	3246.2	2352.8
989.161	2626.0234	3254.1	2363.65
989.2857	2627.2968	3241.05	2348.9
989.4102	2628.5695	3235.1	2341.75
989.5348	2629.8415	3216.7	2324.8
989.6593	2631.1128	3212.2	2318.7
989.7837	2632.3835	3199.65	2308.35
989.9082	2633.6535	3197.05	2306.15
990.0326	2634.9228	3174.9	2283.7
990.1569	2636.1914	3182.1	2291.2
990.2812	2637.4593	3176.6	2281.6
990.4055	2638.7265	3163.2	2271.2
990.5298	2639.9931	3144.2	2251
990.654	2641.259	3159.6	2267.85
990.7782	2642.5242	3137.05	2243.9
990.9023	2643.7887	3127.25	2233.5
991.0264	2645.0525	3122.5	2230.75
991.1505	2646.3156	3113.6	2207.4
991.2745	2647.5781	3102.4	2209.85
991.3985	2648.8398	3101.3	2210.45
991.5225	2650.1009	3107.8	2190.05
991.6464	2651.3613	3077.65	2186.65
991.7703	2652.6211	3080.7	2187.3
991.8942	2653.8801	3074.15	2181.45
992.018	2655.1385	3059.2	2164.45
992.1418	2656.3961	3055.7	2163.2
992.2655	2657.6531	3053.6	2159.35
992.3892	2658.9094	3043.45	2151.05
992.5129	2660.1651	3034.6	2143.3
992.6366	2661.42	3046.3	2156.2
992.7602	2662.6743	3033.55	2143.15
992.8837	2663.9279	3025.1	2133.7
993.0073	2665.1808	3019.5	2128.15
993.1307	2666.433	3007.15	2112.3
993.2542	2667.6846	3027.05	2134.95
993.3776	2668.9354	3010.5	2115.5
993.501	2670.1856	2999.4	2106.45
993.6244	2671.4351	2999.45	2108.2
993.7477	2672.6839	2996.7	2102.95
993.8709	2673.9321	2983.4	2092.6
993.9942	2675.1795	2974.35	2084.25
994.1174	2676.4263	2989.3	2097.25
994.2405	2677.6724	2975.4	2084.2
994.3637	2678.9179	2967.75	2073.85
994.4868	2680.1626	2962.2	2070.3
994.6098	2681.4067	2961.1	2070.15
994.7328	2682.6501	2948.6	2057.55
994.8558	2683.8928	2946.1	2055.15
994.9788	2685.1348	2939.6	2047.45
995.1017	2686.3761	2914.5	2022.95
995.2245	2687.6168	2913.9	2023.1
995.3474	2688.8568	2912.75	2020.75
995.4702	2690.0961	2892.85	2000.65
995.5929	2691.3348	2899.5	2007.35
995.7156	2692.5727	2879.55	1989.65
995.8383	2693.81	2877.85	1985.4
995.961	2695.0466	2862.25	1972.4
996.0836	2696.2826	2865.4	1973.2
996.2062	2697.5178	2870.85	1977.45
996.3287	2698.7524	2851.7	1959.95
996.4512	2699.9863	2853.5	1958.25
996.5737	2701.2195	2844.65	1952.8
996.6961	2702.452	2845.85	1951.1
996.8185	2703.6839	2841.45	1948.25
996.9408	2704.9151	2831.4	1941.4
997.0631	2706.1456	2826.1	1935.55
997.1854	2707.3755	2822.3	1931.25
997.3077	2708.6046	2833.6	1938.5
997.4299	2709.8331	2827.5	1932.4
997.552	2711.0609	2825.8	1935.7
997.6742	2712.2881	2815.6	1923.05
997.7963	2713.5145	2823.55	1929.75
997.9183	2714.7403	2824.45	1934.45
998.0403	2715.9654	2818.2	1926.25
998.1623	2717.1899	2840.5	1933.05
998.2842	2718.4136	2834.65	1943.7
998.4062	2719.6367	2835.15	1943.65
998.528	2720.8591	2845.65	1946.75
998.6498	2722.0809	2839.3	1948.9
998.7716	2723.3019	2840.65	1947.25
998.8934	2724.5223	2844.15	1951
999.0151	2725.7421	2836.2	1943.7
999.1368	2726.9611	2838.8	1944.45
999.2584	2728.1795	2824.85	1928.5
999.38	2729.3972	2807.45	1916.65
999.5016	2730.6142	2814.15	1915.9
999.6231	2731.8306	2776	1884.8
999.7446	2733.0462	2765.45	1872.15
999.8661	2734.2612	2755.7	1858.6
999.9875	2735.4756	2730.1	1838.75
1000.1089	2736.6892	2711.8	1822.2
1000.2302	2737.9022	2688.25	1798.5
1000.3515	2739.1145	2690.55	1800.55
1000.4728	2740.3262	2663.05	1764.3
1000.594	2741.5372	2637.9	1745.55
1000.7152	2742.7475	2631.9	1740.65
1000.8363	2743.9571	2621.9	1729
1000.9575	2745.1661	2630.45	1736.35
1001.0785	2746.3744	2602.5	1711.25
1001.1996	2747.582	2592.7	1701.75
1001.3206	2748.7889	2575.4	1683
1001.4415	2749.9952	2570.05	1680.6
1001.5625	2751.2008	2553.7	1663.05
1001.6833	2752.4057	2545.65	1651.85
1001.8042	2753.61	2540.25	1647.55
1001.925	2754.8136	2540.05	1647.65
1002.0458	2756.0165	2540.45	1652.85
1002.1665	2757.2188	2522.75	1634.85
1002.2872	2758.4204	2512.4	1624.3
1002.4078	2759.6213	2507.35	1615.25
1002.5285	2760.8215	2521.25	1627.25
1002.649	2762.0211	2497.65	1605.35
1002.7696	2763.22	2501.75	1607.5
1002.8901	2764.4182	2497	1604.85
1003.0106	2765.6158	2474.4	1585.1
1003.131	2766.8127	2485.1	1595.05
1003.2514	2768.009	2474.95	1586.6
1003.3717	2769.2045	2470.85	1578.55
1003.492	2770.3994	2462.2	1568.25
1003.6123	2771.5936	2464.2	1573.45
1003.7325	2772.7872	2436.9	1548.3
1003.8527	2773.9801	2427.8	1535.85
1003.9729	2775.1723	2434.6	1526.15
1004.093	2776.3639	2423.3	1534.2
1004.2131	2777.5548	2412.55	1520.1
1004.3331	2778.745	2416.9	1524.95
1004.4531	2779.9346	2408.55	1519.8
1004.5731	2781.1235	2412.65	1522.65
1004.693	2782.3117	2398.05	1507.85
1004.8129	2783.4992	2397.85	1508.1
1004.9328	2784.6861	2397.25	1507.2
1005.0526	2785.8723	2405.7	1515.55
1005.1723	2787.0579	2392.5	1502.95
1005.2921	2788.2428	2397.8	1509.5
1005.4118	2789.427	2396.85	1506.75
1005.5314	2790.6106	2392.45	1502.85
1005.651	2791.7935	2384.65	1494.9
1005.7706	2792.9757	2397.5	1509.25
1005.8902	2794.1573	2390.85	1498.5
1006.0097	2795.3382	2399.9	1509.15
1006.1291	2796.5184	2401.45	1514.6
1006.2485	2797.698	2400.65	1509.3
1006.3679	2798.8769	2416.2	1526.55
1006.4873	2800.0551	2417.55	1529.15
1006.6066	2801.2327	2415.75	1524.9
1006.7258	2802.4096	2416.5	1528.45
1006.8451	2803.5859	2426.95	1537.25
1006.9642	2804.7615	2435.25	1545
1007.0834	2805.9364	2448.3	1561.5
1007.2025	2807.1106	2449.05	1559.3
1007.3216	2808.2842	2482.5	1591.8
1007.4406	2809.4572	2502.95	1614.8
1007.5596	2810.6294	2514.2	1621.95
1007.6785	2811.801	2541	1655.1
1007.7975	2812.972	2572.3	1684
1007.9163	2814.1423	2589	1699.9
1008.0352	2815.3119	2609.25	1720.55
1008.154	2816.4808	2661.7	1773.9
1008.2727	2817.6491	2687.55	1797.65
1008.3914	2818.8167	2736.85	1849.55
1008.5101	2819.9837	2780.8	1886.8
1008.6288	2821.15	2817.3	1928.3
1008.7474	2822.3157	2837.65	1949
1008.8659	2823.4807	2897.5	2006.95
1008.9844	2824.645	2949.4	2058.25
1009.1029	2825.8086	2984.65	2096.9
1009.2214	2826.9716	3018.9	2133.35
1009.3398	2828.134	3058.3	2169.35
1009.4581	2829.2957	3101.45	2212.95
1009.5764	2830.4567	3126.45	2239.3
1009.6947	2831.617	3128.5	2240.15
1009.813	2832.7767	3141.85	2252.2
1009.9312	2833.9358	3136.5	2249.4
1010.0493	2835.0941	3131.65	2243.05
1010.1675	2836.2519	3130.95	2240.6
1010.2855	2837.4089	3098.5	2209.8
1010.4036	2838.5653	3091.75	2204.6
1010.5216	2839.7211	3063.75	2177.7
1010.6396	2840.8761	3076.4	2187.65
1010.7575	2842.0306	3065.2	2177.45
1010.8754	2843.1843	3088	2199.5
1010.9932	2844.3374	3117.15	2228.65
1011.111	2845.4899	3151	2261.65
1011.2288	2846.6417	3176.5	2288.85
1011.3465	2847.7928	3235.1	2345.55
1011.4642	2848.9433	3270.85	2382.6
1011.5818	2850.0931	3321.6	2432.4
1011.6995	2851.2422	3367.6	2477.15
1011.817	2852.3907	3425.55	2537.05
1011.9345	2853.5385	3459.25	2568.9
1012.052	2854.6857	3495.85	2599.2
1012.1695	2855.8323	3539.4	2653
1012.2869	2856.9781	3568.9	2680.4
1012.4042	2858.1233	3616.3	2729.85
1012.5216	2859.2679	3643.75	2755.85
1012.6389	2860.4118	3682.35	2793.9
1012.7561	2861.555	3718.65	2825.45
1012.8733	2862.6976	3743.7	2852.2
1012.9905	2863.8395	3769.1	2880.5
1013.1076	2864.9808	3780.95	2893.85
1013.2247	2866.1214	3797.8	2910.6
1013.3417	2867.2614	3812.85	2925.85
1013.4587	2868.4007	3832.95	2943.5
1013.5757	2869.5393	3826.95	2936.05
1013.6926	2870.6773	3843.1	2950.65
1013.8095	2871.8146	3854.3	2963.4
1013.9263	2872.9513	3841.05	2950.55
1014.0431	2874.0874	3823.65	2936.4
1014.1599	2875.2227	3817.3	2929.3
1014.2766	2876.3574	3796	2909.35
1014.3933	2877.4915	3762.55	2875.6
1014.51	2878.6249	3750.3	2861.7
1014.6266	2879.7577	3721.5	2832.4
1014.7431	2880.8898	3718.75	2817.7
1014.8596	2882.0212	3686.1	2800.5
1014.9761	2883.152	3683.2	2793.35
1015.0925	2884.2821	3668.4	2781.9
1015.2089	2885.4116	3669.8	2783.55
1015.3253	2886.5405	3650.85	2763.75
1015.4416	2887.6686	3662.85	2771.85
1015.5579	2888.7962	3656.55	2768.05
1015.6741	2889.923	3650.55	2763.8
1015.7903	2891.0493	3668	2782.05
1015.9065	2892.1748	3666.85	2779.3
1016.0226	2893.2997	3670.85	2782.75
1016.1387	2894.424	3691.6	2806.9
1016.2547	2895.5476	3693.6	2807
1016.3707	2896.6706	3700.9	2814.45
1016.4866	2897.7929	3719.3	2831.4
1016.6025	2898.9145	3747.95	2860.55
1016.7184	2900.0355	3742.25	2853.25
1016.8342	2901.1559	3768	2878.75
1016.95	2902.2756	3793.8	2908.1
1017.0658	2903.3946	3811	2923.8
1017.1815	2904.513	3833.05	2942.7
1017.2971	2905.6308	3834.15	2948.2
1017.4127	2906.7479	3850.15	2962
1017.5283	2907.8643	3890.85	3004.75
1017.6439	2908.9801	3892.95	3007.05
1017.7594	2910.0953	3901.55	3014.8
1017.8748	2911.2098	3899.3	3007.3
1017.9902	2912.3236	3884.8	2990.9
1018.1056	2913.4368	3858.15	2968.85
1018.2209	2914.5494	3846.2	2958.3
1018.3362	2915.6613	3803.2	2914.25
1018.4515	2916.7725	3793	2903.1
1018.5667	2917.8831	3768.05	2880.45
1018.6819	2918.9931	3734.85	2844.4
1018.797	2920.1024	3716.65	2826.85
1018.9121	2921.211	3694.8	2806.3
1019.0271	2922.319	3676.75	2788
1019.1421	2923.4264	3660.15	2771.15
1019.2571	2924.5331	3652.5	2767.35
1019.372	2925.6391	3648.25	2761.8
1019.4869	2926.7445	3640.2	2754.75
1019.6017	2927.8493	3627.55	2740.35
1019.7165	2928.9534	3629.25	2741.55
1019.8313	2930.0569	3639.35	2749.2
1019.946	2931.1597	3631.8	2743.15
1020.0606	2932.2619	3640.45	2756.05
1020.1753	2933.3634	3629	2740.65
1020.2899	2934.4643	3637.55	2745.3
1020.4044	2935.5645	3621.2	2728.35
1020.5189	2936.6641	3610.7	2719.8
1020.6334	2937.763	3571.45	2685.8
1020.7478	2938.8613	3543.25	2657.1
1020.8622	2939.959	3507.85	2614.6
1020.9765	2941.056	3454.5	2569.15
1021.0908	2942.1523	3392.05	2503.95
1021.2051	2943.248	3325.55	2437.7
1021.3193	2944.3431	3248.25	2361.8
1021.4334	2945.4375	3160.5	2273.5
1021.5476	2946.5313	3085.95	2200.75
1021.6617	2947.6244	3005.6	2119.3
1021.7757	2948.7169	2918	2029.7
1021.8897	2949.8087	2852.3	1962.4
1022.0037	2950.8999	2777.45	1891.3
1022.1176	2951.9904	2708.7	1821.45
1022.2315	2953.0803	2656	1770.3
1022.3453	2954.1696	2597.45	1710
1022.4591	2955.2582	2554.2	1668.65
1022.5728	2956.3462	2510.35	1621.3
1022.6865	2957.4335	2477.25	1590.8
1022.8002	2958.5202	2450.55	1562.4
1022.9138	2959.6062	2410.6	1524.35
1023.0274	2960.6916	2397.65	1511.4
1023.141	2961.7764	2366.1	1478.75
1023.2545	2962.8605	2357	1470.1
1023.3679	2963.9439	2346.7	1461.2
1023.4813	2965.0267	2328.75	1439.7
1023.5947	2966.1089	2343.45	1434.5
1023.708	2967.1905	2317.95	1430.25
1023.8213	2968.2714	2309.6	1424.25
1023.9346	2969.3516	2306	1421.2
1024.0478	2970.4312	2326.7	1433.3
1024.1609	2971.5102	2330.25	1444.5
1024.274	2972.5885	2312.55	1426.15
1024.3871	2973.6662	2311.95	1421.9
1024.5002	2974.7432	2317.35	1430.35
1024.6132	2975.8196	2307.35	1419.35
1024.7261	2976.8954	2292.8	1409.5
1024.839	2977.9705	2289.1	1403.6
1024.9519	2979.045	2275.5	1390.6
1025.0647	2980.1188	2266.5	1380.75
1025.1775	2981.192	2241.45	1353.35
1025.2902	2982.2645	2232	1343
1025.4029	2983.3364	2209.1	1320.65
1025.5156	2984.4077	2185.95	1297.9
1025.6282	2985.4783	2177.05	1283.85
1025.7407	2986.5483	2125.55	1239.65
1025.8532	2987.6177	2113	1226.75
1025.9657	2988.6864	2083.95	1199
1026.0782	2989.7545	2064.25	1175.9
1026.1906	2990.8219	2016.5	1130.7
1026.3029	2991.8887	1992.45	1106.6
1026.4152	2992.9548	1972.85	1085.45
1026.5275	2994.0204	1949.15	1062.5
1026.6397	2995.0852	1915.6	1028.9
1026.7519	2996.1495	1898.2	1011
1026.864	2997.2131	1869.3	983
1026.9761	2998.276	1856.95	969.9
1027.0882	2999.3383	1832.5	944.85
1027.2002	3000.4	1805.85	919.55
1027.3122	3001.4611	1788.95	902.4
1027.4241	3002.5215	1779.45	892.15
1027.536	3003.5812	1766.25	879.9
1027.6478	3004.6404	1750.15	863.75
1027.7596	3005.6989	1742.55	853.15
1027.8714	3006.7567	1737.15	851.8
1027.9831	3007.8139	1734.75	829.9
1028.0947	3008.8705	1708.9	821.95
1028.2064	3009.9264	1712.95	810.6
1028.3179	3010.9818	1694.1	808.3
1028.4295	3012.0364	1687.3	799.65
1028.541	3013.0905	1679.5	794.15
1028.6524	3014.1439	1673.9	788.6
1028.7638	3015.1966	1664.65	779.65
1028.8752	3016.2487	1658.85	771.9
1028.9865	3017.3002	1650.35	760.75
1029.0978	3018.3511	1650.2	764.05
1029.209	3019.4013	1645.15	761.1
1029.3202	3020.4509	1637.65	753.9
1029.4314	3021.4998	1650	765.1
1029.5425	3022.5481	1632.9	748.2
1029.6535	3023.5958	1629.1	743.4
1029.7645	3024.6428	1626.6	740
1029.8755	3025.6892	1624.6	737.8
1029.9864	3026.735	1634.45	748.4
1030.0973	3027.7802	1625.1	740.2
1030.2082	3028.8247	1619.65	733.1
1030.319	3029.8685	1620	732.95
1030.4297	3030.9118	1631.45	746.45
1030.5404	3031.9544	1623.6	739.65
1030.6511	3032.9963	1616.9	730.9
1030.7617	3034.0376	1628.4	743.75
1030.8723	3035.0783	1626.4	738.85
1030.9829	3036.1184	1623.65	736.75
1031.0934	3037.1578	1625.1	739.6
1031.2038	3038.1966	1617.8	731.15
1031.3142	3039.2348	1626.2	741.55
1031.4246	3040.2723	1638.1	743.5
1031.5349	3041.3092	1623.75	739.85
1031.6452	3042.3455	1622.9	737.1
1031.7554	3043.3811	1614.45	729.65
1031.8656	3044.4161	1610.6	727
1031.9758	3045.4505	1602.25	715.85
1032.0859	3046.4842	1608.55	723.8
1032.1959	3047.5173	1601.9	718.95
1032.3059	3048.5498	1591.15	705.05
1032.4159	3049.5816	1581.4	695.55
1032.5258	3050.6128	1588.65	702.25
1032.6357	3051.6434	1580.8	695.45
1032.7455	3052.6734	1574.95	690.35
1032.8553	3053.7027	1572.1	685.5
1032.9651	3054.7314	1572	685.95
1033.0748	3055.7594	1564.7	678.8
1033.1845	3056.7868	1564.8	679.4
1033.2941	3057.8136	1558.65	674.1
1033.4037	3058.8398	1552.6	669.2
1033.5132	3059.8653	1543.55	660.05
1033.6227	3060.8902	1547.85	662.25
1033.7321	3061.9145	1542.8	658.8
1033.8415	3062.9381	1534.5	649.45
1033.9509	3063.9612	1550.35	650.9
1034.0602	3064.9835	1528.1	642.6
1034.1694	3066.0053	1527.75	639.75
1034.2787	3067.0264	1519.25	633.4
1034.3878	3068.0469	1521.95	636.75
1034.497	3069.0668	1508.1	619.4
1034.6061	3070.086	1507.85	622.35
1034.7151	3071.1046	1502.85	618.1
1034.8241	3072.1226	1487.7	600.8
1034.9331	3073.1399	1486.15	602.35
1035.042	3074.1567	1483.05	597.9
1035.1508	3075.1727	1475.6	589.7
1035.2597	3076.1882	1456.9	571.65
1035.3684	3077.203	1455.3	571
1035.4772	3078.2173	1449.4	564
1035.5859	3079.2308	1445.8	555.7
1035.6945	3080.2438	1433.05	545.7
1035.8031	3081.2561	1425.05	540.65
1035.9117	3082.2678	1424.7	540.2
1036.0202	3083.2789	1416.2	531.9
1036.1286	3084.2893	1416.7	533.2
1036.2371	3085.2991	1399.3	513.55
1036.3454	3086.3083	1400.55	510.35
1036.4538	3087.3169	1396.45	509.05
1036.562	3088.3248	1385.9	499.9
1036.6703	3089.3321	1387.5	501.35
1036.7785	3090.3388	1383.85	498.45
1036.8866	3091.3449	1377.95	492.85
1036.9948	3092.3503	1375.9	487.4
1037.1028	3093.3551	1370.05	485.85
1037.2108	3094.3593	1362.15	477.9
1037.3188	3095.3629	1366.2	482.3
1037.4267	3096.3658	1351.55	463.7
1037.5346	3097.3681	1354.25	470.45
1037.6425	3098.3698	1352.1	466.4
1037.7503	3099.3708	1350.95	460.6
1037.858	3100.3713	1340.8	455.15
1037.9657	3101.3711	1335.25	449.1
1038.0734	3102.3702	1468.2	446.05
1038.181	3103.3688	1338.8	453.25
1038.2886	3104.3667	1333.75	449.95
1038.3961	3105.364	1317.05	435.05
1038.5036	3106.3607	1318.95	432
1038.611	3107.3568	1323.15	436.9
1038.7184	3108.3522	1309.15	424.9
1038.8257	3109.347	1310.05	424.5
1038.933	3110.3412	1304.4	415
1039.0403	3111.3348	1301.35	416.95
1039.1475	3112.3277	1299.25	413.65
1039.2547	3113.32	1294.3	410.15
1039.3618	3114.3117	1293.3	408.5
1039.4689	3115.3028	1294.3	410.45
1039.5759	3116.2932	1287.95	400.6
1039.6829	3117.2831	1292.4	402.35
1039.7898	3118.2723	1276.8	391.65
1039.8967	3119.2608	1280.95	395.35
1040.0035	3120.2488	1281.9	396.2
1040.1103	3121.2361	1275.85	392.6
1040.2171	3122.2229	1268.6	383.15
1040.3238	3123.209	1275.7	389.35
1040.4305	3124.1944	1265.3	380.8
1040.5371	3125.1793	1274.6	389.35
1040.6437	3126.1635	1267.05	382.65
1040.7502	3127.1471	1258.95	375.05
1040.8567	3128.1301	1258.35	374.55
1040.9631	3129.1125	1253.8	369.35
1041.0695	3130.0942	1258.8	374.55
1041.1759	3131.0753	1261.3	367.75
1041.2822	3132.0558	1253.6	365.4
1041.3884	3133.0357	1250.6	366.55
1041.4946	3134.015	1246.65	361.5
1041.6008	3134.9936	1250.3	364.5
1041.7069	3135.9716	1262.4	356.35
1041.813	3136.949	1240.25	356.15
1041.919	3137.9258	1252.8	350.95
1042.025	3138.902	1250.95	361.6
1042.1309	3139.8775	1239.35	356.8
1042.2368	3140.8524	1233.2	348.1
1042.3427	3141.8267	1237	350.5
1042.4485	3142.8004	1231.55	348.2
1042.5542	3143.7735	1228.45	339.7
1042.6599	3144.7459	1228.6	339.65
1042.7656	3145.7178	1217.1	330.2
1042.8712	3146.689	1219.3	336.8
1042.9768	3147.6596	1220.9	335.15
1043.0823	3148.6295	1217.95	334.65
1043.1878	3149.5989	1220.5	335
1043.2932	3150.5676	1217.2	332.1
1043.3986	3151.5357	1207.85	325.5
1043.5039	3152.5032	1209.9	327
1043.6092	3153.4701	1208.65	324.65
1043.7145	3154.4364	1204.1	317.65
1043.8197	3155.402	1198.85	315.2
1043.9248	3156.367	1205.3	317.15
1044.03	3157.3315	1231.45	310.2
1044.135	3158.2952	1200.25	316.65
1044.24	3159.2584	1196.85	313
1044.345	3160.221	1191.4	307.5
1044.4499	3161.1829	1188.25	303.3
1044.5548	3162.1442	1191.2	306.5
1044.6596	3163.105	1183.15	297.85
1044.7644	3164.065	1184.05	299.95
1044.8692	3165.0245	1188.15	302.95
1044.9739	3165.9834	1183.8	302.05
1045.0785	3166.9416	1186.2	302.7
1045.1831	3167.8993	1177.7	294.8
1045.2877	3168.8563	1176	291.2
1045.3922	3169.8127	1176.6	291.95
1045.4966	3170.7684	1176.9	292.3
1045.6011	3171.7236	1171.6	286.1
1045.7054	3172.6782	1171.9	289
1045.8098	3173.6321	1175.8	288.95
1045.914	3174.5854	1177.7	288.15
1046.0183	3175.5381	1167.2	282.75
1046.1224	3176.4902	1167.3	285.3
1046.2266	3177.4417	1165.85	281.15
1046.3307	3178.3926	1159.35	278
1046.4347	3179.3428	1160.7	277.6
1046.5387	3180.2924	1156.5	272.8
1046.6427	3181.2415	1157.7	273.35
1046.7466	3182.1899	1157.2	271.15
1046.8504	3183.1377	1152	267.85
1046.9542	3184.0848	1158.95	272.4
1047.058	3185.0314	1149.85	264.95
1047.1617	3185.9773	1151.25	266.5
1047.2654	3186.9227	1145	260.05
1047.369	3187.8674	1146.35	262.9
1047.4726	3188.8115	1149.25	261.55
1047.5761	3189.755	1143.1	258.05
1047.6796	3190.6979	1140.05	255.55
1047.783	3191.6402	1143.3	260.55
1047.8864	3192.5818	1138.2	254.6
1047.9898	3193.5229	1142.5	253.35
1048.0931	3194.4633	1139.25	255.8
1048.1963	3195.4031	1139	252.5
1048.2995	3196.3423	1135.6	252.15
1048.4027	3197.2809	1135.55	252.55
1048.5058	3198.2189	1130	246.3
1048.6089	3199.1563	1135.55	245
1048.7119	3200.0931	1124.1	241.35
1048.8148	3201.0292	1128.25	247.6
1048.9178	3201.9648	1131.75	248.45
1049.0206	3202.8997	1132.2	245.1
1049.1235	3203.834	1124.75	241.9
1049.2262	3204.7677	1124.6	242.1
1049.329	3205.7008	1123.1	237.95
1049.4317	3206.6333	1117.25	234.95
1049.5343	3207.5652	1119.35	232.3
1049.6369	3208.4964	1124.8	239.6
1049.7394	3209.4271	1118.65	234.45
1049.8419	3210.3571	1117.55	233.9
1049.9444	3211.2865	1114.65	230.85
1050.0468	3212.2154	1115.65	230.1
1050.1491	3213.1436	1113.25	226.7
1050.2514	3214.0712	1114.6	225.2
1050.3537	3214.9982	1111.3	224.9
1050.4559	3215.9246	1105.6	222.3
1050.5581	3216.8503	1106.45	222.75
1050.6602	3217.7755	1100.9	216.6
1050.7623	3218.7001	1104.45	222.55
1050.8643	3219.624	1105.75	222.15
1050.9663	3220.5473	1105.1	221.05
1051.0682	3221.4701	1102.15	217.25
1051.1701	3222.3922	1098.45	211.05
1051.2719	3223.3137	1097.6	212.8
1051.3737	3224.2346	1094.5	211.2
1051.4754	3225.1549	1097	214.15
1051.5771	3226.0746	1096.7	212.7
1051.6788	3226.9937	1096.7	211.3
1051.7804	3227.9121	1086.3	202.65
1051.8819	3228.83	1096.25	213.55
1051.9834	3229.7473	1094.35	209.65
1052.0849	3230.6639	1088.05	204.3
1052.1863	3231.5799	1091.05	206.45
1052.2876	3232.4954	1089.05	204.95
1052.3889	3233.4102	1087.75	206.25
1052.4902	3234.3244	1086.2	203.6
1052.5914	3235.238	1083.05	201.45
1052.6926	3236.151	1106.65	197
1052.7937	3237.0634	1082.9	199.95
1052.8948	3237.9752	1077.85	194.75
1052.9958	3238.8864	1077.55	194.95
1053.0968	3239.797	1075.75	192.5
1053.1977	3240.7069	1082.85	199.1
1053.2986	3241.6163	1078.35	191.05
1053.3994	3242.5251	1072.85	191.25
1053.5002	3243.4332	1067.7	185.4
1053.6009	3244.3408	1072.35	190.05
1053.7016	3245.2477	1071	186.8
1053.8022	3246.154	1068.15	183.55
1053.9028	3247.0598	1071.4	185.8
1054.0034	3247.9649	1068.5	184.1
1054.1039	3248.8694	1063.35	179.95
1054.2043	3249.7733	1062.4	180.05
1054.3047	3250.6766	1064	180.5
1054.4051	3251.5793	1064.1	180.4
1054.5054	3252.4814	1062.2	182.55
1054.6056	3253.3829	1060.75	177.3
1054.7058	3254.2838	1054.3	170.65
1054.806	3255.1841	1058.5	174.65
1054.9061	3256.0838	1055.9	171.2
1055.0061	3256.9829	1050.05	166.15
1055.1062	3257.8814	1057.15	171.2
1055.2061	3258.7792	1053.9	168.7
1055.306	3259.6765	1047.15	162.15
1055.4059	3260.5731	1045.2	163.2
1055.5057	3261.4692	1044.7	159.9
1055.6055	3262.3647	1041.6	157.25
1055.7052	3263.2595	1042.1	157.25
1055.8049	3264.1538	1037.4	154.4
1055.9045	3265.0474	1037.25	154.75
1056.0041	3265.9404	1035.55	152.65
1056.1036	3266.8329	1034.25	151.7
1056.2031	3267.7247	1039.15	147.05
1056.3025	3268.616	1024.35	142.9
1056.4019	3269.5066	1023.65	140.35
1056.5013	3270.3966	1017.8	131.65
1056.6005	3271.286	1012.6	130.3
