Software Version:	3.9.2.0
Unit SN:	10000200
Spectrometer SN:	6960
Date:	3/26/2024 1:25:12 PM
Data Line Index:	25
Spectral Points:	2048
Integration time (ms):	125
Averages:	20
Delay (ms):	30000
Sequence Number:	1
Processing:	dark subtract
Laser Power (mW):	300
Laser Current (mA):	822
Laser Diode Temp (C):	25.1
Laser Case Temp (C):	26.7
System Temp (C):	26.7
Spectrometer Temp (C):	24.5
CCD Temp (C):	0.007
Secondary Temp (C):	20.013
Heatsink Temp (C):	22.293
CCDPCB Temp (C):	36.24
SecondaryPCB Temp (C):	33.884

Wavelength	RamanShift	Raw Counts	Dark Subtracted
787.061	30.1047	480.55	68.85
787.2016	32.3739	481.9	71
787.3422	34.6426	490.25	79.05
787.4828	36.9109	497.45	83.9
787.6235	39.1787	505.95	89
787.7642	41.4461	512.65	92.45
787.9049	43.7131	523.75	97.95
788.0456	45.9796	530.25	101.35
788.1863	48.2456	544.1	112.25
788.3271	50.5112	553.55	117.6
788.4679	52.7764	563.95	125.6
788.6087	55.0411	571.95	131.25
788.7496	57.3054	587.05	141.75
788.8904	59.5692	596.75	147.9
789.0313	61.8326	610.45	157.95
789.1722	64.0955	623	167.3
789.3132	66.3579	646.1	184.1
789.4541	68.6199	665.7	200.9
789.5951	70.8815	696.7	229.35
789.7361	73.1426	771.25	301.7
789.8771	75.4032	954.9	480.3
790.0181	77.6634	1422.55	943.2
790.1592	79.9231	2514.75	2029.2
790.3003	82.1824	4939.75	4447.25
790.4414	84.4412	9329.85	8820.6
790.5825	86.6995	15570.8	15042.6
790.7237	88.9574	21826.05	21280.95
790.8648	91.2148	26482.65	25927.6
791.006	93.4717	28961.15	28395.6
791.1472	95.7282	29948.75	29379.35
791.2885	97.9842	30428.15	29856.5
791.4297	100.2398	30478.65	29902.3
791.571	102.4949	30414.45	29836
791.7123	104.7495	30274.55	29692.75
791.8536	107.0036	30107.6	29526.7
791.9949	109.2573	30067.25	29485.55
792.1363	111.5105	29924.95	29337.95
792.2777	113.7632	29823.15	29236.25
792.4191	116.0154	29776.75	29179.55
792.5605	118.2672	29842.65	29250.35
792.7019	120.5185	29780.1	29188.5
792.8434	122.7693	29794.2	29203.75
792.9849	125.0197	29811.65	29213.5
793.1264	127.2696	29843.1	29243.1
793.2679	129.519	29905.4	29301.7
793.4094	131.7679	29931.05	29324.8
793.551	134.0163	29813.25	29205.4
793.6926	136.2642	29838.3	29225.95
793.8342	138.5117	29798.2	29174.35
793.9758	140.7587	29757.25	29138
794.1175	143.0052	29756.75	29137.35
794.2591	145.2512	29609.5	28991.1
794.4008	147.4967	29576.1	28955
794.5425	149.7417	29522.3	28897.8
794.6842	151.9863	29472.55	28844.9
794.826	154.2304	29411.55	28777.75
794.9677	156.4739	29357.9	28720.75
795.1095	158.717	29358.4	28718.2
795.2513	160.9596	29296.3	28653.85
795.3931	163.2017	29185.1	28541
795.535	165.4433	29219.2	28569.35
795.6768	167.6844	29123.15	28476.35
795.8187	169.925	29052.15	28404.4
795.9606	172.1651	28881.5	28226.25
796.1025	174.4047	28860.2	28204.95
796.2445	176.6439	28823	28165.1
796.3864	178.8825	28752.2	28088.55
796.5284	181.1206	28781.7	28116.15
796.6704	183.3582	28755.65	28086.1
796.8124	185.5954	28703.2	28032.1
796.9544	187.832	28684.4	28010.5
797.0965	190.0681	28754.75	28076.75
797.2386	192.3037	28770.95	28090.85
797.3806	194.5388	28793	28109.5
797.5228	196.7734	28769.9	28084.4
797.6649	199.0075	28854.6	28163.35
797.807	201.2411	28988.9	28294.95
797.9492	203.4742	28945.65	28253.8
798.0914	205.7068	29058.5	28363.8
798.2336	207.9389	29072.75	28379.25
798.3758	210.1704	29139.9	28440.1
798.518	212.4015	29137.2	28436.7
798.6603	214.632	29141.2	28439
798.8025	216.862	29234.2	28544.6
798.9448	219.0915	29187.2	28505.25
799.0871	221.3205	29224.05	28537.1
799.2294	223.549	29231.85	28552.1
799.3718	225.777	29290.4	28609.75
799.5141	228.0044	29294.15	28611.6
799.6565	230.2314	29414.75	28739.1
799.7989	232.4578	29350.3	28668.6
799.9413	234.6837	29394.7	28705.05
800.0837	236.909	29448.85	28758.8
800.2262	239.1339	29411.35	28696.3
800.3687	241.3582	29444.1	28743.7
800.5111	243.582	29416.5	28687.2
800.6536	245.8053	29402.3	28681.45
800.7961	248.0281	29340.85	28625.6
800.9387	250.2503	29328	28607.2
801.0812	252.472	29379.8	28654.7
801.2238	254.6932	29445.2	28717.5
801.3664	256.9139	29375.6	28645.9
801.509	259.134	29421.15	28687.2
801.6516	261.3536	29371.75	28642.1
801.7942	263.5727	29504.75	28773.3
801.9369	265.7912	29459.25	28728.65
802.0795	268.0092	29545.15	28812.75
802.2222	270.2267	29520.35	28784.3
802.3649	272.4436	29591.95	28855.1
802.5076	274.6601	29580.2	28836.1
802.6504	276.8759	29486.95	28750.8
802.7931	279.0913	29512.7	28773.3
802.9359	281.3061	29500.9	28760.3
803.0787	283.5204	29536.2	28789.3
803.2215	285.7341	29507.15	28758.4
803.3643	287.9473	29584.3	28824.6
803.5071	290.16	29602.4	28846.05
803.6499	292.3721	29541.4	28792
803.7928	294.5837	29503	28752.55
803.9357	296.7947	29488.7	28740.3
804.0786	299.0052	29543.15	28791.85
804.2215	301.2152	29463.75	28710.55
804.3644	303.4246	29451.6	28703.3
804.5074	305.6334	29396	28646.3
804.6503	307.8418	29348	28596.3
804.7933	310.0495	29251.05	28493.55
804.9363	312.2568	29138.45	28382.6
805.0793	314.4635	29019.7	28263.55
805.2223	316.6696	28848.3	28091.65
805.3653	318.8752	28741.1	27972.35
805.5084	321.0802	28718.9	27959.4
805.6514	323.2847	28724.05	27959.4
805.7945	325.4887	28678.1	27915.2
805.9376	327.692	28621.5	27857.85
806.0807	329.8949	28731.65	27968.95
806.2238	332.0972	28598	27828.85
806.367	334.2989	28599.9	27829.6
806.5101	336.5001	28555.4	27786.25
806.6533	338.7007	28478.2	27706.45
806.7965	340.9008	28484.15	27713.5
806.9397	343.1003	28442.65	27668.45
807.0829	345.2992	28359.2	27584.1
807.2261	347.4976	28330.95	27554.85
807.3693	349.6955	28299.15	27521.25
807.5126	351.8927	28395.25	27613.65
807.6559	354.0895	28265.7	27474.65
807.7991	356.2856	28256.55	27473.05
807.9424	358.4812	28196	27414.65
808.0857	360.6763	28201.65	27417.4
808.2291	362.8707	28165.95	27381.4
808.3724	365.0646	28199.55	27414.35
808.5158	367.258	28124.25	27335
808.6591	369.4508	28078.8	27285.9
808.8025	371.643	28138.25	27344.2
808.9459	373.8346	28013.65	27219
809.0893	376.0257	27997.25	27199.1
809.2327	378.2162	27961.35	27164.15
809.3762	380.4062	28006.05	27204.85
809.5196	382.5956	27899	27102.1
809.6631	384.7844	27911.35	27113.2
809.8066	386.9726	27759.65	26958
809.9501	389.1603	27642.15	26841.15
810.0936	391.3474	27659.8	26824.2
810.2371	393.5339	27632.85	26832.35
810.3806	395.7199	27530.6	26735.3
810.5241	397.9052	27543.75	26748.65
810.6677	400.09	27513.7	26718.3
810.8113	402.2743	27467.35	26672.45
810.9548	404.4579	27437.6	26642.8
811.0984	406.641	27559.3	26766.05
811.2421	408.8235	27605.5	26811.3
811.3857	411.0054	27612.8	26815.55
811.5293	413.1868	27686	26887.05
811.673	415.3675	27628.65	26826.4
811.8166	417.5477	27656.45	26850.65
811.9603	419.7273	27607.25	26801.2
812.104	421.9064	27499.05	26685.95
812.2477	424.0848	27445.9	26638.5
812.3914	426.2627	27354.3	26546.1
812.5351	428.4399	27280.05	26468.6
812.6788	430.6166	27136.45	26320.2
812.8226	432.7928	27064.05	26249.5
812.9663	434.9683	26903.6	26087.7
813.1101	437.1432	26861.3	26044.5
813.2539	439.3176	26784.65	25968.1
813.3977	441.4914	26671.3	25854.55
813.5415	443.6645	26640.05	25821.3
813.6853	445.8371	26493.7	25675.05
813.8291	448.0091	26418.25	25601
813.973	450.1806	26344.9	25528.05
814.1168	452.3514	26257.7	25438.3
814.2607	454.5216	26279.45	25453.3
814.4046	456.6913	26161.55	25339.1
814.5485	458.8603	26152.25	25328.15
814.6924	461.0288	26173.05	25354.5
814.8363	463.1967	26082.75	25262.85
814.9802	465.3639	26132.65	25308.25
815.1241	467.5306	26055.05	25231.85
815.2681	469.6967	26043.45	25221.1
815.412	471.8622	25978.15	25156.05
815.556	474.0271	25968.2	25147.15
815.7	476.1914	25956.85	25130.25
815.844	478.3551	25930.5	25103.45
815.988	480.5182	25997.35	25172.75
816.132	482.6807	25958.8	25134.45
816.276	484.8426	25990.95	25170.3
816.4201	487.0039	26086.95	25264.15
816.5641	489.1647	26129.85	25300.7
816.7082	491.3248	26223.3	25394.85
816.8522	493.4843	26202.9	25378.95
816.9963	495.6432	26138.5	25314.25
817.1404	497.8015	26050.15	25216.6
817.2845	499.9592	26068.65	25238.45
817.4286	502.1163	25990.65	25159.45
817.5727	504.2728	25870.8	25038.85
817.7168	506.4287	25916.7	25088.85
817.861	508.5839	25813.95	24985.1
818.0051	510.7386	25727.45	24897.05
818.1493	512.8927	25725.7	24886.1
818.2935	515.0461	25694.05	24859.9
818.4377	517.199	25687	24851.95
818.5818	519.3512	25676.1	24840.1
818.726	521.5029	25761.65	24918.95
818.8703	523.6539	25760.65	24925.5
819.0145	525.8043	25761.6	24923.1
819.1587	527.9541	25744.75	24905.3
819.303	530.1033	25623.35	24782.45
819.4472	532.2519	25588.2	24748.55
819.5915	534.3999	25540.75	24697.8
819.7357	536.5472	25534.2	24696.15
819.88	538.694	25565.8	24727.35
820.0243	540.8401	25605	24765.25
820.1686	542.9856	25631.85	24787.25
820.3129	545.1305	25626	24776.9
820.4572	547.2748	25640.7	24790.7
820.6016	549.4185	25603.05	24751.4
820.7459	551.5615	25540	24692.55
820.8902	553.704	25530.15	24680.05
821.0346	555.8458	25449.85	24603.45
821.1789	557.987	25487.25	24639
821.3233	560.1276	25522.4	24674.55
821.4677	562.2675	25578.5	24733.05
821.6121	564.4069	25644.55	24795.7
821.7565	566.5456	25697.45	24852
821.9009	568.6837	25679.45	24833.7
822.0453	570.8212	25554.4	24709.45
822.1897	572.958	25392	24541.15
822.3342	575.0942	25223.7	24377.75
822.4786	577.2299	25097.55	24253.45
822.6231	579.3648	24986.35	24145.45
822.7675	581.4992	24832.75	23994.05
822.912	583.6329	24809.7	23970.1
823.0565	585.766	24823.3	23981
823.201	587.8985	24793.6	23949.05
823.3454	590.0304	24788.15	23925.45
823.4899	592.1616	24692.6	23838.55
823.6345	594.2922	24697.85	23845.3
823.779	596.4222	24593.6	23738.4
823.9235	598.5515	24502.1	23649.35
824.068	600.6802	24429.3	23576.65
824.2126	602.8083	24289.6	23436.9
824.3571	604.9358	24268.6	23415.1
824.5017	607.0626	24218.75	23362.15
824.6462	609.1888	24222.7	23362.15
824.7908	611.3144	24241.75	23384.7
824.9354	613.4393	24185.35	23326.75
825.08	615.5636	24178.9	23321.6
825.2246	617.6873	24211.7	23350.65
825.3692	619.8103	24226.25	23368.25
825.5138	621.9327	24112.4	23252.35
825.6584	624.0544	24102.1	23247.1
825.803	626.1756	24026.9	23168.8
825.9477	628.2961	23984.35	23125.55
826.0923	630.4159	23914.25	23054.8
826.237	632.5351	23921.5	23061.3
826.3816	634.6537	23890.35	23025.5
826.5263	636.7716	23867.3	23004.05
826.6709	638.8889	23869.2	23005.95
826.8156	641.0056	23896.55	23034.25
826.9603	643.1216	23876.2	23013.4
827.105	645.237	23877	23013.1
827.2497	647.3518	23738.9	22878.3
827.3944	649.4659	23786.5	22927.15
827.5391	651.5793	23701.65	22838.75
827.6838	653.6922	23693.45	22829.95
827.8285	655.8043	23615.3	22751.6
827.9733	657.9159	23636.95	22774.2
828.118	660.0268	23529.7	22664.8
828.2627	662.137	23502.2	22634.25
828.4075	664.2466	23492.1	22623.45
828.5522	666.3556	23486.8	22620.75
828.697	668.4639	23358.2	22490.15
828.8418	670.5716	23436	22572.45
828.9865	672.6786	23378.9	22512.15
829.1313	674.785	23259.6	22390.85
829.2761	676.8907	23224.4	22354.6
829.4209	678.9958	23222.25	22358.15
829.5657	681.1002	23173.25	22304.65
829.7105	683.204	23169.45	22296.45
829.8553	685.3072	23104.75	22235.2
830.0001	687.4097	23057.2	22185.85
830.1449	689.5115	23071.8	22201.1
830.2898	691.6127	23071.45	22203.7
830.4346	693.7132	22993.25	22123.45
830.5794	695.8131	23003.8	22110.25
830.7243	697.9123	23002	22129.4
830.8691	700.0109	22960.55	22085.4
831.014	702.1089	22936.1	22063.25
831.1588	704.2061	22937.35	22067.5
831.3037	706.3028	22913.6	22038.8
831.4486	708.3987	22908.55	22034.45
831.5935	710.4941	22857.65	21984.5
831.7383	712.5887	22855.1	21980.4
831.8832	714.6827	22821.3	21947.1
832.0281	716.7761	22837.45	21964.1
832.173	718.8688	22830.5	21956.6
832.3179	720.9608	22814.1	21938.05
832.4628	723.0522	22878.3	21998.8
832.6077	725.1429	22781.8	21905.65
832.7527	727.233	22801.05	21925.75
832.8976	729.3224	22829.95	21954.3
833.0425	731.4112	22743.5	21864.2
833.1874	733.4993	22674.55	21798.1
833.3324	735.5867	22571.75	21693.65
833.4773	737.6735	22527.1	21650.2
833.6222	739.7596	22415.85	21535.85
833.7672	741.845	22387.4	21508.95
833.9122	743.9298	22288.4	21411.85
834.0571	746.014	22271.1	21393
834.2021	748.0974	22261.95	21380.55
834.347	750.1802	22176.6	21295.15
834.492	752.2624	22077.4	21197.75
834.637	754.3439	22065.4	21183.05
834.782	756.4247	21982.8	21093.1
834.9269	758.5048	21916.15	21036.9
835.0719	760.5843	21946.75	21061.7
835.2169	762.6631	21939.3	21055.8
835.3619	764.7413	21993.4	21113.55
835.5069	766.8188	22088.25	21206.4
835.6519	768.8956	22090.05	21207.7
835.7969	770.9718	22193.1	21309.1
835.9419	773.0473	22093.3	21212.25
836.0869	775.1221	22007.65	21129.65
836.232	777.1962	21899.2	21017.25
836.377	779.2697	21880	20995.5
836.522	781.3426	21868.1	20965.75
836.667	783.4147	21836.1	20950.2
836.8121	785.4862	21813.9	20930.9
836.9571	787.557	21754.8	20870.75
837.1021	789.6271	21617.45	20732.2
837.2472	791.6966	21433.7	20550.75
837.3922	793.7654	21215.35	20331.2
837.5373	795.8335	21206.35	20321.65
837.6823	797.901	21092.6	20208.55
837.8274	799.9678	21016.15	20128.25
837.9724	802.0339	20963.5	20079.35
838.1175	804.0993	20928.7	20033.3
838.2626	806.1641	20828.65	19943.95
838.4076	808.2282	20775.9	19891.1
838.5527	810.2916	20736.65	19847.5
838.6978	812.3544	20715.3	19833.8
838.8428	814.4164	20677.9	19795.95
838.9879	816.4778	20686	19799.7
839.133	818.5385	20566.45	19677.65
839.2781	820.5986	20580.6	19692.55
839.4232	822.658	20597.15	19708.85
839.5682	824.7166	20614.2	19727.7
839.7133	826.7747	20701.2	19814.35
839.8584	828.832	20713.6	19826.65
840.0035	830.8886	20714.15	19823.45
840.1486	832.9446	20740.5	19854.4
840.2937	834.9999	20686.35	19800.4
840.4388	837.0545	20629.75	19739.6
840.5839	839.1085	20519.2	19630.8
840.729	841.1618	20418.25	19525.25
840.8741	843.2143	20282.95	19393.8
841.0192	845.2662	20219.1	19329.5
841.1643	847.3175	20173.7	19288.3
841.3095	849.368	20118.8	19230.75
841.4546	851.4179	20017.05	19127.65
841.5997	853.467	19936.8	19050.45
841.7448	855.5155	19936.05	19043.65
841.8899	857.5633	19838.75	18947.6
842.0351	859.6105	19764.7	18876.45
842.1802	861.6569	19716.6	18829.1
842.3253	863.7027	19677.3	18787.05
842.4704	865.7478	19687.1	18795.95
842.6156	867.7922	19644.45	18751.35
842.7607	869.8359	19559.85	18667.9
842.9058	871.8789	19565.95	18674.15
843.0509	873.9212	19564.6	18640.25
843.1961	875.9629	19473.15	18582.95
843.3412	878.0039	19469.3	18576.5
843.4863	880.0441	19461.2	18571.25
843.6315	882.0837	19445.65	18554.3
843.7766	884.1226	19388.9	18494.5
843.9218	886.1609	19367.4	18476.25
844.0669	888.1984	19390.2	18496.7
844.212	890.2352	19414.8	18522.55
844.3572	892.2714	19379	18481.7
844.5023	894.3069	19353.55	18458.3
844.6475	896.3416	19209.7	18316.5
844.7926	898.3757	19175.95	18282.3
844.9377	900.4091	19144.5	18252.25
845.0829	902.4418	19073.95	18177.55
845.228	904.4739	19007.45	18113.65
845.3732	906.5052	19024.55	18130.05
845.5183	908.5358	18943.8	18050.3
845.6635	910.5658	18872.95	17975
845.8086	912.595	18834.65	17939.35
845.9538	914.6236	18726	17833.55
846.0989	916.6515	18690.75	17796.35
846.2441	918.6786	18600	17703.05
846.3892	920.7051	18567.15	17670.25
846.5344	922.7309	18561.15	17666.3
846.6795	924.756	18491.45	17599.05
846.8246	926.7804	18483.8	17589.65
846.9698	928.8041	18337.35	17440.2
847.1149	930.8272	18336.15	17440.05
847.2601	932.8495	18245.65	17348.65
847.4052	934.8711	18229.9	17334
847.5504	936.892	18154.5	17258.05
847.6955	938.9123	18113.65	17215.15
847.8407	940.9318	18068.75	17171.8
847.9858	942.9506	18001.3	17106.1
848.131	944.9688	17922.65	17027.05
848.2761	946.9862	17888.1	16993.85
848.4213	949.003	17769.05	16876.55
848.5664	951.019	17696.45	16800.85
848.7115	953.0344	17627.2	16729.25
848.8567	955.0491	17571.85	16674.25
849.0018	957.063	17561.15	16665.1
849.147	959.0763	17599	16696.1
849.2921	961.0888	17529.5	16631.9
849.4373	963.1007	17509.2	16610.1
849.5824	965.1119	17497.95	16605.6
849.7275	967.1223	17444.95	16552.1
849.8727	969.1321	17401.8	16509.05
850.0178	971.1412	17373.65	16478.8
850.1629	973.1495	17295	16399.7
850.3081	975.1572	17247.2	16330
850.4532	977.1641	17264.15	16367.3
850.5983	979.1704	17144.4	16246.9
850.7435	981.1759	17112.95	16212.1
850.8886	983.1808	17053.15	16155.9
851.0337	985.1849	16995.65	16087.6
851.1788	987.1884	16976.2	16077.25
851.324	989.1911	16980.3	16082.65
851.4691	991.1932	16946.7	16048.25
851.6142	993.1945	16855.95	15958.35
851.7593	995.1951	16762.45	15865.25
851.9045	997.1951	16748.6	15844.25
852.0496	999.1943	16701.25	15803.9
852.1947	1001.1928	16586.2	15688.2
852.3398	1003.1906	16481.55	15583.9
852.4849	1005.1877	16494.1	15597.05
852.63	1007.1841	16480.6	15582.1
852.7751	1009.1798	16418.8	15520.1
852.9202	1011.1748	16304	15406.85
853.0653	1013.1691	16259.5	15359.75
853.2104	1015.1627	16171	15272.1
853.3555	1017.1556	16024	15125.55
853.5006	1019.1477	15961.4	15066.5
853.6457	1021.1392	15812.3	14918.85
853.7908	1023.1299	15773.3	14877.5
853.9359	1025.12	15742.25	14848.5
854.081	1027.1093	15670.55	14780.9
854.2261	1029.0979	15632.35	14746.15
854.3712	1031.0859	15559.6	14669.6
854.5163	1033.0731	15541.75	14645.85
854.6613	1035.0596	15501.1	14607.85
854.8064	1037.0454	15363.35	14464.4
854.9515	1039.0304	15328.95	14432.15
855.0965	1041.0148	15253.2	14354.6
855.2416	1042.9985	15179.25	14279.9
855.3867	1044.9814	15154.35	14254.65
855.5317	1046.9636	15088.55	14188.7
855.6768	1048.9452	14966.15	14069.8
855.8219	1050.926	14970.7	14074.75
855.9669	1052.9061	14922.95	14027.05
856.112	1054.8855	14877.4	13979.3
856.257	1056.8642	14871.8	13972.5
856.4021	1058.8421	14832.1	13930.2
856.5471	1060.8194	14809.9	13910.35
856.6921	1062.7959	14738.85	13839.95
856.8372	1064.7717	14734.85	13835.3
856.9822	1066.7469	14732.1	13833.9
857.1272	1068.7213	14694.55	13795.15
857.2723	1070.695	14675	13778.3
857.4173	1072.6679	14598.85	13697.45
857.5623	1074.6402	14579.7	13680.4
857.7073	1076.6117	14593.55	13691.5
857.8523	1078.5826	14529.35	13629.35
857.9973	1080.5527	14458.2	13555.9
858.1423	1082.5221	14346.75	13445.8
858.2873	1084.4908	14318.65	13420.6
858.4323	1086.4587	14268.25	13369.35
858.5773	1088.426	14214.2	13316.1
858.7223	1090.3925	14167.05	13260.65
858.8673	1092.3584	14142.35	13244.25
859.0123	1094.3235	14112.3	13211.55
859.1573	1096.2879	14065.35	13163.95
859.3022	1098.2515	14082.5	13184.4
859.4472	1100.2145	14086.3	13186.6
859.5922	1102.1767	14071.05	13172.6
859.7371	1104.1382	14050.3	13151.85
859.8821	1106.099	14089.65	13187.9
860.027	1108.0591	14068.9	13171.15
860.172	1110.0185	14077.5	13177.8
860.3169	1111.9771	14093.95	13197
860.4619	1113.9351	14026.2	13126.2
860.6068	1115.8923	13962.3	13062.05
860.7517	1117.8488	13880.1	12980.9
860.8967	1119.8045	13798.35	12897.35
861.0416	1121.7596	13732.4	12831.5
861.1865	1123.7139	13630.2	12729.75
861.3314	1125.6675	13576.6	12678.2
861.4763	1127.6204	13584.65	12687.25
861.6212	1129.5726	13553.85	12652.8
861.7661	1131.524	13490.4	12592.4
861.911	1133.4748	13459.05	12557.95
862.0559	1135.4248	13345.8	12443.55
862.2008	1137.3741	13269.5	12368.1
862.3457	1139.3226	13220.85	12320.55
862.4905	1141.2705	13190.3	12290.75
862.6354	1143.2176	13106.7	12202.15
862.7803	1145.164	13085	12185.7
862.9251	1147.1097	13024.7	12127.45
863.07	1149.0546	13000.55	12101.45
863.2148	1150.9989	12950.05	12050.4
863.3597	1152.9424	12941.65	12041.1
863.5045	1154.8852	12868.25	11969.65
863.6493	1156.8272	12827.2	11925.25
863.7942	1158.7686	12830.45	11924.5
863.939	1160.7092	12791.95	11891.3
864.0838	1162.6491	12719.8	11819.5
864.2286	1164.5883	12732.4	11834.25
864.3734	1166.5267	12689.65	11787.75
864.5182	1168.4644	12707.5	11808.15
864.663	1170.4014	12730.65	11824.6
864.8078	1172.3377	12772.45	11874.15
864.9526	1174.2732	12777.5	11878.8
865.0974	1176.2081	12839.65	11939.3
865.2421	1178.1421	12909.3	12004.35
865.3869	1180.0755	13020.7	12122.05
865.5317	1182.0082	13010.5	12109.75
865.6764	1183.9401	13048.5	12148.4
865.8212	1185.8713	12944.8	12047.45
865.9659	1187.8017	12866.45	11971.5
866.1106	1189.7315	12753.95	11860.2
866.2554	1191.6605	12593.7	11702.6
866.4001	1193.5888	12491.35	11594.3
866.5448	1195.5163	12419.4	11521.55
866.6895	1197.4432	12358.85	11459.55
866.8342	1199.3693	12294.15	11394.55
866.9789	1201.2947	12220.1	11320.3
867.1236	1203.2193	12160.25	11263.45
867.2683	1205.1432	12137.45	11238.9
867.413	1207.0664	12099.4	11202.4
867.5576	1208.9889	12068.5	11167.05
867.7023	1210.9106	12003.4	11104.95
867.847	1212.8316	11968.4	11069.45
867.9916	1214.7519	11938.4	11029.75
868.1363	1216.6715	11897.25	10998.7
868.2809	1218.5903	11903	11003.95
868.4255	1220.5084	11888.05	10989.6
868.5701	1222.4257	11895.35	10997.05
868.7148	1224.3424	11830.7	10933.95
868.8594	1226.2583	11857.6	10954.4
869.004	1228.1735	11883.95	10980.75
869.1486	1230.0879	11840.85	10940.05
869.2932	1232.0016	11855.7	10957.3
869.4377	1233.9146	11869.6	10966.55
869.5823	1235.8269	11829.05	10933.05
869.7269	1237.7384	11817.15	10918.7
869.8715	1239.6492	11716.35	10819.85
870.016	1241.5592	11707.35	10805.85
870.1606	1243.4686	11664.35	10767.65
870.3051	1245.3772	11699	10799
870.4496	1247.285	11735.8	10835.1
870.5941	1249.1922	11738.55	10838.45
870.7387	1251.0986	11781.75	10884.3
870.8832	1253.0042	11774.15	10873.9
871.0277	1254.9092	11812.6	10912.05
871.1722	1256.8134	11808.4	10911.6
871.3167	1258.7169	11807.95	10908.4
871.4611	1260.6196	11802.45	10903.55
871.6056	1262.5216	11826.75	10923.95
871.7501	1264.4229	11833.1	10936.6
871.8945	1266.3234	11852.25	10953.15
872.039	1268.2232	11843.6	10941
872.1834	1270.1223	11802.5	10900.55
872.3278	1272.0207	11788.65	10888
872.4723	1273.9183	11771.35	10868.8
872.6167	1275.8151	11734.65	10834.95
872.7611	1277.7113	11688.25	10787.85
872.9055	1279.6067	11668.3	10767.95
873.0499	1281.5014	11724	10824.15
873.1943	1283.3953	11810.45	10909.7
873.3386	1285.2885	11951.85	11052.05
873.483	1287.181	12046.45	11147.75
873.6274	1289.0727	12187	11284.8
873.7717	1290.9637	12233.65	11332.5
873.9161	1292.854	12260.6	11358.7
874.0604	1294.7435	12224.75	11323.65
874.2047	1296.6323	12185.3	11286.15
874.349	1298.5204	12103.15	11200.7
874.4933	1300.4077	12023.1	11124.1
874.6376	1302.2943	11916.8	11017.85
874.7819	1304.1802	11841.5	10943.15
874.9262	1306.0653	11681	10780.05
875.0705	1307.9497	11561.75	10663.7
875.2147	1309.8333	11449.65	10548.55
875.359	1311.7162	11382.9	10484.9
875.5032	1313.5984	11336.2	10434.1
875.6475	1315.4798	11218.8	10306.85
875.7917	1317.3605	11216.3	10309.2
875.9359	1319.2405	11178.7	10278.25
876.0801	1321.1197	11108.45	10207.55
876.2243	1322.9982	11045	10140.65
876.3685	1324.876	10973.95	10075.05
876.5127	1326.753	10836.5	9939
876.6569	1328.6293	10746.45	9845
876.801	1330.5048	10701.95	9803.1
876.9452	1332.3796	10595.65	9696.05
877.0893	1334.2537	10609.95	9686
877.2335	1336.127	10538.85	9641.55
877.3776	1337.9996	10472.15	9573.35
877.5217	1339.8714	10445.45	9545.7
877.6658	1341.7426	10438.6	9495.1
877.8099	1343.6129	10402.1	9500.7
877.954	1345.4826	10385.85	9485.35
878.0981	1347.3515	10370.75	9468
878.2422	1349.2196	10293.45	9391.9
878.3862	1351.087	10317.35	9415.6
878.5303	1352.9537	10312.3	9409.95
878.6743	1354.8197	10312.3	9411.25
878.8184	1356.6849	10323.85	9425.15
878.9624	1358.5493	10306.4	9407.9
879.1064	1360.4131	10363.65	9465
879.2504	1362.276	10356.6	9457.2
879.3944	1364.1383	10353.6	9453.9
879.5384	1365.9998	10315.85	9411.7
879.6823	1367.8606	10259.45	9357.4
879.8263	1369.7206	10199.55	9297.8
879.9702	1371.5799	10080.25	9178.2
880.1142	1373.4384	9994.3	9094.5
880.2581	1375.2962	9951.35	9051.45
880.402	1377.1533	9842	8944.35
880.5459	1379.0096	9730.3	8831.25
880.6898	1380.8652	9657.85	8757.95
880.8337	1382.7201	9593.75	8694
880.9776	1384.5742	9472.45	8573
881.1215	1386.4275	9443.5	8542.65
881.2653	1388.2802	9362.5	8463.25
881.4092	1390.132	9321.05	8421.8
881.553	1391.9832	9303	8402.8
881.6968	1393.8336	9240.15	8338.7
881.8406	1395.6832	9196.95	8295.65
881.9844	1397.5322	9153.45	8254.65
882.1282	1399.3803	9117.4	8212.6
882.272	1401.2278	9060.85	8161.35
882.4158	1403.0745	9026.9	8128.8
882.5595	1404.9204	8997.25	8099.35
882.7033	1406.7656	8985.15	8085.55
882.847	1408.6101	8943.15	8042.35
882.9908	1410.4538	8904.75	8004.6
883.1345	1412.2968	8894.85	7994.9
883.2782	1414.139	8871.7	7971.3
883.4219	1415.9805	8882.2	7984.95
883.5656	1417.8213	8894	7975.15
883.7092	1419.6613	8852.45	7952.8
883.8529	1421.5006	8875.35	7975.05
883.9965	1423.3391	8870.8	7969.95
884.1402	1425.1769	8892.25	7992.55
884.2838	1427.0139	8973.55	8074.65
884.4274	1428.8502	9085.85	8186.15
884.571	1430.6858	9144.55	8246.8
884.7146	1432.5206	9177.9	8279.2
884.8582	1434.3547	9216.75	8317.3
885.0018	1436.188	9174.3	8276.55
885.1453	1438.0206	9156.55	8255.45
885.2889	1439.8524	9097.2	8196.7
885.4324	1441.6835	9101.7	8202.85
885.5759	1443.5139	9030.2	8128.4
885.7194	1445.3435	9038.1	8137.05
885.8629	1447.1724	8995.65	8097.3
886.0064	1449.0005	8973	8073.75
886.1499	1450.8279	8951.2	8053.1
886.2933	1452.6545	8917.15	8020.3
886.4368	1454.4804	8932.1	8035.15
886.5802	1456.3056	8895.6	7989.9
886.7237	1458.13	8863.6	7964.65
886.8671	1459.9536	8832.85	7934.9
887.0105	1461.7766	8765.6	7867.75
887.1539	1463.5987	8687.05	7787.05
887.2972	1465.4202	8624.9	7726.35
887.4406	1467.2409	8535.5	7637.55
887.584	1469.0608	8483.85	7586.05
887.7273	1470.88	8405.25	7507.25
887.8706	1472.6984	8351.4	7452.1
888.0139	1474.5161	8274.35	7374.9
888.1572	1476.3331	8238.85	7341.6
888.3005	1478.1493	8199.2	7302.2
888.4438	1479.9648	8166.45	7268.55
888.5871	1481.7795	8154.6	7257.3
888.7303	1483.5935	8124.3	7225.55
888.8736	1485.4067	8083.7	7183.25
889.0168	1487.2192	8073.4	7174.6
889.16	1489.031	8044.75	7143.55
889.3032	1490.842	8033.35	7135.25
889.4464	1492.6522	8014.45	7117.25
889.5896	1494.4618	7990.45	7090.5
889.7327	1496.2705	7973.4	7078.25
889.8759	1498.0785	7948.1	7050.3
890.019	1499.8858	7944.65	7045.95
890.1622	1501.6924	7920.95	7023.9
890.3053	1503.4981	7883.2	6982.85
890.4484	1505.3032	7865	6967.8
890.5914	1507.1075	7842.45	6943.9
890.7345	1508.911	7818.95	6922.3
890.8776	1510.7138	7792.75	6892.55
891.0206	1512.5159	7753.9	6857.25
891.1637	1514.3172	7733.4	6838.75
891.3067	1516.1178	7688.85	6793.95
891.4497	1517.9176	7686.7	6786.4
891.5927	1519.7166	7636.45	6741.35
891.7357	1521.515	7624.3	6720.6
891.8786	1523.3126	7600.15	6702.4
892.0216	1525.1094	7582.95	6683.95
892.1645	1526.9055	7562.5	6666.2
892.3074	1528.7008	7520.95	6624.95
892.4503	1530.4954	7487.6	6590.85
892.5932	1532.2893	7477.35	6582.85
892.7361	1534.0824	7447.3	6547.6
892.879	1535.8747	7446.15	6550.4
893.0218	1537.6663	7395.2	6497.75
893.1647	1539.4572	7367.8	6470.9
893.3075	1541.2473	7346	6449.35
893.4503	1543.0367	7344	6449.75
893.5931	1544.8253	7297.15	6396.55
893.7359	1546.6132	7313.6	6415.15
893.8787	1548.4003	7297.75	6391.95
894.0214	1550.1867	7295.15	6390.25
894.1642	1551.9723	7261.55	6361.6
894.3069	1553.7572	7279.85	6384.35
894.4496	1555.5414	7285.7	6391.45
894.5923	1557.3247	7292.85	6399.45
894.735	1559.1074	7313.8	6421.4
894.8777	1560.8893	7297.25	6404.8
895.0204	1562.6705	7312.45	6418.5
895.163	1564.4509	7331.85	6440.6
895.3056	1566.2305	7332	6440.2
895.4482	1568.0094	7340.65	6449.15
895.5908	1569.7876	7329.85	6436.55
895.7334	1571.565	7334.8	6440.75
895.876	1573.3417	7326.25	6431.6
896.0186	1575.1176	7273.95	6380.05
896.1611	1576.8928	7271.3	6379.5
896.3036	1578.6672	7253.9	6365.4
896.4461	1580.4409	7240.2	6353.1
896.5886	1582.2138	7232.8	6340.25
896.7311	1583.986	7253	6359.95
896.8736	1585.7575	7238.45	6348.7
897.0161	1587.5282	7260	6369.25
897.1585	1589.2981	7281.5	6392.15
897.3009	1591.0673	7283.9	6392.6
897.4433	1592.8358	7291.8	6400.2
897.5857	1594.6035	7266.95	6373.8
897.7281	1596.3704	7259.65	6367.35
897.8705	1598.1366	7233.6	6344.1
898.0128	1599.9021	7229.7	6340.35
898.1551	1601.6668	7217.85	6328.15
898.2975	1603.4308	7227.15	6335.8
898.4398	1605.194	7232.8	6336.5
898.5821	1606.9564	7232.1	6342.3
898.7243	1608.7182	7272.15	6380.9
898.8666	1610.4791	7325.45	6438.9
899.0088	1612.2394	7375.35	6488.85
899.1511	1613.9988	7440.1	6550.8
899.2933	1615.7576	7504.45	6616.4
899.4355	1617.5156	7574.15	6678.15
899.5776	1619.2728	7598.1	6706.6
899.7198	1621.0293	7532.2	6644.3
899.862	1622.785	7470.2	6578.8
900.0041	1624.54	7358.75	6468.4
900.1462	1626.2942	7249.8	6361.9
900.2883	1628.0477	7117.55	6228.2
900.4304	1629.8005	7005.2	6112.95
900.5725	1631.5525	6916	6028
900.7145	1633.3037	6848.4	5958.75
900.8566	1635.0542	6764.05	5875.45
900.9986	1636.804	6691.3	5802.95
901.1406	1638.553	6710.7	5750.3
901.2826	1640.3013	6607.75	5719.2
901.4245	1642.0488	6588.85	5699.25
901.5665	1643.7955	6563.7	5676.2
901.7085	1645.5416	6545.35	5656.95
901.8504	1647.2868	6534.4	5646.5
901.9923	1649.0313	6506.7	5617.2
902.1342	1650.7751	6526.15	5636.1
902.2761	1652.5181	6546.4	5658.25
902.4179	1654.2604	6528.75	5640.6
902.5598	1656.0019	6542.65	5653.75
902.7016	1657.7427	6566.1	5677.25
902.8434	1659.4828	6599.15	5711.3
902.9852	1661.222	6620.2	5731.25
903.127	1662.9606	6621	5734.7
903.2687	1664.6984	6620.8	5731.5
903.4105	1666.4354	6537.2	5646.35
903.5522	1668.1717	6440.55	5551.9
903.6939	1669.9072	6316.7	5427.5
903.8356	1671.642	6231.05	5339.15
903.9773	1673.3761	6157.8	5270.25
904.119	1675.1094	6073.6	5187.4
904.2606	1676.8419	6036.2	5147.95
904.4022	1678.5737	5958.95	5069.35
904.5439	1680.3048	5905.65	5017.45
904.6855	1682.0351	5855	4968.05
904.827	1683.7646	5836.85	4944.75
904.9686	1685.4934	5791.15	4902.15
905.1101	1687.2215	5791.9	4904.55
905.2517	1688.9488	5735.95	4848.7
905.3932	1690.6754	5722.4	4836.1
905.5347	1692.4012	5708.35	4820.65
905.6761	1694.1263	5671.25	4783.3
905.8176	1695.8506	5656.65	4767.15
905.9591	1697.5742	5645.7	4759.05
906.1005	1699.297	5603.15	4716.2
906.2419	1701.0191	5575.65	4688.75
906.3833	1702.7404	5556.15	4670
906.5246	1704.461	5536.75	4646.45
906.666	1706.1808	5519.25	4629.65
906.8073	1707.8999	5503	4614.15
906.9487	1709.6182	5496.5	4610.75
907.09	1711.3358	5453.4	4569.25
907.2313	1713.0527	5419.8	4535.7
907.3725	1714.7688	5417.3	4523.3
907.5138	1716.4841	5392.2	4504
907.655	1718.1987	5392.75	4500.55
907.7962	1719.9126	5366.85	4480.3
907.9374	1721.6257	5337.8	4447.9
908.0786	1723.338	5359.3	4473.15
908.2198	1725.0496	5316.85	4429.5
908.3609	1726.7605	5310.5	4423.2
908.502	1728.4706	5272.9	4386.35
908.6431	1730.18	5281.85	4394.15
908.7842	1731.8886	5258.2	4372
908.9253	1733.5964	5252.7	4359.1
909.0664	1735.3036	5244.75	4358.25
909.2074	1737.0099	5235.2	4349.5
909.3484	1738.7156	5209.1	4325
909.4894	1740.4204	5195.7	4307.45
909.6304	1742.1246	5199.15	4309.85
909.7714	1743.8279	5163.7	4277.8
909.9123	1745.5306	5166.95	4281.35
910.0532	1747.2325	5155.45	4266.9
910.1941	1748.9336	5110.25	4225.6
910.335	1750.634	5105.4	4217
910.4759	1752.3336	5112.75	4226.45
910.6168	1754.0325	5107.1	4222.05
910.7576	1755.7307	5102.95	4216.6
910.8984	1757.4281	5097.2	4209.95
911.0392	1759.1247	5103.05	4208.55
911.18	1760.8206	5072.9	4180.75
911.3208	1762.5158	5064.4	4170.45
911.4615	1764.2102	5035	4148.25
911.6022	1765.9039	5051.3	4165.4
911.7429	1767.5968	5028.55	4142.25
911.8836	1769.289	5002.2	4117.05
912.0243	1770.9804	4976.1	4087.75
912.1649	1772.6711	4988.5	4102.55
912.3056	1774.361	4968.7	4080.65
912.4462	1776.0502	4961.8	4074.55
912.5868	1777.7386	4961.95	4071.65
912.7274	1779.4263	4951.6	4066.3
912.8679	1781.1132	4948.7	4064.7
913.0084	1782.7994	4923.2	4036.05
913.149	1784.4849	4912.1	4027.9
913.2895	1786.1696	4903.05	4008.75
913.4299	1787.8535	4895.05	4010.85
913.5704	1789.5367	4879.35	3993.35
913.7108	1791.2192	4877.5	3993.15
913.8513	1792.9009	4876.65	3963.25
913.9917	1794.5818	4851.6	3962.8
914.132	1796.2621	4830.05	3945.9
914.2724	1797.9415	4827.25	3938.95
914.4128	1799.6202	4821.85	3936.75
914.5531	1801.2982	4820.15	3935.5
914.6934	1802.9755	4797.7	3910.75
914.8337	1804.6519	4802.7	3918.05
914.9739	1806.3277	4751.4	3866.2
915.1142	1808.0027	4748.9	3864
915.2544	1809.6769	4757.85	3871.35
915.3946	1811.3504	4725.15	3840.05
915.5348	1813.0231	4722.6	3838.65
915.675	1814.6951	4716.7	3829.75
915.8151	1816.3664	4705.3	3815.2
915.9553	1818.0369	4701.6	3813.95
916.0954	1819.7067	4674.6	3787.15
916.2355	1821.3757	4676.2	3789.6
916.3755	1823.044	4671.15	3784.75
916.5156	1824.7115	4663.95	3776.65
916.6556	1826.3783	4649.35	3762.95
916.7956	1828.0443	4640.85	3754.6
916.9356	1829.7096	4617.1	3729.05
917.0756	1831.3741	4634.2	3744.95
917.2155	1833.0379	4610.25	3724.95
917.3555	1834.701	4604.3	3717.35
917.4954	1836.3633	4599.3	3711.25
917.6353	1838.0248	4576.05	3690
917.7751	1839.6856	4596.6	3712.9
917.915	1841.3457	4571.9	3687.9
918.0548	1843.005	4553.35	3668.1
918.1946	1844.6636	4565.05	3679.8
918.3344	1846.3214	4545.85	3659.65
918.4742	1847.9785	4549.4	3663.4
918.6139	1849.6349	4526.7	3639.7
918.7537	1851.2904	4537.55	3642.35
918.8934	1852.9453	4505.15	3617.4
919.0331	1854.5994	4494.1	3604.15
919.1727	1856.2528	4508.1	3616.55
919.3124	1857.9054	4491.6	3604.3
919.452	1859.5572	4468.9	3584.1
919.5916	1861.2083	4465.15	3578.45
919.7312	1862.8587	4472.85	3587.05
919.8708	1864.5084	4448.35	3560.7
920.0103	1866.1572	4441.3	3556.65
920.1498	1867.8054	4423.15	3536.4
920.2893	1869.4528	4446.25	3561
920.4288	1871.0994	4413.65	3528.2
920.5683	1872.7453	4403	3516.7
920.7077	1874.3905	4413	3520.75
920.8471	1876.0349	4399.25	3511.55
920.9865	1877.6786	4390.25	3502.75
921.1259	1879.3215	4372.65	3487.65
921.2653	1880.9637	4361.6	3475.15
921.4046	1882.6051	4350.35	3463.8
921.5439	1884.2458	4355.35	3467.25
921.6832	1885.8858	4349	3463.55
921.8225	1887.525	4329.75	3444.45
921.9617	1889.1634	4322.4	3434.65
922.101	1890.8011	4296.3	3409.55
922.2402	1892.4381	4287.2	3403.35
922.3794	1894.0743	4298.55	3413
922.5185	1895.7098	4286.4	3400.35
922.6577	1897.3446	4290.05	3403.15
922.7968	1898.9786	4250.5	3359.25
922.9359	1900.6118	4259.2	3375.6
923.075	1902.2443	4240.6	3353.85
923.214	1903.8761	4234.9	3349.4
923.3531	1905.5071	4214.4	3328.45
923.4921	1907.1374	4205.4	3318.75
923.6311	1908.7669	4203.15	3318.55
923.77	1910.3957	4186.65	3299.55
923.909	1912.0237	4174.25	3289.7
924.0479	1913.651	4163.2	3277.35
924.1868	1915.2776	4136.5	3253.25
924.3257	1916.9034	4132.05	3250.7
924.4646	1918.5285	4128.9	3243.1
924.6034	1920.1528	4106.5	3222.55
924.7422	1921.7764	4093.1	3206.7
924.881	1923.3992	4099.85	3214.65
925.0198	1925.0213	4077.45	3193.05
925.1586	1926.6427	4057.3	3173.1
925.2973	1928.2633	4116.3	3162.05
925.436	1929.8832	4053.55	3165.3
925.5747	1931.5023	4018.85	3133.1
925.7134	1933.1207	4019.45	3132.7
925.852	1934.7383	4018	3132.2
925.9906	1936.3552	4002.9	3119
926.1292	1937.9714	4006.1	3122
926.2678	1939.5868	3983.9	3095.15
926.4064	1941.2015	3973.25	3086.15
926.5449	1942.8154	3948.85	3063.1
926.6834	1944.4286	3951.8	3065.85
926.8219	1946.041	3966.5	3057.8
926.9604	1947.6528	3917.2	3025.85
927.0988	1949.2637	3905.85	3022.45
927.2372	1950.8739	3886.55	2999.35
927.3756	1952.4834	3895.4	3007.4
927.514	1954.0921	3894.4	3008.8
927.6523	1955.7001	3878.5	2989.4
927.7907	1957.3074	3855.8	2973.25
927.929	1958.9139	3855.35	2970.4
928.0673	1960.5197	3857.8	2970.45
928.2055	1962.1247	3833.4	2947.6
928.3438	1963.729	3811.7	2928.7
928.482	1965.3325	3816.95	2908
928.6202	1966.9353	3803.85	2919.8
928.7584	1968.5374	3796.85	2910.85
928.8965	1970.1387	3801.65	2915.3
929.0346	1971.7393	3760.9	2874.8
929.1727	1973.3392	3762.3	2878.25
929.3108	1974.9383	3747	2864.4
929.4489	1976.5366	3739.4	2855.05
929.5869	1978.1342	3717.15	2829.75
929.7249	1979.7311	3725.95	2838.4
929.8629	1981.3273	3734.3	2849.6
930.0009	1982.9227	3716.55	2829.75
930.1388	1984.5173	3692.6	2807.6
930.2767	1986.1112	3692.6	2808.8
930.4146	1987.7044	3683.05	2799.95
930.5525	1989.2968	3666.7	2781.15
930.6904	1990.8885	3660.85	2772.2
930.8282	1992.4795	3653.45	2767.6
930.966	1994.0697	3640.25	2754.25
931.1038	1995.6592	3630.3	2746.4
931.2415	1997.2479	3639.9	2755.5
931.3793	1998.8359	3622.35	2738.5
931.517	2000.4232	3613.25	2729.75
931.6547	2002.0097	3596.5	2716.25
931.7923	2003.5955	3591.4	2707.85
931.93	2005.1805	3597.5	2713.4
932.0676	2006.7648	3580.85	2697.5
932.2052	2008.3484	3561.4	2678.5
932.3427	2009.9312	3572.7	2686.4
932.4803	2011.5133	3546.1	2664.45
932.6178	2013.0946	3536.05	2653.5
932.7553	2014.6752	3540.3	2656.5
932.8928	2016.2551	3540.75	2656.5
933.0302	2017.8342	3522.85	2638.15
933.1676	2019.4126	3511.05	2628.75
933.305	2020.9902	3504.8	2621.1
933.4424	2022.5672	3497.4	2613.85
933.5798	2024.1433	3494.95	2605.35
933.7171	2025.7188	3481.2	2600.3
933.8544	2027.2935	3488.7	2604
933.9917	2028.8674	3477.05	2593.05
934.129	2030.4406	3461.4	2580.5
934.2662	2032.0131	3440.65	2558.45
934.4034	2033.5849	3428.6	2543.65
934.5406	2035.1559	3438.95	2556.4
934.6778	2036.7261	3437.85	2554.2
934.8149	2038.2957	3422.45	2538.7
934.952	2039.8645	3414.9	2531.7
935.0891	2041.4325	3406.6	2519.65
935.2262	2042.9998	3395.15	2512.4
935.3632	2044.5664	3410.2	2525.15
935.5002	2046.1323	3386.1	2503.85
935.6372	2047.6974	3369.9	2485.15
935.7742	2049.2617	3360.9	2479.4
935.9111	2050.8254	3374.5	2484.2
936.048	2052.3883	3365.6	2480.3
936.1849	2053.9504	3367.3	2482.35
936.3218	2055.5118	3348.2	2463.95
936.4586	2057.0725	3332.2	2443.3
936.5955	2058.6325	3333.9	2450.05
936.7323	2060.1917	3328.2	2445.05
936.869	2061.7502	3320.8	2432.7
937.0058	2063.3079	3321.05	2439.05
937.1425	2064.8649	3308.15	2418.3
937.2792	2066.4212	3306.7	2421.7
937.4159	2067.9767	3287	2403.35
937.5525	2069.5315	3276.3	2392.05
937.6891	2071.0856	3270.15	2388.25
937.8257	2072.6389	3267.4	2384.1
937.9623	2074.1915	3247.3	2365.65
938.0989	2075.7433	3234.3	2349.6
938.2354	2077.2945	3236.4	2354.7
938.3719	2078.8448	3238.75	2353.5
938.5084	2080.3945	3216.15	2333.85
938.6448	2081.9434	3223.1	2337.6
938.7812	2083.4916	3202.9	2318.35
938.9176	2085.039	3195.4	2309.15
939.054	2086.5857	3204.95	2320.7
939.1903	2088.1317	3191.95	2307.55
939.3267	2089.677	3184.9	2298.85
939.463	2091.2215	3180.8	2294.5
939.5992	2092.7652	3184.85	2298.8
939.7355	2094.3083	3179.35	2293.6
939.8717	2095.8506	3159.05	2274.8
940.0079	2097.3921	3158.4	2274.85
940.1441	2098.933	3154.35	2270.75
940.2802	2100.4731	3154.65	2269.9
940.4163	2102.0124	3160.7	2267.3
940.5524	2103.5511	3145.9	2262.25
940.6885	2105.089	3131.1	2244.4
940.8245	2106.6261	3128.15	2242.75
940.9606	2108.1626	3129.45	2243.25
941.0965	2109.6983	3144.55	2229.65
941.2325	2111.2332	3111.55	2224.6
941.3684	2112.7675	3100.7	2215.9
941.5044	2114.301	3090.55	2204.1
941.6403	2115.8337	3097.15	2212.4
941.7761	2117.3657	3083.7	2198.55
941.912	2118.897	3083.75	2197.95
942.0478	2120.4276	3096.9	2208.5
942.1835	2121.9575	3059.45	2172.3
942.3193	2123.4866	3062.8	2175.45
942.455	2125.0149	3065.5	2176.15
942.5907	2126.5426	3054.05	2169.65
942.7264	2128.0695	3033.65	2146.2
942.8621	2129.5956	3029.05	2145.75
942.9977	2131.1211	3036.5	2147.6
943.1333	2132.6458	3015.85	2133.65
943.2689	2134.1698	3022.9	2139.95
943.4044	2135.693	3009.65	2122.65
943.54	2137.2155	3009.8	2119.7
943.6755	2138.7373	2999.5	2113.85
943.8109	2140.2584	3008.45	2123.5
943.9464	2141.7787	3004.05	2115.4
944.0818	2143.2983	2974.9	2094
944.2172	2144.8171	2979.5	2098.8
944.3526	2146.3353	2959.55	2074.6
944.4879	2147.8527	2967.2	2083.65
944.6232	2149.3693	2959.7	2073.35
944.7585	2150.8853	2945.25	2061
944.8938	2152.4005	2938.65	2052.5
945.029	2153.9149	2933.4	2046.9
945.1642	2155.4287	3012.4	2018.75
945.2994	2156.9417	2944.9	2056.65
945.4346	2158.454	2914.2	2026.4
945.5697	2159.9655	2906.65	2020.85
945.7048	2161.4764	2915.4	2031.4
945.8399	2162.9865	2911.55	2027.25
945.9749	2164.4958	2896.9	2012.6
946.1099	2166.0045	2882	1996.4
946.2449	2167.5124	2888.35	2003.6
946.3799	2169.0195	2884.55	2000.45
946.5148	2170.526	2885.75	1999.65
946.6498	2172.0317	2852.9	1967.75
946.7846	2173.5367	2857.8	1971.45
946.9195	2175.0409	2857.35	1974.95
947.0543	2176.5445	2855.35	1971.85
947.1891	2178.0473	2840.8	1954.15
947.3239	2179.5494	2828.65	1939.7
947.4587	2181.0507	2837.25	1952.55
947.5934	2182.5513	2820.2	1937.2
947.7281	2184.0512	2829.8	1945.55
947.8628	2185.5504	2809.45	1926.35
947.9974	2187.0488	2793.55	1909.75
948.132	2188.5465	2798.5	1914.3
948.2666	2190.0435	2791.85	1906.05
948.4012	2191.5397	2781	1896.35
948.5357	2193.0353	2768.1	1883.85
948.6702	2194.5301	2777.4	1888.85
948.8047	2196.0241	2754.35	1868.1
948.9392	2197.5175	2743.8	1856.85
949.0736	2199.0101	2742.5	1852.85
949.208	2200.502	2743.4	1857.85
949.3424	2201.9931	2731.15	1847.75
949.4767	2203.4835	2728	1842.4
949.611	2204.9733	2741.7	1840.65
949.7453	2206.4622	2717.35	1834.85
949.8796	2207.9505	2710.05	1822.2
950.0138	2209.438	2697.9	1815.2
950.148	2210.9248	2698.1	1812.95
950.2822	2212.4109	2690.95	1807.85
950.4164	2213.8962	2688.95	1801.55
950.5505	2215.3809	2689.2	1802.05
950.6846	2216.8648	2690.25	1804.1
950.8186	2218.3479	2680.25	1789.25
950.9527	2219.8304	2655.5	1766.65
951.0867	2221.3121	2657.8	1769.35
951.2207	2222.7931	2655.5	1770.7
951.3546	2224.2733	2638.5	1754.85
951.4886	2225.7529	2626.75	1739.4
951.6225	2227.2317	2628.4	1740.65
951.7563	2228.7098	2621.3	1737.85
951.8902	2230.1872	2615.8	1730.45
952.024	2231.6638	2614	1730.55
952.1578	2233.1397	2612.4	1725.2
952.2916	2234.6149	2606.25	1721.95
952.4253	2236.0894	2600.25	1713
952.559	2237.5632	2591.25	1703.1
952.6927	2239.0362	2580.05	1694.25
952.8263	2240.5085	2582.7	1697.25
952.9599	2241.9801	2573.6	1687.1
953.0935	2243.4509	2574.85	1689.35
953.2271	2244.921	2556.8	1671.35
953.3606	2246.3904	2545.15	1658
953.4941	2247.8591	2551.8	1666.8
953.6276	2249.3271	2546.85	1662.45
953.7611	2250.7943	2547.65	1662.1
953.8945	2252.2608	2520.55	1632.85
954.0279	2253.7266	2531	1646.45
954.1612	2255.1917	2523.6	1638.2
954.2946	2256.656	2523.65	1640
954.4279	2258.1197	2506.05	1622.55
954.5612	2259.5826	2497.2	1611.15
954.6944	2261.0447	2507.65	1622.95
954.8276	2262.5062	2502.45	1615.3
954.9608	2263.9669	2503.2	1616.75
955.094	2265.4269	2489.5	1604.25
955.2271	2266.8862	2477.05	1591.9
955.3602	2268.3448	2480.45	1594.15
955.4933	2269.8026	2472.4	1587.05
955.6264	2271.2598	2470.95	1585.35
955.7594	2272.7162	2472.1	1588.55
955.8924	2274.1719	2473.6	1587.85
956.0253	2275.6268	2459.35	1571.85
956.1583	2277.0811	2460.1	1573.35
956.2912	2278.5346	2446.4	1561.65
956.4241	2279.9874	2442.05	1557.7
956.5569	2281.4395	2443.45	1560.2
956.6897	2282.8908	2432.15	1543.8
956.8225	2284.3414	2431.85	1546.35
956.9553	2285.7914	2433.6	1550.55
957.088	2287.2406	2414.9	1528.3
957.2207	2288.689	2422.1	1535.65
957.3534	2290.1368	2412.15	1525.05
957.486	2291.5838	2414.25	1525.1
957.6186	2293.0302	2395.2	1506.1
957.7512	2294.4758	2383.95	1496.7
957.8838	2295.9206	2377.35	1488.4
958.0163	2297.3648	2383.8	1497.6
958.1488	2298.8082	2388.7	1504.1
958.2813	2300.251	2369.35	1484.5
958.4137	2301.693	2382	1493.15
958.5461	2303.1343	2372	1485.6
958.6785	2304.5748	2368.8	1484.65
958.8108	2306.0147	2358.7	1472.55
958.9432	2307.4538	2353.2	1465.7
959.0754	2308.8922	2348.55	1464.65
959.2077	2310.3299	2346.95	1464.6
959.3399	2311.7669	2329.3	1445
959.4721	2313.2031	2337	1451.65
959.6043	2314.6387	2332.2	1445.35
959.7365	2316.0735	2324.85	1438.5
959.8686	2317.5076	2315.7	1431
960.0006	2318.941	2315.5	1429.15
960.1327	2320.3737	2321.95	1435.5
960.2647	2321.8056	2312.75	1423.35
960.3967	2323.2369	2300.6	1417.35
960.5287	2324.6674	2301.15	1412.75
960.6606	2326.0972	2301.75	1415.15
960.7925	2327.5263	2289.5	1404.5
960.9244	2328.9547	2290	1403.3
961.0562	2330.3823	2277.95	1392.05
961.1881	2331.8092	2287.2	1398.05
961.3198	2333.2355	2269.95	1382.7
961.4516	2334.661	2266.55	1379.45
961.5833	2336.0858	2267.95	1378.1
961.715	2337.5098	2256.5	1371
961.8467	2338.9332	2252.5	1365.9
961.9783	2340.3558	2255.25	1365.4
962.1099	2341.7778	2247.85	1362.55
962.2415	2343.199	2243.9	1355.85
962.373	2344.6195	2231.15	1347.1
962.5045	2346.0393	2229.95	1343.85
962.636	2347.4583	2221.65	1337.1
962.7675	2348.8767	2226.65	1338.5
962.8989	2350.2943	2213.9	1326.1
963.0303	2351.7113	2210.7	1321.6
963.1617	2353.1275	2207.45	1319.15
963.293	2354.543	2222.25	1313.2
963.4243	2355.9578	2202	1315.1
963.5556	2357.3718	2189.8	1304.05
963.6868	2358.7852	2190.3	1301.15
963.818	2360.1978	2177	1292.1
963.9492	2361.6098	2177.55	1293.45
964.0803	2363.021	2172.75	1283.95
964.2114	2364.4315	2169.95	1283.25
964.3425	2365.8413	2163.8	1269.3
964.4736	2367.2504	2150.5	1265.25
964.6046	2368.6587	2144.15	1256.7
964.7356	2370.0664	2144.05	1259.4
964.8666	2371.4733	2136.2	1251.55
964.9975	2372.8795	2139.75	1253.2
965.1284	2374.285	2138.4	1251.9
965.2593	2375.6899	2119.05	1234.25
965.3901	2377.0939	2112.9	1227.35
965.5209	2378.4973	2101.9	1217.75
965.6517	2379.9	2109.85	1224.6
965.7825	2381.3019	2095.95	1211.85
965.9132	2382.7032	2079.15	1194.45
966.0439	2384.1037	2081.15	1198.45
966.1745	2385.5035	2083.75	1198.8
966.3051	2386.9027	2079.35	1194.8
966.4357	2388.3011	2077	1188.45
966.5663	2389.6987	2069.15	1184.5
966.6968	2391.0957	2060.3	1175.6
966.8273	2392.492	2062.95	1178.6
966.9578	2393.8876	2045.35	1158.7
967.0882	2395.2824	2047.05	1160.7
967.2186	2396.6765	2040.5	1158.05
967.349	2398.07	2041.1	1155.85
967.4793	2399.4627	2030.75	1143.1
967.6097	2400.8547	2032.1	1146.1
967.7399	2402.246	2037.45	1144.65
967.8702	2403.6366	2025.65	1139.7
968.0004	2405.0265	2015.3	1129.3
968.1306	2406.4156	2020.75	1133.25
968.2607	2407.8041	2003.75	1115.4
968.3909	2409.1918	2013.2	1126.55
968.521	2410.5789	1997.7	1110.3
968.651	2411.9652	1992.2	1103
968.781	2413.3508	1990	1103.15
968.911	2414.7358	1982.8	1097.15
969.041	2416.12	1979.05	1092.1
969.1709	2417.5035	1975.25	1089.95
969.3008	2418.8863	1973.15	1086.9
969.4307	2420.2684	1963.95	1077.15
969.5606	2421.6497	1961.25	1075.95
969.6904	2423.0304	1961.35	1075.4
969.8201	2424.4104	1958.1	1072.2
969.9499	2425.7896	1964.4	1076.75
970.0796	2427.1682	1955.7	1070.65
970.2093	2428.546	1948.75	1064.05
970.3389	2429.9232	1935.3	1046.85
970.4685	2431.2996	1942.85	1057.65
970.5981	2432.6753	1939.45	1053.55
970.7277	2434.0503	1942.25	1056.05
970.8572	2435.4246	1925.55	1039.75
970.9867	2436.7982	1930.1	1040.7
971.1161	2438.1711	1921.9	1035
971.2456	2439.5433	1913.9	1025.4
971.375	2440.9148	1922.8	1033.7
971.5043	2442.2856	1912.75	1028.5
971.6336	2443.6557	1906.2	1020
971.7629	2445.025	1906.75	1020.35
971.8922	2446.3937	1899.35	1011.75
972.0214	2447.7617	1894.8	1007.9
972.1506	2449.1289	1897.75	1010.9
972.2798	2450.4955	1895.55	1006.5
972.4089	2451.8613	1890.2	1005.5
972.538	2453.2265	1882.75	998.15
972.6671	2454.5909	1888.1	1000.55
972.7961	2455.9546	1879.75	993.75
972.9251	2457.3177	1875.75	991.05
973.0541	2458.68	1872.9	986.85
973.1831	2460.0416	1871.55	985.75
973.312	2461.4025	1870.15	981.95
973.4408	2462.7627	1872.4	975.65
973.5697	2464.1222	1860.15	976.1
973.6985	2465.4811	1860.05	974.4
973.8273	2466.8392	1857.65	970.55
973.956	2468.1966	1848.45	960.6
974.0847	2469.5533	1847.65	958.65
974.2134	2470.9093	1848.55	961.55
974.3421	2472.2645	1842.95	958.45
974.4707	2473.6191	1835.55	951.35
974.5993	2474.973	1834.95	949.3
974.7278	2476.3262	1835.1	947.05
974.8563	2477.6787	1827.1	941.65
974.9848	2479.0305	1823.65	938.75
975.1132	2480.3816	1829.2	943.85
975.2417	2481.7319	1819.1	934.9
975.37	2483.0816	1816.35	928.55
975.4984	2484.4306	1810.8	924.05
975.6267	2485.7789	1803.65	917.5
975.755	2487.1264	1808.75	922.3
975.8833	2488.4733	1792.45	908.65
976.0115	2489.8195	1804.3	899.5
976.1397	2491.165	1794.85	904.9
976.2678	2492.5097	1787.85	900.35
976.3959	2493.8538	1784.8	900.5
976.524	2495.1972	1788.15	902.35
976.6521	2496.5398	1779.65	892.6
976.7801	2497.8818	1772.95	886.25
976.9081	2499.2231	1772.35	887.85
977.036	2500.5637	1769.45	880.7
977.164	2501.9035	1766.55	881.1
977.2918	2503.2427	1763.35	873.9
977.4197	2504.5812	1766.95	881.65
977.5475	2505.919	1753.1	864.55
977.6753	2507.256	1759.2	871.45
977.8031	2508.5924	1750.8	863.9
977.9308	2509.9281	1754.15	862.15
978.0585	2511.2631	1740.3	852.8
978.1861	2512.5974	1750.65	865.45
978.3137	2513.9309	1738.15	852.4
978.4413	2515.2638	1750.15	837.3
978.5689	2516.596	1728.55	843.05
978.6964	2517.9275	1734.85	848.85
978.8239	2519.2583	1727.7	840.4
978.9513	2520.5884	1718.6	832.2
979.0788	2521.9178	1714.45	829.35
979.2062	2523.2465	1707.4	820.7
979.3335	2524.5745	1711.4	827.55
979.4608	2525.9018	1712	825.25
979.5881	2527.2284	1707.2	823.8
979.7154	2528.5543	1708.4	824.7
979.8426	2529.8796	1700.35	814.35
979.9698	2531.2041	1705.2	818.85
980.0969	2532.5279	1693.9	809.9
980.224	2533.851	1696.4	810.45
980.3511	2535.1735	1698.05	813.05
980.4781	2536.4952	1684.4	798.3
980.6052	2537.8163	1691.55	805.1
980.7321	2539.1366	1693.45	808.05
980.8591	2540.4562	1689.35	800.65
980.986	2541.7752	1693.2	808.45
981.1129	2543.0935	1673.5	788.15
981.2397	2544.411	1672.55	784.55
981.3665	2545.7279	1674.2	789.25
981.4933	2547.0441	1669.3	786.55
981.62	2548.3596	1684.6	796.35
981.7467	2549.6744	1675.75	791.35
981.8734	2550.9885	1669.15	781.85
982.0001	2552.3019	1670.95	785.25
982.1267	2553.6146	1662.45	776.3
982.2532	2554.9266	1663.3	776.1
982.3798	2556.2379	1657.9	771
982.5063	2557.5485	1656.05	770.8
982.6327	2558.8585	1656.1	762
982.7592	2560.1677	1657.25	769.75
982.8856	2561.4762	1640.5	754.2
983.0119	2562.7841	1650.65	763.8
983.1383	2564.0913	1643	757.9
983.2646	2565.3977	1641.35	756.55
983.3908	2566.7035	1646.5	760.4
983.517	2568.0086	1640.8	752.75
983.6432	2569.313	1638.05	750.9
983.7694	2570.6167	1633	744.45
983.8955	2571.9197	1632.9	748.25
984.0216	2573.222	1642.75	753.5
984.1476	2574.5236	1636.65	750.75
984.2737	2575.8246	1626.8	739.9
984.3996	2577.1248	1628.4	740.05
984.5256	2578.4244	1621.05	736.1
984.6515	2579.7232	1621	735.6
984.7774	2581.0214	1655.1	738.9
984.9032	2582.3189	1625.75	741.2
985.029	2583.6157	1629.35	738
985.1548	2584.9118	1614.8	727.35
985.2806	2586.2072	1615.15	729.1
985.4063	2587.5019	1611.5	725.2
985.5319	2588.7959	1608.3	722.3
985.6576	2590.0893	1603.65	717.35
985.7832	2591.3819	1604.05	720
985.9087	2592.6739	1604.4	719.65
986.0343	2593.9652	1601.4	712.45
986.1597	2595.2557	1600.7	713.35
986.2852	2596.5456	1601.65	714.05
986.4106	2597.8348	1594.2	710.75
986.536	2599.1234	1585.9	698.8
986.6614	2600.4112	1585.5	698.45
986.7867	2601.6983	1589.35	701.35
986.912	2602.9848	1582.15	695.35
987.0372	2604.2705	1589.95	698.55
987.1624	2605.5556	1575.65	689.4
987.2876	2606.84	1570.7	685.1
987.4128	2608.1237	1570.1	684.4
987.5379	2609.4067	1570.5	682.6
987.6629	2610.689	1577.65	685.4
987.788	2611.9707	1561	671.9
987.913	2613.2516	1565.35	676.4
988.0379	2614.5319	1558.75	672.6
988.1629	2615.8115	1552.4	665.75
988.2878	2617.0903	1549.45	661.4
988.4126	2618.3685	1546.8	662.35
988.5375	2619.6461	1540.2	656.4
988.6622	2620.9229	1541.8	656.5
988.787	2622.199	1535.85	649.4
988.9117	2623.4745	1540.6	655.55
989.0364	2624.7493	1533.55	648.5
989.161	2626.0234	1531.2	646.35
989.2857	2627.2968	1535.9	650.65
989.4102	2628.5695	1520.85	636.7
989.5348	2629.8415	1524.85	639.2
989.6593	2631.1128	1524.9	639.75
989.7837	2632.3835	1518	633.9
989.9082	2633.6535	1512.85	630.35
990.0326	2634.9228	1513.9	629
990.1569	2636.1914	1510.2	627.85
990.2812	2637.4593	1507	620.05
990.4055	2638.7265	1502.9	616.65
990.5298	2639.9931	1497.65	612.85
990.654	2641.259	1502.65	618.5
990.7782	2642.5242	1506.7	620.65
990.9023	2643.7887	1502.25	617.55
991.0264	2645.0525	1501.15	616.25
991.1505	2646.3156	1509.35	610.95
991.2745	2647.5781	1483.35	599.6
991.3985	2648.8398	1490.45	605.05
991.5225	2650.1009	1507	597.65
991.6464	2651.3613	1486.35	602.25
991.7703	2652.6211	1486.9	603.7
991.8942	2653.8801	1482.85	600.1
992.018	2655.1385	1487.45	600.75
992.1418	2656.3961	1478.65	591.6
992.2655	2657.6531	1474.25	587.2
992.3892	2658.9094	1475.05	589.25
992.5129	2660.1651	1472.7	588.45
992.6366	2661.42	1476.2	590.9
992.7602	2662.6743	1481.6	596.15
992.8837	2663.9279	1466.25	579.95
993.0073	2665.1808	1466.75	580.75
993.1307	2666.433	1464.5	576.85
993.2542	2667.6846	1461.25	578
993.3776	2668.9354	1467.15	578.5
993.501	2670.1856	1457.55	571.5
993.6244	2671.4351	1459.5	575.7
993.7477	2672.6839	1466.55	579.8
993.8709	2673.9321	1459.65	577.15
993.9942	2675.1795	1456.5	570.6
994.1174	2676.4263	1450.5	565.3
994.2405	2677.6724	1453.6	568.05
994.3637	2678.9179	1448.8	562.35
994.4868	2680.1626	1453.85	570.5
994.6098	2681.4067	1452.05	567.95
994.7328	2682.6501	1448.05	564.95
994.8558	2683.8928	1444.35	559.95
994.9788	2685.1348	1439.15	554.95
995.1017	2686.3761	1441.15	556.9
995.2245	2687.6168	1438.1	553.75
995.3474	2688.8568	1433.7	550.45
995.4702	2690.0961	1427.65	543.1
995.5929	2691.3348	1430.6	546.55
995.7156	2692.5727	1426.35	540.55
995.8383	2693.81	1425.05	542
995.961	2695.0466	1417.15	533.4
996.0836	2696.2826	1424.2	538.9
996.2062	2697.5178	1420.3	531.25
996.3287	2698.7524	1416.7	531
996.4512	2699.9863	1420.05	532.4
996.5737	2701.2195	1407.4	524.7
996.6961	2702.452	1411.75	526.15
996.8185	2703.6839	1412.9	526
996.9408	2704.9151	1413.55	530.15
997.0631	2706.1456	1417.55	530.4
997.1854	2707.3755	1406.75	522.15
997.3077	2708.6046	1419.8	531.55
997.4299	2709.8331	1415.2	530.65
997.552	2711.0609	1408.8	524.05
997.6742	2712.2881	1408.15	524.95
997.7963	2713.5145	1405.75	517.85
997.9183	2714.7403	1408.65	524.2
998.0403	2715.9654	1412.75	527.05
998.1623	2717.1899	1424.6	526.25
998.2842	2718.4136	1402.95	517.8
998.4062	2719.6367	1407.1	522.9
998.528	2720.8591	1409.65	516.6
998.6498	2722.0809	1407.8	522.35
998.7716	2723.3019	1408.95	521.75
998.8934	2724.5223	1406	519.95
999.0151	2725.7421	1400.65	514.45
999.1368	2726.9611	1400.55	514.5
999.2584	2728.1795	1409.25	521.35
999.38	2729.3972	1398.45	513.85
999.5016	2730.6142	1398.05	509.2
999.6231	2731.8306	1385.65	498.65
999.7446	2733.0462	1385.8	498.75
999.8661	2734.2612	1382.4	493.25
999.9875	2735.4756	1379.65	495.1
1000.1089	2736.6892	1372.25	488.4
1000.2302	2737.9022	1368.4	485.2
1000.3515	2739.1145	1363.8	480.25
1000.4728	2740.3262	1368.15	476.15
1000.594	2741.5372	1355.1	471.2
1000.7152	2742.7475	1349.3	465.15
1000.8363	2743.9571	1347.55	462.1
1000.9575	2745.1661	1352.5	464.45
1001.0785	2746.3744	1348.45	464.4
1001.1996	2747.582	1343.9	458
1001.3206	2748.7889	1344.8	459.35
1001.4415	2749.9952	1343.35	458.9
1001.5625	2751.2008	1340.55	453.3
1001.6833	2752.4057	1333.75	446.35
1001.8042	2753.61	1327.65	444.45
1001.925	2754.8136	1337.4	451.95
1002.0458	2756.0165	1330.85	446.5
1002.1665	2757.2188	1328.3	444.8
1002.2872	2758.4204	1325.35	443.45
1002.4078	2759.6213	1325.8	438.5
1002.5285	2760.8215	1323.8	436.5
1002.649	2762.0211	1322.85	437.85
1002.7696	2763.22	1321.85	433.85
1002.8901	2764.4182	1318.7	434.05
1003.0106	2765.6158	1310.55	424.6
1003.131	2766.8127	1311.8	426.1
1003.2514	2768.009	1307.45	422.65
1003.3717	2769.2045	1310.4	425.6
1003.492	2770.3994	1308.4	420
1003.6123	2771.5936	1312.35	427.2
1003.7325	2772.7872	1309.1	426
1003.8527	2773.9801	1306.4	420.05
1003.9729	2775.1723	1316.75	414.85
1004.093	2776.3639	1299.05	417.1
1004.2131	2777.5548	1301.7	413.95
1004.3331	2778.745	1293	406.95
1004.4531	2779.9346	1293.65	410.2
1004.5731	2781.1235	1289.2	403.5
1004.693	2782.3117	1290.15	407.4
1004.8129	2783.4992	1293.95	410.2
1004.9328	2784.6861	1295.9	411.5
1005.0526	2785.8723	1287.75	401.1
1005.1723	2787.0579	1287.25	402.15
1005.2921	2788.2428	1291.2	407.5
1005.4118	2789.427	1280.45	396.7
1005.5314	2790.6106	1286.5	403.8
1005.651	2791.7935	1287.1	402.9
1005.7706	2792.9757	1279.35	395.75
1005.8902	2794.1573	1286.1	400.8
1006.0097	2795.3382	1286	401.4
1006.1291	2796.5184	1278.5	396.9
1006.2485	2797.698	1285.9	400.45
1006.3679	2798.8769	1284.05	401.3
1006.4873	2800.0551	1284.15	399.65
1006.6066	2801.2327	1288.65	401.35
1006.7258	2802.4096	1275.75	392.8
1006.8451	2803.5859	1286.05	402.15
1006.9642	2804.7615	1289.25	405.15
1007.0834	2805.9364	1282.9	400.65
1007.2025	2807.1106	1293.05	408
1007.3216	2808.2842	1296.55	411.05
1007.4406	2809.4572	1294.9	411.6
1007.5596	2810.6294	1300.65	415.75
1007.6785	2811.801	1300.25	418.8
1007.7975	2812.972	1310.65	428.2
1007.9163	2814.1423	1319.85	437.75
1008.0352	2815.3119	1321.45	437.7
1008.154	2816.4808	1325.3	442.5
1008.2727	2817.6491	1333.6	445.75
1008.3914	2818.8167	1342	461.2
1008.5101	2819.9837	1353.4	465.3
1008.6288	2821.15	1356.35	474.15
1008.7474	2822.3157	1365.6	482.9
1008.8659	2823.4807	1376.45	493.05
1008.9844	2824.645	1389.75	504.85
1009.1029	2825.8086	1394.4	512.75
1009.2214	2826.9716	1407.85	524.95
1009.3398	2828.134	1412.1	528.35
1009.4581	2829.2957	1414	530.8
1009.5764	2830.4567	1426.3	544.65
1009.6947	2831.617	1432	546.6
1009.813	2832.7767	1425.35	541.25
1009.9312	2833.9358	1432.2	549.2
1010.0493	2835.0941	1434.85	549.7
1010.1675	2836.2519	1418.6	536.75
1010.2855	2837.4089	1415	529.2
1010.4036	2838.5653	1411.8	528.4
1010.5216	2839.7211	1406.2	524.75
1010.6396	2840.8761	1413.3	527.6
1010.7575	2842.0306	1409.8	528.3
1010.8754	2843.1843	1412.35	528
1010.9932	2844.3374	1411.9	530.7
1011.111	2845.4899	1427.8	542.8
1011.2288	2846.6417	1432.85	548.4
1011.3465	2847.7928	1440.05	557.6
1011.4642	2848.9433	1443.8	560.3
1011.5818	2850.0931	1447.05	564.35
1011.6995	2851.2422	1462.7	578.15
1011.817	2852.3907	1471.05	588.8
1011.9345	2853.5385	1480.5	596.15
1012.052	2854.6857	1500.7	608.15
1012.1695	2855.8323	1491.3	607.45
1012.2869	2856.9781	1497.5	614.4
1012.4042	2858.1233	1501.9	618.75
1012.5216	2859.2679	1513.4	632.3
1012.6389	2860.4118	1523.4	641.3
1012.7561	2861.555	1529.85	642.65
1012.8733	2862.6976	1533.65	648.4
1012.9905	2863.8395	1538.25	653.8
1013.1076	2864.9808	1542.65	661.4
1013.2247	2866.1214	1547.7	664.85
1013.3417	2867.2614	1545.2	663.55
1013.4587	2868.4007	1549.25	664.4
1013.5757	2869.5393	1555.25	671.3
1013.6926	2870.6773	1558.2	670.85
1013.8095	2871.8146	1554.8	668.35
1013.9263	2872.9513	1557.15	668.85
1014.0431	2874.0874	1552.35	668.75
1014.1599	2875.2227	1542.95	657.95
1014.2766	2876.3574	1542.6	658.3
1014.3933	2877.4915	1534.95	652.95
1014.51	2878.6249	1533.3	652
1014.6266	2879.7577	1533.8	651.1
1014.7431	2880.8898	1543.7	647.45
1014.8596	2882.0212	1523.5	640.25
1014.9761	2883.152	1519.05	635.95
1015.0925	2884.2821	1521.25	639.3
1015.2089	2885.4116	1511.65	632
1015.3253	2886.5405	1523.8	641.85
1015.4416	2887.6686	1516.6	631.7
1015.5579	2888.7962	1517.05	635.85
1015.6741	2889.923	1522.9	639.15
1015.7903	2891.0493	1523.6	640.8
1015.9065	2892.1748	1521.8	638.8
1016.0226	2893.2997	1524.25	640.7
1016.1387	2894.424	1521.35	639.95
1016.2547	2895.5476	1524.9	640.85
1016.3707	2896.6706	1524.3	642.7
1016.4866	2897.7929	1532.2	648.8
1016.6025	2898.9145	1524.75	641.55
1016.7184	2900.0355	1534.95	650.8
1016.8342	2901.1559	1536.1	653.4
1016.95	2902.2756	1537.8	653.8
1017.0658	2903.3946	1549.6	665.75
1017.1815	2904.513	1546.65	658.45
1017.2971	2905.6308	1540.9	657.7
1017.4127	2906.7479	1553.25	670.3
1017.5283	2907.8643	1558.85	674.55
1017.6439	2908.9801	1552.5	671.45
1017.7594	2910.0953	1555.25	671.25
1017.8748	2911.2098	1549.45	664.2
1017.9902	2912.3236	1556.9	666.5
1018.1056	2913.4368	1546.05	658.9
1018.2209	2914.5494	1537.35	654.7
1018.3362	2915.6613	1538.25	649.2
1018.4515	2916.7725	1529	643.8
1018.5667	2917.8831	1522.15	638.7
1018.6819	2918.9931	1515	628.25
1018.797	2920.1024	1507.05	622.1
1018.9121	2921.211	1505.4	621.1
1019.0271	2922.319	1503.65	621.2
1019.1421	2923.4264	1496.65	614.25
1019.2571	2924.5331	1500	619.7
1019.372	2925.6391	1499.35	616.6
1019.4869	2926.7445	1492.05	610.15
1019.6017	2927.8493	1491.85	609.4
1019.7165	2928.9534	1488.4	604.85
1019.8313	2930.0569	1495	606.9
1019.946	2931.1597	1492.7	606.2
1020.0606	2932.2619	1491.4	608.1
1020.1753	2933.3634	1484.9	603.1
1020.2899	2934.4643	1503.05	616.2
1020.4044	2935.5645	1505.25	616.05
1020.5189	2936.6641	1496.75	610.45
1020.6334	2937.763	1482.75	600.55
1020.7478	2938.8613	1482.55	599.8
1020.8622	2939.959	1473.35	585.8
1020.9765	2941.056	1460.7	577.95
1021.0908	2942.1523	1454.45	571.95
1021.2051	2943.248	1430.2	546.6
1021.3193	2944.3431	1415.65	532.55
1021.4334	2945.4375	1402.25	519.4
1021.5476	2946.5313	1383.5	501.05
1021.6617	2947.6244	1367.7	483.7
1021.7757	2948.7169	1353.05	468.9
1021.8897	2949.8087	1339.6	457.7
1022.0037	2950.8999	1321.5	439.8
1022.1176	2951.9904	1304	422.05
1022.2315	2953.0803	1297.05	413.6
1022.3453	2954.1696	1279.95	397.1
1022.4591	2955.2582	1277	395.55
1022.5728	2956.3462	1266.55	385.4
1022.6865	2957.4335	1258.75	374.65
1022.8002	2958.5202	1257.15	371.9
1022.9138	2959.6062	1249.05	367.25
1023.0274	2960.6916	1249.4	366.75
1023.141	2961.7764	1241.65	359.05
1023.2545	2962.8605	1238.6	354.95
1023.3679	2963.9439	1231.25	349.05
1023.4813	2965.0267	1231.2	345.95
1023.5947	2966.1089	1246.8	343.35
1023.708	2967.1905	1231.1	349.55
1023.8213	2968.2714	1229.45	345.65
1023.9346	2969.3516	1227.55	343.4
1024.0478	2970.4312	1234.65	345.4
1024.1609	2971.5102	1227.15	344
1024.274	2972.5885	1226.2	345.9
1024.3871	2973.6662	1235.05	350
1024.5002	2974.7432	1226.3	345
1024.6132	2975.8196	1226.85	343.75
1024.7261	2976.8954	1225.15	342.45
1024.839	2977.9705	1221.8	339.55
1024.9519	2979.045	1217.35	333.6
1025.0647	2980.1188	1216.6	333.75
1025.1775	2981.192	1215.75	334.65
1025.2902	2982.2645	1215.4	331.35
1025.4029	2983.3364	1209.1	325.6
1025.5156	2984.4077	1197.35	314.3
1025.6282	2985.4783	1198.6	311.3
1025.7407	2986.5483	1197.65	316.9
1025.8532	2987.6177	1188.7	307.4
1025.9657	2988.6864	1179.75	296.25
1026.0782	2989.7545	1171.85	287.9
1026.1906	2990.8219	1169.2	287.85
1026.3029	2991.8887	1161.65	278.9
1026.4152	2992.9548	1155.8	272.1
1026.5275	2994.0204	1143.95	263.4
1026.6397	2995.0852	1139.1	258
1026.7519	2996.1495	1137.1	251.7
1026.864	2997.2131	1128.65	244.7
1026.9761	2998.276	1125.65	243.05
1027.0882	2999.3383	1124.5	240.55
1027.2002	3000.4	1116.35	233.55
1027.3122	3001.4611	1119.25	236.5
1027.4241	3002.5215	1114	232.2
1027.536	3003.5812	1106.45	223.05
1027.6478	3004.6404	1101.4	219
1027.7596	3005.6989	1102.6	219.7
1027.8714	3006.7567	1101.35	218.55
1027.9831	3007.8139	1114.4	209.3
1028.0947	3008.8705	1095.7	212.85
1028.2064	3009.9264	1108.15	208.85
1028.3179	3010.9818	1089.8	207.95
1028.4295	3012.0364	1086.05	202.85
1028.541	3013.0905	1086.2	203.8
1028.6524	3014.1439	1083.05	199.5
1028.7638	3015.1966	1080.95	196.55
1028.8752	3016.2487	1079.6	196.1
1028.9865	3017.3002	1083	196.95
1029.0978	3018.3511	1081.2	198.35
1029.209	3019.4013	1074.15	192.6
1029.3202	3020.4509	1075.85	196.05
1029.4314	3021.4998	1075.95	192.95
1029.5425	3022.5481	1074.95	190.6
1029.6535	3023.5958	1072.35	188.85
1029.7645	3024.6428	1069.65	186.45
1029.8755	3025.6892	1077.1	195.8
1029.9864	3026.735	1069.95	188.1
1030.0973	3027.7802	1073.25	191.2
1030.2082	3028.8247	1064.9	181.35
1030.319	3029.8685	1072.15	189.2
1030.4297	3030.9118	1070.75	186.65
1030.5404	3031.9544	1068.2	187.55
1030.6511	3032.9963	1069.45	187.35
1030.7617	3034.0376	1070.05	188.05
1030.8723	3035.0783	1071.35	186
1030.9829	3036.1184	1069.05	184.35
1031.0934	3037.1578	1063.85	181.15
1031.2038	3038.1966	1070.05	185.9
1031.3142	3039.2348	1069.4	186.55
1031.4246	3040.2723	1072.2	180.55
1031.5349	3041.3092	1064.95	181.55
1031.6452	3042.3455	1065.2	181.8
1031.7554	3043.3811	1063.8	180.1
1031.8656	3044.4161	1066.1	183.3
1031.9758	3045.4505	1066.95	185.75
1032.0859	3046.4842	1061.7	178.6
1032.1959	3047.5173	1060.1	176.1
1032.3059	3048.5498	1060.55	178.35
1032.4159	3049.5816	1061.95	178.55
1032.5258	3050.6128	1058.5	173.95
1032.6357	3051.6434	1057.7	173.6
1032.7455	3052.6734	1060.3	177.5
1032.8553	3053.7027	1052.4	172.25
1032.9651	3054.7314	1059.35	178.15
1033.0748	3055.7594	1054.1	172.4
1033.1845	3056.7868	1051.55	169.45
1033.2941	3057.8136	1053.1	170.95
1033.4037	3058.8398	1053.15	171.95
1033.5132	3059.8653	1049.4	166.65
1033.6227	3060.8902	1049.45	167.15
1033.7321	3061.9145	1050.55	168.25
1033.8415	3062.9381	1045.4	163.25
1033.9509	3063.9612	1069	171.15
1034.0602	3064.9835	1050.95	169.95
1034.1694	3066.0053	1052.85	168.95
1034.2787	3067.0264	1050.9	168.8
1034.3878	3068.0469	1043.6	161.05
1034.497	3069.0668	1047.75	162.95
1034.6061	3070.086	1039.95	157.6
1034.7151	3071.1046	1044.75	160.5
1034.8241	3072.1226	1041.35	157.8
1034.9331	3073.1399	1036.85	155.7
1035.042	3074.1567	1036.9	154.05
1035.1508	3075.1727	1039.3	155.2
1035.2597	3076.1882	1036.55	154.5
1035.3684	3077.203	1033.45	151.4
1035.4772	3078.2173	1029.7	147.45
1035.5859	3079.2308	1033.7	148.35
1035.6945	3080.2438	1030	148.2
1035.8031	3081.2561	1029.95	146.95
1035.9117	3082.2678	1024.25	141.85
1036.0202	3083.2789	1024.85	142.7
1036.1286	3084.2893	1021.1	140.15
1036.2371	3085.2991	1017.75	133.85
1036.3454	3086.3083	1025.3	137.1
1036.4538	3087.3169	1022.35	138.8
1036.562	3088.3248	1018.4	135.25
1036.6703	3089.3321	1018.95	134.2
1036.7785	3090.3388	1015.35	133.95
1036.8866	3091.3449	1015.35	133.3
1036.9948	3092.3503	1012.7	127
1037.1028	3093.3551	1011.1	129.7
1037.2108	3094.3593	1010.05	128.3
1037.3188	3095.3629	1008.35	127.4
1037.4267	3096.3658	1011.3	126.25
1037.5346	3097.3681	1007.35	124.5
1037.6425	3098.3698	1016.1	130.15
1037.7503	3099.3708	1016.25	128.95
1037.858	3100.3713	1007.5	125.7
1037.9657	3101.3711	1004.45	122.6
1038.0734	3102.3702	1132.25	116.95
1038.181	3103.3688	1006.5	122.55
1038.2886	3104.3667	1002.7	120.15
1038.3961	3105.364	1000.55	118.15
1038.5036	3106.3607	1003.15	118.6
1038.611	3107.3568	1003.85	119.25
1038.7184	3108.3522	999.25	119.85
1038.8257	3109.347	999.2	113.55
1038.933	3110.3412	1000.6	114.5
1039.0403	3111.3348	1002.25	121.6
1039.1475	3112.3277	994.4	112.05
1039.2547	3113.32	992.6	112.15
1039.3618	3114.3117	993.1	110.85
1039.4689	3115.3028	994.5	112.55
1039.5759	3116.2932	995.05	112.1
1039.6829	3117.2831	996.05	108.2
1039.7898	3118.2723	990.05	109.15
1039.8967	3119.2608	987.45	105.3
1040.0035	3120.2488	991.4	109.65
1040.1103	3121.2361	988.55	104.9
1040.2171	3122.2229	987.4	105.55
1040.3238	3123.209	986.15	103.75
1040.4305	3124.1944	987.95	108.15
1040.5371	3125.1793	984.5	101.25
1040.6437	3126.1635	982.8	101.6
1040.7502	3127.1471	985.45	102.45
1040.8567	3128.1301	979.6	96.95
1040.9631	3129.1125	983.45	101.4
1041.0695	3130.0942	984.35	101.8
1041.1759	3131.0753	993.35	103.55
1041.2822	3132.0558	984.9	99.9
1041.3884	3133.0357	979.25	96.95
1041.4946	3134.015	985.45	103.05
1041.6008	3134.9936	983.6	97.8
1041.7069	3135.9716	1001.5	96.85
1041.813	3136.949	981.45	99.2
1041.919	3137.9258	994.25	93.05
1042.025	3138.902	983.45	94.6
1042.1309	3139.8775	977.05	96.05
1042.2368	3140.8524	979.05	97.3
1042.3427	3141.8267	978.45	93.05
1042.4485	3142.8004	976.15	92.75
1042.5542	3143.7735	982.9	96
1042.6599	3144.7459	976.5	91.45
1042.7656	3145.7178	977.75	93.55
1042.8712	3146.689	977.2	96.35
1042.9768	3147.6596	974.35	88.4
1043.0823	3148.6295	973.3	91.5
1043.1878	3149.5989	974.65	92.7
1043.2932	3150.5676	971	88.6
1043.3986	3151.5357	970.75	88.15
1043.5039	3152.5032	968.05	87.1
1043.6092	3153.4701	971.05	88.8
1043.7145	3154.4364	973.8	90.95
1043.8197	3155.402	968.3	85.7
1043.9248	3156.367	968.55	85.3
1044.03	3157.3315	992.75	84.55
1044.135	3158.2952	969.4	86.2
1044.24	3159.2584	964.5	83.65
1044.345	3160.221	966	82.95
1044.4499	3161.1829	970.4	88.9
1044.5548	3162.1442	968	87.85
1044.6596	3163.105	966.45	82.7
1044.7644	3164.065	963.9	80.95
1044.8692	3165.0245	968.2	84.35
1044.9739	3165.9834	962.3	82.25
1045.0785	3166.9416	962.95	81.15
1045.1831	3167.8993	963.1	81
1045.2877	3168.8563	968.6	85.95
1045.3922	3169.8127	967.1	87
1045.4966	3170.7684	962.7	80.5
1045.6011	3171.7236	962.3	79.85
1045.7054	3172.6782	962.35	81.15
1045.8098	3173.6321	962.35	79.15
1045.914	3174.5854	965.05	77.9
1046.0183	3175.5381	962.45	82.4
1046.1224	3176.4902	957.3	76.35
1046.2266	3177.4417	957.35	74.55
1046.3307	3178.3926	955.7	74.6
1046.4347	3179.3428	957.15	75.75
1046.5387	3180.2924	959.2	77.7
1046.6427	3181.2415	958	76.3
1046.7466	3182.1899	958.95	73.9
1046.8504	3183.1377	956.25	74.9
1046.9542	3184.0848	959.3	72.95
1047.058	3185.0314	956.4	75.45
1047.1617	3185.9773	956.75	73.55
1047.2654	3186.9227	958.15	73.4
1047.369	3187.8674	957.7	77.35
1047.4726	3188.8115	956.1	68.5
1047.5761	3189.755	955	74.35
1047.6796	3190.6979	950.55	67.35
1047.783	3191.6402	953.1	72.05
1047.8864	3192.5818	953.3	71.45
1047.9898	3193.5229	958.25	67.95
1048.0931	3194.4633	953.15	70.65
1048.1963	3195.4031	952.9	69.2
1048.2995	3196.3423	951.55	70.45
1048.4027	3197.2809	952.2	70.1
1048.5058	3198.2189	951.55	69.15
1048.6089	3199.1563	956.25	67.2
1048.7119	3200.0931	949	67.5
1048.8148	3201.0292	947.1	67.7
1048.9178	3201.9648	948.15	66.25
1049.0206	3202.8997	951.35	65.95
1049.1235	3203.834	951.3	69.7
1049.2262	3204.7677	948.75	67.15
1049.329	3205.7008	952.35	67.35
1049.4317	3206.6333	946.8	65.5
1049.5343	3207.5652	950.5	65.65
1049.6369	3208.4964	944.15	62.65
1049.7394	3209.4271	948.1	66.85
1049.8419	3210.3571	944.6	60.4
1049.9444	3211.2865	947	66.2
1050.0468	3212.2154	947.7	66.95
1050.1491	3213.1436	950.05	65.65
1050.2514	3214.0712	952.95	63.95
1050.3537	3214.9982	946	62.35
1050.4559	3215.9246	944.1	61.4
1050.5581	3216.8503	940.05	57.45
1050.6602	3217.7755	941.8	58.2
1050.7623	3218.7001	941.8	60.45
1050.8643	3219.624	944.45	63.9
1050.9663	3220.5473	943.05	60.6
1051.0682	3221.4701	946.9	63
1051.1701	3222.3922	945.05	62.15
1051.2719	3223.3137	940.8	59.3
1051.3737	3224.2346	939.7	58.4
1051.4754	3225.1549	942.45	61.2
1051.5771	3226.0746	939.95	58.55
1051.6788	3226.9937	942.35	61.3
1051.7804	3227.9121	937.35	56
1051.8819	3228.83	938.45	56.15
1051.9834	3229.7473	941.1	57.6
1052.0849	3230.6639	941.45	60.65
1052.1863	3231.5799	938.9	57.75
1052.2876	3232.4954	940.45	59.85
1052.3889	3233.4102	937.85	55.4
1052.4902	3234.3244	935.7	52.75
1052.5914	3235.238	936.85	56.95
1052.6926	3236.151	962.95	55.2
1052.7937	3237.0634	938.05	56.35
1052.8948	3237.9752	937.6	55
1052.9958	3238.8864	936.05	54.75
1053.0968	3239.797	935.35	54.6
1053.1977	3240.7069	935.15	52.25
1053.2986	3241.6163	936.9	53.8
1053.3994	3242.5251	935.95	54.6
1053.5002	3243.4332	934.75	52.2
1053.6009	3244.3408	935.5	52.8
1053.7016	3245.2477	938.75	56.7
1053.8022	3246.154	934.05	52.3
1053.9028	3247.0598	932.25	48.35
1054.0034	3247.9649	931.1	50.25
1054.1039	3248.8694	930.85	48.75
1054.2043	3249.7733	935.7	54.3
1054.3047	3250.6766	932.3	48.8
1054.4051	3251.5793	933.65	50.9
1054.5054	3252.4814	931.65	47.7
1054.6056	3253.3829	929.95	49.1
1054.7058	3254.2838	932.7	51.2
1054.806	3255.1841	929.45	47.4
1054.9061	3256.0838	931.2	50.9
1055.0061	3256.9829	927.25	45.75
1055.1062	3257.8814	928.45	42.75
1055.2061	3258.7792	932.25	47.35
1055.306	3259.6765	929.15	45.65
1055.4059	3260.5731	926.55	43.9
1055.5057	3261.4692	928.1	47.45
1055.6055	3262.3647	928.65	46.2
1055.7052	3263.2595	927.3	45.7
1055.8049	3264.1538	923	39.7
1055.9045	3265.0474	924.85	42.6
1056.0041	3265.9404	924.2	43.15
1056.1036	3266.8329	927.3	45.25
1056.2031	3267.7247	929.7	38.1
1056.3025	3268.616	921.65	41.85
1056.4019	3269.5066	924.1	42.15
1056.5013	3270.3966	922.8	39.6
1056.6005	3271.286	918.1	37.95
